Raw Data
Time Displacement Force
(s) (mm) (N)
0.0000 0.0000 0.3533
0.0200 0.0001 0.3735
0.0400 0.0022 0.4509
0.0600 0.0101 0.4906
0.0800 0.0221 0.4838
0.1000 0.0346 0.5535
0.1200 0.0473 0.6527
0.1400 0.0607 0.6962
0.1600 0.0748 0.7608
0.1800 0.0889 0.8214
0.2000 0.1028 0.8621
0.2200 0.1164 0.9096
0.2400 0.1297 0.9133
0.2600 0.1430 0.8971
0.2800 0.1564 0.8990
0.3000 0.1698 0.8911
0.3200 0.1831 0.8737
0.3400 0.1965 0.8907
0.3600 0.2098 0.8811
0.3800 0.2232 0.8766
0.4000 0.2365 0.8868
0.4200 0.2498 0.8794
0.4400 0.2631 0.8755
0.4600 0.2764 0.8778
0.4800 0.2898 0.8693
0.5000 0.3031 0.8745
0.5200 0.3165 0.8783
0.5400 0.3298 0.8783
0.5600 0.3431 0.8654
0.5800 0.3565 0.8739
0.6000 0.3698 0.8580
0.6200 0.3831 0.8633
0.6400 0.3965 0.8685
0.6600 0.4099 0.8406
0.6800 0.4232 0.8540
0.7000 0.4365 0.8512
0.7200 0.4499 0.8327
0.7400 0.4632 0.8428
0.7600 0.4765 0.8459
0.7800 0.4899 0.8302
0.8000 0.5032 0.8403
0.8200 0.5165 0.8386
0.8400 0.5298 0.8275
0.8600 0.5432 0.8344
0.8800 0.5564 0.8320
0.9000 0.5697 0.8187
0.9200 0.5830 0.8379
0.9400 0.5964 0.8238
0.9600 0.6098 0.8195
0.9800 0.6231 0.8343
1.0000 0.6365 0.8215
1.0200 0.6498 0.8130
1.0400 0.6632 0.8278
1.0600 0.6765 0.8180
1.0800 0.6899 0.8130
1.1000 0.7032 0.8212
1.1200 0.7165 0.8097
1.1400 0.7298 0.8018
1.1600 0.7431 0.8166
1.1800 0.7565 0.8078
1.2000 0.7698 0.8014
1.2200 0.7832 0.8084
1.2400 0.7965 0.8042
1.2600 0.8098 0.8016
1.2800 0.8231 0.8007
1.3000 0.8365 0.7993
1.3200 0.8498 0.7986
1.3400 0.8631 0.8005
1.3600 0.8765 0.8005
1.3800 0.8898 0.7962
1.4000 0.9032 0.7904
1.4200 0.9165 0.7973
1.4400 0.9298 0.7932
1.4600 0.9432 0.7925
1.4800 0.9565 0.7875
1.5000 0.9699 0.7865
1.5200 0.9832 0.7852
1.5400 0.9965 0.7890
1.5600 1.0098 0.7841
1.5800 1.0231 0.7848
1.6000 1.0364 0.7842
1.6200 1.0498 0.7781
1.6400 1.0631 0.7807
1.6600 1.0765 0.7784
1.6800 1.0898 0.7699
1.7000 1.1031 0.7759
1.7200 1.1165 0.7763
1.7400 1.1299 0.7765
1.7600 1.1432 0.7756
1.7800 1.1566 0.7725
1.8000 1.1699 0.7655
1.8200 1.1832 0.7678
1.8400 1.1965 0.7708
1.8600 1.2099 0.7609
1.8800 1.2232 0.7652
1.9000 1.2365 0.7629
1.9200 1.2498 0.7541
1.9400 1.2632 0.7564
1.9600 1.2765 0.7610
1.9800 1.2898 0.7529
2.0000 1.3031 0.7449
2.0200 1.3164 0.7541
2.0400 1.3298 0.7498
2.0600 1.3431 0.7440
2.0800 1.3565 0.7459
2.1000 1.3698 0.7394
2.1200 1.3832 0.7432
2.1400 1.3966 0.7390
2.1600 1.4099 0.7332
2.1800 1.4232 0.7310
2.2000 1.4365 0.7401
2.2200 1.4499 0.7314
2.2400 1.4632 0.7333
2.2600 1.4765 0.7252
2.2800 1.4898 0.7249
2.3000 1.5031 0.7351
2.3200 1.5164 0.7196
2.3400 1.5298 0.7120
2.3600 1.5431 0.7311
2.3800 1.5565 0.7190
2.4000 1.5699 0.7170
2.4200 1.5832 0.7227
2.4400 1.5965 0.7150
2.4600 1.6099 0.7146
2.4800 1.6232 0.7175
2.5000 1.6365 0.7093
2.5200 1.6498 0.7146
2.5400 1.6631 0.7134
2.5600 1.6765 0.7064
2.5800 1.6899 0.7179
2.6000 1.7032 0.7090
2.6200 1.7165 0.6974
2.6400 1.7298 0.7140
2.6600 1.7432 0.7063
2.6800 1.7565 0.6954
2.7000 1.7698 0.7124
2.7200 1.7831 0.6947
2.7400 1.7965 0.6909
2.7600 1.8098 0.7079
2.7800 1.8231 0.6919
2.8000 1.8364 0.6888
2.8200 1.8498 0.7013
2.8400 1.8632 0.6827
2.8600 1.8765 0.6858
2.8800 1.8898 0.6961
2.9000 1.9032 0.6809
2.9200 1.9165 0.6823
2.9400 1.9299 0.6906
2.9600 1.9432 0.6807
2.9800 1.9565 0.6839
3.0000 1.9698 0.6818
3.0200 1.9832 0.6751
3.0400 1.9965 0.6753
3.0600 2.0098 0.6749
3.0800 2.0231 0.6712
3.1000 2.0364 0.6735
3.1200 2.0498 0.6700
3.1400 2.0631 0.6735
3.1600 2.0765 0.6627
3.1800 2.0898 0.6717
3.2000 2.1032 0.6691
3.2200 2.1166 0.6558
3.2400 2.1299 0.6659
3.2600 2.1432 0.6657
3.2800 2.1566 0.6549
3.3000 2.1699 0.6565
3.3200 2.1832 0.6602
3.3400 2.1965 0.6526
3.3600 2.2098 0.6604
3.3800 2.2231 0.6543
3.4000 2.2365 0.6477
3.4200 2.2498 0.6613
3.4400 2.2631 0.6529
3.4600 2.2765 0.6443
3.4800 2.2898 0.6582
3.5000 2.3032 0.6449
3.5200 2.3165 0.6461
3.5400 2.3298 0.6552
3.5600 2.3432 0.6423
3.5800 2.3565 0.6407
3.6000 2.3699 0.6526
3.6200 2.3832 0.6384
3.6400 2.3966 0.6402
3.6600 2.4099 0.6425
3.6800 2.4232 0.6319
3.7000 2.4365 0.6399
3.7200 2.4498 0.6405
3.7400 2.4632 0.6230
3.7600 2.4765 0.6395
3.7800 2.4898 0.6343
3.8000 2.5031 0.6233
3.8200 2.5164 0.6367
3.8400 2.5298 0.6228
3.8600 2.5431 0.6245
3.8800 2.5565 0.6295
3.9000 2.5698 0.6177
3.9200 2.5832 0.6263
3.9400 2.5966 0.6189
3.9600 2.6099 0.6135
3.9800 2.6232 0.6229
4.0000 2.6365 0.6145
4.0200 2.6499 0.6095
4.0400 2.6632 0.6175
4.0600 2.6765 0.6082
4.0800 2.6898 0.6106
4.1000 2.7032 0.6180
4.1200 2.7165 0.6000
4.1400 2.7298 0.6126
4.1600 2.7431 0.6009
4.1800 2.7564 0.6014
4.2000 2.7698 0.6103
4.2200 2.7831 0.5996
4.2400 2.7964 0.6032
4.2600 2.8098 0.6089
4.2800 2.8232 0.5890
4.3000 2.8366 0.5937
4.3200 2.8499 0.6123
4.3400 2.8632 0.5930
4.3600 2.8765 0.5912
4.3800 2.8899 0.6056
4.4000 2.9032 0.5790
4.4200 2.9165 0.5920
4.4400 2.9298 0.6025
4.4600 2.9431 0.5826
4.4800 2.9565 0.5899
4.5000 2.9698 0.5926
4.5200 2.9831 0.5791
4.5400 2.9965 0.5848
4.5600 3.0098 0.5903
4.5800 3.0232 0.5751
4.6000 3.0365 0.5829
4.6200 3.0498 0.5842
4.6400 3.0632 0.5735
4.6600 3.0765 0.5778
4.6800 3.0898 0.5799
4.7000 3.1031 0.5771
4.7200 3.1165 0.5734
4.7400 3.1299 0.5696
4.7600 3.1432 0.5766
4.7800 3.1565 0.5689
4.8000 3.1699 0.5665
4.8200 3.1832 0.5713
4.8400 3.1965 0.5673
4.8600 3.2098 0.5627
4.8800 3.2231 0.5689
4.9000 3.2364 0.5595
4.9200 3.2498 0.5656
4.9400 3.2631 0.5672
4.9600 3.2764 0.5536
4.9800 3.2898 0.5626
5.0000 3.3032 0.5654
5.0200 3.3166 0.5452
5.0400 3.3299 0.5625
5.0600 3.3432 0.5664
5.0800 3.3566 0.5448
5.1000 3.3699 0.5625
5.1200 3.3832 0.5574
5.1400 3.3965 0.5419
5.1600 3.4098 0.5619
5.1800 3.4231 0.5561
5.2000 3.4365 0.5379
5.2200 3.4498 0.5592
5.2400 3.4631 0.5519
5.2600 3.4764 0.5327
5.2800 3.4898 0.5556
5.3000 3.5031 0.5468
5.3200 3.5165 0.5309
5.3400 3.5298 0.5586
5.3600 3.5432 0.5412
5.3800 3.5566 0.5298
5.4000 3.5699 0.5476
5.4200 3.5832 0.5376
5.4400 3.5965 0.5296
5.4600 3.6099 0.5444
5.4800 3.6232 0.5316
5.5000 3.6365 0.5224
5.5200 3.6498 0.5443
5.5400 3.6631 0.5277
5.5600 3.6765 0.5150
5.5800 3.6898 0.5410
5.6000 3.7031 0.5249
5.6200 3.7164 0.5200
5.6400 3.7298 0.5304
5.6600 3.7432 0.5157
5.6800 3.7565 0.5181
5.7000 3.7698 0.5251
5.7200 3.7832 0.5136
5.7400 3.7965 0.5163
5.7600 3.8099 0.5210
5.7800 3.8232 0.5165
5.8000 3.8365 0.5132
5.8200 3.8499 0.5145
5.8400 3.8632 0.5137
5.8600 3.8765 0.5045
5.8800 3.8898 0.5128
5.9000 3.9032 0.5145
5.9200 3.9165 0.5034
5.9400 3.9298 0.5071
5.9600 3.9431 0.5010
5.9800 3.9564 0.4987
6.0000 3.9698 0.5075
6.0200 3.9832 0.4979
6.0400 3.9965 0.4938
6.0600 4.0098 0.5061
6.0800 4.0232 0.4943
6.1000 4.0366 0.4880
6.1200 4.0499 0.5023
6.1400 4.0632 0.4875
6.1600 4.0765 0.4883
6.1800 4.0899 0.4979
6.2000 4.1032 0.4823
6.2200 4.1165 0.4862
6.2400 4.1298 0.4940
6.2600 4.1431 0.4767
6.2800 4.1565 0.4842
6.3000 4.1698 0.4898
6.3200 4.1831 0.4794
6.3400 4.1964 0.4851
6.3600 4.2098 0.4827
6.3800 4.2231 0.4801
6.4000 4.2365 0.4794
6.4200 4.2498 0.4810
6.4400 4.2632 0.4784
6.4600 4.2765 0.4787
6.4800 4.2899 0.4741
6.5000 4.3032 0.4799
6.5200 4.3165 0.4764
6.5400 4.3299 0.4721
6.5600 4.3432 0.4734
6.5800 4.3565 0.4765
6.6000 4.3698 0.4747
6.6200 4.3832 0.4729
6.6400 4.3965 0.4692
6.6600 4.4098 0.4757
6.6800 4.4231 0.4682
6.7000 4.4364 0.4624
6.7200 4.4498 0.4732
6.7400 4.4631 0.4674
6.7600 4.4765 0.4510
6.7800 4.4898 0.4640
6.8000 4.5032 0.4590
6.8200 4.5165 0.4545
6.8400 4.5299 0.4627
6.8600 4.5432 0.4534
6.8800 4.5565 0.4477
6.9000 4.5698 0.4570
6.9200 4.5832 0.4560
6.9400 4.5965 0.4492
6.9600 4.6098 0.4530
6.9800 4.6232 0.4504
7.0000 4.6365 0.4453
7.0200 4.6498 0.4493
7.0400 4.6631 0.4491
7.0600 4.6764 0.4449
7.0800 4.6897 0.4480
7.1000 4.7031 0.4401
7.1200 4.7164 0.4421
7.1400 4.7298 0.4463
7.1600 4.7432 0.4417
7.1800 4.7566 0.4372
7.2000 4.7699 0.4406
7.2200 4.7832 0.4370
7.2400 4.7966 0.4352
7.2600 4.8099 0.4386
7.2800 4.8232 0.4354
7.3000 4.8365 0.4287
7.3200 4.8498 0.4348
7.3400 4.8631 0.4303
7.3600 4.8765 0.4300
7.3800 4.8898 0.4300
7.4000 4.9031 0.4262
7.4200 4.9165 0.4228
7.4400 4.9298 0.4240
7.4600 4.9432 0.4237
7.4800 4.9565 0.4209
7.5000 4.9698 0.4198
7.5200 4.9832 0.4172
7.5400 4.9966 0.4190
7.5600 5.0099 0.4180
7.5800 5.0232 0.4124
7.6000 5.0365 0.4191
7.6200 5.0499 0.4145
7.6400 5.0632 0.4086
7.6600 5.0765 0.4133
7.6800 5.0898 0.4126
7.7000 5.1031 0.4076
7.7200 5.1165 0.4118
7.7400 5.1298 0.4068
7.7600 5.1431 0.3985
7.7800 5.1564 0.4147
7.8000 5.1698 0.4023
7.8200 5.1831 0.4000
7.8400 5.1965 0.4105
7.8600 5.2098 0.4003
7.8800 5.2232 0.3960
7.9000 5.2365 0.4085
7.9200 5.2499 0.3957
7.9400 5.2632 0.3948
7.9600 5.2765 0.4006
7.9800 5.2899 0.3905
8.0000 5.3032 0.3914
8.0200 5.3165 0.3969
8.0400 5.3298 0.3867
8.0600 5.3431 0.3942
8.0800 5.3565 0.3957
8.1000 5.3698 0.3832
8.1200 5.3831 0.3897
8.1400 5.3964 0.3943
8.1600 5.4098 0.3809
8.1800 5.4231 0.3867
8.2000 5.4365 0.3944
8.2200 5.4498 0.3783
8.2400 5.4632 0.3889
8.2600 5.4765 0.3891
8.2800 5.4899 0.3723
8.3000 5.5032 0.3815
8.3200 5.5165 0.3853
8.3400 5.5299 0.3738
8.3600 5.5432 0.3867
8.3800 5.5565 0.3799
8.4000 5.5698 0.3698
8.4200 5.5831 0.3792
8.4400 5.5965 0.3827
8.4600 5.6098 0.3642
8.4800 5.6231 0.3773
8.5000 5.6364 0.3777
8.5200 5.6498 0.3613
8.5400 5.6631 0.3712
8.5600 5.6765 0.3760
8.5800 5.6898 0.3601
8.6000 5.7032 0.3683
8.6200 5.7165 0.3707
8.6400 5.7299 0.3594
8.6600 5.7432 0.3661
8.6800 5.7565 0.3762
8.7000 5.7699 0.3554
8.7200 5.7832 0.3653
8.7400 5.7966 0.3708
8.7600 5.8099 0.3559
8.7800 5.8232 0.3630
8.8000 5.8365 0.3680
8.8200 5.8498 0.3515
8.8400 5.8631 0.3592
8.8600 5.8764 0.3710
8.8800 5.8898 0.3460
8.9000 5.9031 0.3618
8.9200 5.9165 0.3665
8.9400 5.9298 0.3405
8.9600 5.9432 0.3631
8.9800 5.9566 0.3617
9.0000 5.9699 0.3393
9.0200 5.9832 0.3572
9.0400 5.9965 0.3570
9.0600 6.0099 0.3440
9.0800 6.0232 0.3515
9.1000 6.0365 0.3561
9.1200 6.0498 0.3412
9.1400 6.0631 0.3532
9.1600 6.0765 0.3506
9.1800 6.0898 0.3394
9.2000 6.1031 0.3475
9.2200 6.1164 0.3450
9.2400 6.1298 0.3331
9.2600 6.1431 0.3427
9.2800 6.1565 0.3401
9.3000 6.1698 0.3310
9.3200 6.1831 0.3386
9.3400 6.1965 0.3411
9.3600 6.2099 0.3278
9.3800 6.2232 0.3349
9.4000 6.2365 0.3363
9.4200 6.2499 0.3266
9.4400 6.2632 0.3283
9.4600 6.2765 0.3370
9.4800 6.2898 0.3296
9.5000 6.3031 0.3222
9.5200 6.3164 0.3336
9.5400 6.3298 0.3212
9.5600 6.3431 0.3280
9.5800 6.3564 0.3299
9.6000 6.3698 0.3177
9.6200 6.3832 0.3170
9.6400 6.3965 0.3277
9.6600 6.4099 0.3184
9.6800 6.4232 0.3184
9.7000 6.4365 0.3249
9.7200 6.4499 0.3080
9.7400 6.4632 0.3130
9.7600 6.4765 0.3301
9.7800 6.4898 0.3082
9.8000 6.5032 0.3180
9.8200 6.5166 0.3211
9.8400 6.5299 0.3023
9.8600 6.5432 0.3141
9.8800 6.5565 0.3189
9.9000 6.5699 0.3012
9.9200 6.5832 0.3134
9.9400 6.5965 0.3138
9.9600 6.6098 0.3000
9.9800 6.6231 0.3069
10.0000 6.6365 0.3144
10.0200 6.6498 0.2997
10.0400 6.6631 0.3059
10.0600 6.6765 0.3071
10.0800 6.6899 0.2942
10.1000 6.7032 0.3042
10.1200 6.7165 0.3034
10.1400 6.7298 0.2949
10.1600 6.7432 0.3037
10.1800 6.7566 0.3007
10.2000 6.7699 0.2903
10.2200 6.7832 0.3007
10.2400 6.7965 0.3019
10.2600 6.8099 0.2910
10.2800 6.8232 0.2949
10.3000 6.8365 0.2984
10.3200 6.8498 0.2831
10.3400 6.8631 0.2910
10.3600 6.8765 0.2958
10.3800 6.8898 0.2860
10.4000 6.9031 0.2875
10.4200 6.9165 0.2956
10.4400 6.9299 0.2764
10.4600 6.9432 0.2861
10.4800 6.9565 0.2863
10.5000 6.9699 0.2789
10.5200 6.9832 0.2863
10.5400 6.9965 0.2838
10.5600 7.0098 0.2730
10.5800 7.0231 0.2825
10.6000 7.0365 0.2866
10.6200 7.0498 0.2751
10.6400 7.0631 0.2758
10.6600 7.0765 0.2792
10.6800 7.0898 0.2743
10.7000 7.1032 0.2775
10.7200 7.1165 0.2765
10.7400 7.1298 0.2684
10.7600 7.1431 0.2725
10.7800 7.1565 0.2744
10.8000 7.1699 0.2716
10.8200 7.1832 0.2688
10.8400 7.1965 0.2728
10.8600 7.2099 0.2654
10.8800 7.2232 0.2650
10.9000 7.2366 0.2678
10.9200 7.2499 0.2692
10.9400 7.2632 0.2654
10.9600 7.2765 0.2684
10.9800 7.2898 0.2664
11.0000 7.3031 0.2635
11.0200 7.3164 0.2594
11.0400 7.3297 0.2662
11.0600 7.3431 0.2635
11.0800 7.3565 0.2589
11.1000 7.3698 0.2583
11.1200 7.3831 0.2592
11.1400 7.3965 0.2609
11.1600 7.4099 0.2580
11.1800 7.4232 0.2518
11.2000 7.4365 0.2596
11.2200 7.4499 0.2605
11.2400 7.4632 0.2528
11.2600 7.4766 0.2557
11.2800 7.4899 0.2566
11.3000 7.5032 0.2478
11.3200 7.5165 0.2521
11.3400 7.5298 0.2550
11.3600 7.5432 0.2428
11.3800 7.5565 0.2510
11.4000 7.5698 0.2516
11.4200 7.5831 0.2378
11.4400 7.5965 0.2500
11.4600 7.6098 0.2485
11.4800 7.6231 0.2351
11.5000 7.6365 0.2451
11.5200 7.6499 0.2384
11.5400 7.6632 0.2393
11.5600 7.6765 0.2401
11.5800 7.6899 0.2358
11.6000 7.7032 0.2335
11.6200 7.7166 0.2387
11.6400 7.7299 0.2337
11.6600 7.7432 0.2354
11.6800 7.7565 0.2334
11.7000 7.7698 0.2293
11.7200 7.7831 0.2240
11.7400 7.7964 0.2351
11.7600 7.8098 0.2250
11.7800 7.8231 0.2291
11.8000 7.8365 0.2245
11.8200 7.8498 0.2216
11.8400 7.8631 0.2296
11.8600 7.8765 0.2182
11.8800 7.8898 0.2226
11.9000 7.9032 0.2256
11.9200 7.9165 0.2120
11.9400 7.9298 0.2220
11.9600 7.9431 0.2251
11.9800 7.9565 0.2081
12.0000 7.9699 0.2224
12.0200 7.9832 0.2224
12.0400 7.9965 0.2081
12.0600 8.0099 0.2196
12.0800 8.0232 0.2168
12.1000 8.0365 0.2024
12.1200 8.0498 0.2243
12.1400 8.0631 0.2104
12.1600 8.0764 0.2084
12.1800 8.0898 0.2204
12.2000 8.1031 0.2062
12.2200 8.1165 0.2046
12.2400 8.1299 0.2193
12.2600 8.1433 0.2014
12.2800 8.1566 0.2037
12.3000 8.1699 0.2162
12.3200 8.1832 0.1984
12.3400 8.1966 0.2029
12.3600 8.2099 0.2142
12.3800 8.2232 0.1990
12.4000 8.2365 0.2024
12.4200 8.2498 0.2059
12.4400 8.2631 0.1983
12.4600 8.2764 0.1970
12.4800 8.2897 0.2016
12.5000 8.3031 0.1996
12.5200 8.3165 0.1941
12.5400 8.3298 0.1940
12.5600 8.3431 0.1954
12.5800 8.3565 0.1906
12.6000 8.3699 0.1945
12.6200 8.3832 0.1963
12.6400 8.3966 0.1811
12.6600 8.4099 0.1917
12.6800 8.4232 0.1908
12.7000 8.4365 0.1833
12.7200 8.4498 0.1920
12.7400 8.4631 0.1886
12.7600 8.4765 0.1784
12.7800 8.4898 0.1923
12.8000 8.5032 0.1854
12.8200 8.5165 0.1757
12.8400 8.5298 0.1864
12.8600 8.5431 0.1859
12.8800 8.5565 0.1737
12.9000 8.5698 0.1886
12.9200 8.5832 0.1783
12.9400 8.5965 0.1694
12.9600 8.6099 0.1829
12.9800 8.6232 0.1803
13.0000 8.6365 0.1715
13.0200 8.6499 0.1829
13.0400 8.6632 0.1792
13.0600 8.6766 0.1708
13.0800 8.6899 0.1810
13.1000 8.7032 0.1725
13.1200 8.7165 0.1677
13.1400 8.7298 0.1780
13.1600 8.7432 0.1753
13.1800 8.7565 0.1655
13.2000 8.7698 0.1737
13.2200 8.7831 0.1714
13.2400 8.7965 0.1666
13.2600 8.8098 0.1684
13.2800 8.8232 0.1721
13.3000 8.8365 0.1641
13.3200 8.8499 0.1667
13.3400 8.8632 0.1660
13.3600 8.8766 0.1622
13.3800 8.8899 0.1613
13.4000 8.9032 0.1647
13.4200 8.9165 0.1567
13.4400 8.9299 0.1672
13.4600 8.9431 0.1629
13.4800 8.9564 0.1538
13.5000 8.9698 0.1597
13.5200 8.9832 0.1627
13.5400 8.9965 0.1546
13.5600 9.0098 0.1546
13.5800 9.0231 0.1594
13.6000 9.0365 0.1547
13.6200 9.0498 0.1502
13.6400 9.0631 0.1556
13.6600 9.0765 0.1491
13.6800 9.0898 0.1503
13.7000 9.1032 0.1532
13.7200 9.1165 0.1420
13.7400 9.1299 0.1485
13.7600 9.1432 0.1527
13.7800 9.1566 0.1368
13.8000 9.1699 0.1460
13.8200 9.1832 0.1510
13.8400 9.1965 0.1374
13.8600 9.2098 0.1415
13.8800 9.2231 0.1511
13.9000 9.2365 0.1420
13.9200 9.2498 0.1375
13.9400 9.2631 0.1470
13.9600 9.2765 0.1355
13.9800 9.2898 0.1404
14.0000 9.3032 0.1415
14.0200 9.3165 0.1276
14.0400 9.3298 0.1390
14.0600 9.3432 0.1383
14.0800 9.3565 0.1238
14.1000 9.3698 0.1403
14.1200 9.3832 0.1306
14.1400 9.3965 0.1228
14.1600 9.4099 0.1319
14.1800 9.4232 0.1329
14.2000 9.4365 0.1292
14.2200 9.4498 0.1302
14.2400 9.4632 0.1255
14.2600 9.4765 0.1229
14.2800 9.4898 0.1293
14.3000 9.5031 0.1252
14.3200 9.5164 0.1205
14.3400 9.5298 0.1233
14.3600 9.5431 0.1200
14.3800 9.5565 0.1234
14.4000 9.5698 0.1206
14.4200 9.5832 0.1229
14.4400 9.5966 0.1219
14.4600 9.6099 0.1156
14.4800 9.6232 0.1240
14.5000 9.6366 0.1150
14.5200 9.6499 0.1184
14.5400 9.6631 0.1190
14.5600 9.6764 0.1083
14.5800 9.6898 0.1169
14.6000 9.7031 0.1187
14.6200 9.7164 0.1074
14.6400 9.7298 0.1128
14.6600 9.7431 0.1172
14.6800 9.7565 0.1026
14.7000 9.7698 0.1058
14.7200 9.7832 0.1170
14.7400 9.7965 0.0979
14.7600 9.8099 0.1064
14.7800 9.8232 0.1110
14.8000 9.8366 0.0960
14.8200 9.8499 0.1081
14.8400 9.8632 0.1082
14.8600 9.8765 0.0946
14.8800 9.8899 0.1059
14.9000 9.9031 0.1096
14.9200 9.9165 0.0927
14.9400 9.9298 0.1013
14.9600 9.9431 0.1060
14.9800 9.9565 0.0892
15.0000 9.9698 0.1021
15.0200 9.9831 0.1024
15.0400 9.9965 0.0854
15.0600 10.0098 0.1041
15.0800 10.0232 0.0963
15.1000 10.0365 0.0859
15.1200 10.0499 0.1034
15.1400 10.0632 0.0942
15.1600 10.0766 0.0854
15.1800 10.0899 0.0998
15.2000 10.1032 0.0954
15.2200 10.1166 0.0942
15.2400 10.1299 0.0923
15.2600 10.1432 0.0909
15.2800 10.1565 0.0948
15.3000 10.1698 0.0915
15.3200 10.1832 0.0866
15.3400 10.1965 0.0959
15.3600 10.2098 0.0876
15.3800 10.2231 0.0913
15.4000 10.2364 0.0922
15.4200 10.2498 0.0806
15.4400 10.2631 0.0887
15.4600 10.2765 0.0886
15.4800 10.2898 0.0775
15.5000 10.3032 0.0897
15.5200 10.3166 0.0845
15.5400 10.3299 0.0743
15.5600 10.3432 0.0899
15.5800 10.3566 0.0773
15.6000 10.3699 0.0731
15.6200 10.3832 0.0907
15.6400 10.3965 0.0711
15.6600 10.4098 0.0741
15.6800 10.4232 0.0873
15.7000 10.4365 0.0667
15.7200 10.4498 0.0768
15.7400 10.4631 0.0787
15.7600 10.4765 0.0629
15.7800 10.4898 0.0727
15.8000 10.5031 0.0746
15.8200 10.5165 0.0601
15.8400 10.5298 0.0733
15.8600 10.5432 0.0648
15.8800 10.5565 0.0628
15.9000 10.5698 0.0693
15.9200 10.5832 0.0645
15.9400 10.5965 0.0570
15.9600 10.6099 0.0692
15.9800 10.6232 0.0603
16.0000 10.6365 0.0600
16.0200 10.6498 0.0674
16.0400 10.6631 0.0565
16.0600 10.6765 0.0622
16.0800 10.6898 0.0627
16.1000 10.7031 0.0523
16.1200 10.7165 0.0634
16.1400 10.7298 0.0550
16.1600 10.7431 0.0537
16.1800 10.7565 0.0614
16.2000 10.7698 0.0525
16.2200 10.7832 0.0508
16.2400 10.7966 0.0590
16.2600 10.8099 0.0489
16.2800 10.8232 0.0494
16.3000 10.8365 0.0590
16.3200 10.8499 0.0436
16.3400 10.8632 0.0488
16.3600 10.8765 0.0513
16.3800 10.8898 0.0461
16.4000 10.9032 0.0456
16.4200 10.9165 0.0492
16.4400 10.9298 0.0436
16.4600 10.9431 0.0439
16.4800 10.9564 0.0454
16.5000 10.9698 0.0441
16.5200 10.9831 0.0395
16.5400 10.9965 0.0436
16.5600 11.0098 0.0410
16.5800 11.0232 0.0360
16.6000 11.0366 0.0376
16.6200 11.0499 0.0389
16.6400 11.0632 0.0311
16.6600 11.0766 0.0416
16.6800 11.0899 0.0348
16.7000 11.1032 0.0291
16.7200 11.1164 0.0404
16.7400 11.1298 0.0370
16.7600 11.1431 0.0248
16.7800 11.1565 0.0339
16.8000 11.1698 0.0365
16.8200 11.1831 0.0202
16.8400 11.1965 0.0350
16.8600 11.2098 0.0282
16.8800 11.2232 0.0209
16.9000 11.2365 0.0341
16.9200 11.2498 0.0298
16.9400 11.2632 0.0151
16.9600 11.2765 0.0283
16.9800 11.2898 0.0274
17.0000 11.3032 0.0154
17.0200 11.3165 0.0326
17.0400 11.3299 0.0236
17.0600 11.3432 0.0083
17.0800 11.3565 0.0311
17.1000 11.3698 0.0182
17.1200 11.3832 0.0155
17.1400 11.3965 0.0282
17.1600 11.4098 0.0156
17.1800 11.4231 0.0123
17.2000 11.4365 0.0299
17.2200 11.4498 0.0139
17.2400 11.4631 0.0104
17.2600 11.4764 0.0283
17.2800 11.4898 0.0145
17.3000 11.5032 0.0102
17.3200 11.5165 0.0246
17.3400 11.5299 0.0084
17.3600 11.5432 0.0135
17.3800 11.5565 0.0187
17.4000 11.5699 0.0062
17.4200 11.5832 0.0104
17.4400 11.5965 0.0161
17.4600 11.6098 0.0082
17.4800 11.6232 0.0074
17.5000 11.6365 0.0159
17.5200 11.6498 0.0095
17.5400 11.6631 0.0042
17.5600 11.6764 0.0122
17.5800 11.6898 0.0082
17.6000 11.7031 0.0018
17.6200 11.7165 0.0113
17.6400 11.7298 0.0034
17.6600 11.7432 -0.0009
17.6800 11.7565 0.0052
17.7000 11.7699 0.0007
17.7200 11.7832 -0.0033
17.7400 11.7965 0.0080
17.7600 11.8099 -0.0002
17.7800 11.8232 -0.0038
17.8000 11.8365 0.0032
17.8200 11.8498 -0.0011
17.8400 11.8631 -0.0080
17.8600 11.8765 -0.0011
17.8800 11.8898 -0.0038
17.9000 11.9031 -0.0049
17.9200 11.9165 -0.0014
17.9400 11.9298 -0.0055
17.9600 11.9432 -0.0159
17.9800 11.9565 -0.0031
18.0000 11.9698 -0.0067
18.0200 11.9832 -0.0155
18.0400 11.9965 -0.0082
18.0600 12.0098 -0.0101
18.0800 12.0232 -0.0145
18.1000 12.0365 -0.0110
18.1200 12.0499 -0.0077
18.1400 12.0632 -0.0161
18.1600 12.0765 -0.0140
18.1800 12.0898 -0.0129
18.2000 12.1032 -0.0201
18.2200 12.1165 -0.0144
18.2400 12.1298 -0.0160
18.2600 12.1431 -0.0182
18.2800 12.1564 -0.0133
18.3000 12.1698 -0.0228
18.3200 12.1831 -0.0217
18.3400 12.1965 -0.0197
18.3600 12.2098 -0.0192
18.3800 12.2232 -0.0255
18.4000 12.2366 -0.0244
18.4200 12.2499 -0.0251
18.4400 12.2632 -0.0230
18.4600 12.2765 -0.0249
18.4800 12.2899 -0.0265
18.5000 12.3032 -0.0332
18.5200 12.3165 -0.0247
18.5400 12.3298 -0.0247
18.5600 12.3431 -0.0321
18.5800 12.3565 -0.0322
18.6000 12.3698 -0.0293
18.6200 12.3831 -0.0380
18.6400 12.3965 -0.0323
18.6600 12.4098 -0.0301
18.6800 12.4231 -0.0415
18.7000 12.4365 -0.0319
18.7200 12.4498 -0.0312
18.7400 12.4632 -0.0432
18.7600 12.4765 -0.0366
18.7800 12.4899 -0.0331
18.8000 12.5032 -0.0466
18.8200 12.5165 -0.0350
18.8400 12.5299 -0.0368
18.8600 12.5432 -0.0518
18.8800 12.5565 -0.0411
18.9000 12.5698 -0.0322
18.9200 12.5831 -0.0503
18.9400 12.5965 -0.0400
18.9600 12.6098 -0.0407
18.9800 12.6231 -0.0482
19.0000 12.6364 -0.0446
19.0200 12.6498 -0.0406
19.0400 12.6631 -0.0530
19.0600 12.6765 -0.0431
19.0800 12.6898 -0.0476
19.1000 12.7031 -0.0534
19.1200 12.7165 -0.0474
19.1400 12.7298 -0.0506
19.1600 12.7432 -0.0548
19.1800 12.7565 -0.0503
19.2000 12.7698 -0.0512
19.2200 12.7832 -0.0567
19.2400 12.7965 -0.0488
19.2600 12.8098 -0.0547
19.2800 12.8232 -0.0571
19.3000 12.8365 -0.0557
19.3200 12.8498 -0.0600
19.3400 12.8631 -0.0575
19.3600 12.8764 -0.0547
19.3800 12.8898 -0.0627
19.4000 12.9031 -0.0599
19.4200 12.9164 -0.0553
19.4400 12.9298 -0.0578
19.4600 12.9432 -0.0639
19.4800 12.9566 -0.0590
19.5000 12.9699 -0.0629
19.5200 12.9832 -0.0661
19.5400 12.9966 -0.0592
19.5600 13.0099 -0.0597
19.5800 13.0233 -0.0698
19.6000 13.0365 -0.0627
19.6200 13.0498 -0.0647
19.6400 13.0631 -0.0674
19.6600 13.0765 -0.0676
19.6800 13.0898 -0.0644
19.7000 13.1031 -0.0726
19.7200 13.1164 -0.0660
19.7400 13.1298 -0.0679
19.7600 13.1431 -0.0772
19.7800 13.1565 -0.0720
19.8000 13.1698 -0.0675
19.8200 13.1832 -0.0765
19.8400 13.1965 -0.0740
19.8600 13.2099 -0.0696
19.8800 13.2232 -0.0824
19.9000 13.2365 -0.0754
19.9200 13.2499 -0.0720
19.9400 13.2632 -0.0812
19.9600 13.2765 -0.0749
19.9800 13.2898 -0.0760
20.0000 13.3031 -0.0848
20.0200 13.3165 -0.0779
20.0400 13.3298 -0.0793
20.0600 13.3431 -0.0839
20.0800 13.3564 -0.0798
20.1000 13.3698 -0.0881
20.1200 13.3832 -0.0873
20.1400 13.3965 -0.0804
20.1600 13.4098 -0.0870
20.1800 13.4232 -0.0878
20.2000 13.4365 -0.0885
20.2200 13.4499 -0.0906
20.2400 13.4632 -0.0897
20.2600 13.4765 -0.0875
20.2800 13.4899 -0.0928
20.3000 13.5032 -0.0849
20.3200 13.5165 -0.0954
20.3400 13.5298 -0.0973
20.3600 13.5432 -0.0903
20.3800 13.5565 -0.0951
20.4000 13.5698 -0.1023
20.4200 13.5831 -0.0950
20.4400 13.5964 -0.0959
20.4600 13.6098 -0.1034
20.4800 13.6231 -0.0942
20.5000 13.6365 -0.1019
20.5200 13.6498 -0.1012
20.5400 13.6632 -0.0985
20.5600 13.6766 -0.1092
20.5800 13.6899 -0.1081
20.6000 13.7032 -0.0979
20.6200 13.7165 -0.1041
20.6400 13.7299 -0.1058
20.6600 13.7432 -0.1053
20.6800 13.7565 -0.1056
20.7000 13.7698 -0.1080
20.7200 13.7831 -0.0994
20.7400 13.7965 -0.1138
20.7600 13.8098 -0.1115
20.7800 13.8231 -0.1039
20.8000 13.8365 -0.1100
20.8200 13.8498 -0.1130
20.8400 13.8631 -0.1054
20.8600 13.8765 -0.1160
20.8800 13.8898 -0.1160
20.9000 13.9032 -0.1026
20.9200 13.9165 -0.1151
20.9400 13.9299 -0.1153
20.9600 13.9432 -0.1087
20.9800 13.9565 -0.1202
21.0000 13.9699 -0.1120
21.0200 13.9833 -0.1110
21.0400 13.9965 -0.1215
21.0600 14.0098 -0.1161
21.0800 14.0231 -0.1154
21.1000 14.0365 -0.1237
21.1200 14.0498 -0.1178
21.1400 14.0631 -0.1151
21.1600 14.0764 -0.1224
21.1800 14.0898 -0.1220
21.2000 14.1031 -0.1230
21.2200 14.1165 -0.1259
21.2400 14.1298 -0.1264
21.2600 14.1432 -0.1205
21.2800 14.1565 -0.1297
21.3000 14.1699 -0.1286
21.3200 14.1832 -0.1280
21.3400 14.1965 -0.1265
21.3600 14.2099 -0.1314
21.3800 14.2232 -0.1271
21.4000 14.2365 -0.1269
21.4200 14.2498 -0.1351
21.4400 14.2631 -0.1300
21.4600 14.2765 -0.1266
21.4800 14.2898 -0.1474
21.5000 14.3031 -0.1274
21.5200 14.3164 -0.1297
21.5400 14.3297 -0.1432
21.5600 14.3431 -0.1335
21.5800 14.3564 -0.1373
21.6000 14.3698 -0.1492
21.6200 14.3831 -0.1310
21.6400 14.3965 -0.1380
21.6600 14.4099 -0.1562
21.6800 14.4232 -0.1311
21.7000 14.4366 -0.1438
21.7200 14.4499 -0.1517
21.7400 14.4632 -0.1357
21.7600 14.4765 -0.1485
21.7800 14.4898 -0.1514
21.8000 14.5031 -0.1353
21.8200 14.5165 -0.1501
21.8400 14.5298 -0.1550
21.8600 14.5431 -0.1402
21.8800 14.5564 -0.1517
21.9000 14.5698 -0.1563
21.9200 14.5832 -0.1382
21.9400 14.5965 -0.1600
21.9600 14.6098 -0.1576
21.9800 14.6232 -0.1460
22.0000 14.6365 -0.1559
22.0200 14.6499 -0.1606
22.0400 14.6632 -0.1513
22.0600 14.6765 -0.1587
22.0800 14.6898 -0.1566
22.1000 14.7032 -0.1527
22.1200 14.7165 -0.1577
22.1400 14.7298 -0.1613
22.1600 14.7431 -0.1559
22.1800 14.7565 -0.1634
22.2000 14.7698 -0.1598
22.2200 14.7831 -0.1593
22.2400 14.7965 -0.1627
22.2600 14.8098 -0.1633
22.2800 14.8232 -0.1670
22.3000 14.8365 -0.1617
22.3200 14.8498 -0.1660
22.3400 14.8632 -0.1611
22.3600 14.8765 -0.1656
22.3800 14.8899 -0.1764
22.4000 14.9032 -0.1697
22.4200 14.9165 -0.1655
22.4400 14.9299 -0.1717
22.4600 14.9432 -0.1649
22.4800 14.9566 -0.1735
22.5000 14.9698 -0.1796
22.5200 14.9831 -0.1644
22.5400 14.9965 -0.1672
22.5600 15.0098 -0.1903
22.5800 15.0231 -0.1709
22.6000 15.0364 -0.1751
22.6200 15.0498 -0.1832
22.6400 15.0631 -0.1725
22.6600 15.0765 -0.1797
22.6800 15.0898 -0.1834
22.7000 15.1031 -0.1733
22.7200 15.1165 -0.1809
22.7400 15.1299 -0.1858
22.7600 15.1432 -0.1796
22.7800 15.1565 -0.1817
22.8000 15.1699 -0.1882
22.8200 15.1832 -0.1773
22.8400 15.1965 -0.1852
22.8600 15.2098 -0.1900
22.8800 15.2231 -0.1835
22.9000 15.2365 -0.1869
22.9200 15.2498 -0.1914
22.9400 15.2631 -0.1874
22.9600 15.2764 -0.1914
22.9800 15.2898 -0.1970
23.0000 15.3031 -0.1825
23.0200 15.3165 -0.1930
23.0400 15.3298 -0.1989
23.0600 15.3431 -0.1911
23.0800 15.3565 -0.1877
23.1000 15.3698 -0.2035
23.1200 15.3832 -0.1957
23.1400 15.3965 -0.1920
23.1600 15.4099 -0.2059
23.1800 15.4233 -0.2031
23.2000 15.4366 -0.1935
23.2200 15.4499 -0.2047
23.2400 15.4632 -0.1998
23.2600 15.4765 -0.2034
23.2800 15.4898 -0.2073
23.3000 15.5031 -0.2019
23.3200 15.5164 -0.2001
23.3400 15.5298 -0.2126
23.3600 15.5431 -0.2057
23.3800 15.5565 -0.2035
23.4000 15.5698 -0.2182
23.4200 15.5832 -0.2057
23.4400 15.5965 -0.2050
23.4600 15.6099 -0.2174
23.4800 15.6232 -0.2114
23.5000 15.6365 -0.2061
23.5200 15.6499 -0.2215
23.5400 15.6632 -0.2147
23.5600 15.6766 -0.2126
23.5800 15.6898 -0.2216
23.6000 15.7031 -0.2142
23.6200 15.7165 -0.2154
23.6400 15.7298 -0.2242
23.6600 15.7431 -0.2198
23.6800 15.7564 -0.2181
23.7000 15.7698 -0.2222
23.7200 15.7831 -0.2227
23.7400 15.7965 -0.2219
23.7600 15.8098 -0.2265
23.7800 15.8231 -0.2175
23.8000 15.8365 -0.2232
23.8200 15.8499 -0.2308
23.8400 15.8632 -0.2314
23.8600 15.8765 -0.2206
23.8800 15.8899 -0.2265
23.9000 15.9032 -0.2329
23.9200 15.9165 -0.2279
23.9400 15.9298 -0.2275
23.9600 15.9431 -0.2371
23.9800 15.9564 -0.2266
24.0000 15.9698 -0.2317
24.0200 15.9831 -0.2404
24.0400 15.9964 -0.2260
24.0600 16.0098 -0.2338
24.0800 16.0232 -0.2414
24.1000 16.0365 -0.2310
24.1200 16.0498 -0.2361
24.1400 16.0632 -0.2447
24.1600 16.0765 -0.2352
24.1800 16.0899 -0.2358
24.2000 16.1032 -0.2466
24.2200 16.1165 -0.2387
24.2400 16.1298 -0.2430
24.2600 16.1432 -0.2474
24.2800 16.1565 -0.2373
24.3000 16.1699 -0.2480
24.3200 16.1832 -0.2419
24.3400 16.1965 -0.2422
24.3600 16.2099 -0.2478
24.3800 16.2232 -0.2522
24.4000 16.2365 -0.2394
24.4200 16.2498 -0.2522
24.4400 16.2631 -0.2542
24.4600 16.2765 -0.2489
24.4800 16.2898 -0.2551
24.5000 16.3031 -0.2538
24.5200 16.3165 -0.2507
24.5400 16.3299 -0.2585
24.5600 16.3432 -0.2581
24.5800 16.3565 -0.2501
24.6000 16.3699 -0.2594
24.6200 16.3832 -0.2619
24.6400 16.3966 -0.2547
24.6600 16.4099 -0.2602
24.6800 16.4232 -0.2622
24.7000 16.4365 -0.2572
24.7200 16.4499 -0.2581
24.7400 16.4632 -0.2611
24.7600 16.4765 -0.2615
24.7800 16.4898 -0.2614
24.8000 16.5031 -0.2627
24.8200 16.5164 -0.2622
24.8400 16.5298 -0.2624
24.8600 16.5431 -0.2649
24.8800 16.5565 -0.2711
24.9000 16.5699 -0.2640
24.9200 16.5832 -0.2713
24.9400 16.5965 -0.2671
24.9600 16.6099 -0.2661
24.9800 16.6232 -0.2779
25.0000 16.6366 -0.2722
25.0200 16.6499 -0.2660
25.0400 16.6632 -0.2750
25.0600 16.6765 -0.2763
25.0800 16.6898 -0.2730
25.1000 16.7031 -0.2752
25.1200 16.7164 -0.2751
25.1400 16.7298 -0.2758
25.1600 16.7431 -0.2802
25.1800 16.7565 -0.2786
25.2000 16.7698 -0.2828
25.2200 16.7831 -0.2773
25.2400 16.7965 -0.2818
25.2600 16.8098 -0.2879
25.2800 16.8232 -0.2802
25.3000 16.8365 -0.2872
25.3200 16.8499 -0.2841
25.3400 16.8632 -0.2862
25.3600 16.8766 -0.2869
25.3800 16.8899 -0.2867
25.4000 16.9032 -0.2848
25.4200 16.9165 -0.2843
25.4400 16.9298 -0.2881
25.4600 16.9432 -0.2907
25.4800 16.9564 -0.2915
25.5000 16.9697 -0.2890
25.5200 16.9831 -0.2891
25.5400 16.9964 -0.2947
25.5600 17.0098 -0.2920
25.5800 17.0231 -0.2973
25.6000 17.0365 -0.2998
25.6200 17.0499 -0.2937
25.6400 17.0632 -0.2989
25.6600 17.0765 -0.3078
25.6800 17.0898 -0.2956
25.7000 17.1032 -0.3011
25.7200 17.1165 -0.3080
25.7400 17.1299 -0.3023
25.7600 17.1432 -0.3042
25.7800 17.1565 -0.3073
25.8000 17.1698 -0.3019
25.8200 17.1832 -0.3120
25.8400 17.1965 -0.3075
25.8600 17.2098 -0.3020
25.8800 17.2231 -0.3133
25.9000 17.2365 -0.3157
25.9200 17.2498 -0.3043
25.9400 17.2631 -0.3115
25.9600 17.2765 -0.3189
25.9800 17.2899 -0.3073
26.0000 17.3032 -0.3185
26.0200 17.3165 -0.3170
26.0400 17.3299 -0.3105
26.0600 17.3432 -0.3208
26.0800 17.3566 -0.3228
26.1000 17.3699 -0.3117
26.1200 17.3831 -0.3254
26.1400 17.3964 -0.3218
26.1600 17.4098 -0.3137
26.1800 17.4231 -0.3219
26.2000 17.4364 -0.3296
26.2200 17.4498 -0.3156
26.2400 17.4631 -0.3256
26.2600 17.4765 -0.3322
26.2800 17.4898 -0.3192
26.3000 17.5032 -0.3296
26.3200 17.5165 -0.3351
26.3400 17.5299 -0.3207
26.3600 17.5432 -0.3301
26.3800 17.5565 -0.3331
26.4000 17.5698 -0.3225
26.4200 17.5832 -0.3361
26.4400 17.5965 -0.3388
26.4600 17.6099 -0.3262
26.4800 17.6232 -0.3338
26.5000 17.6365 -0.3406
26.5200 17.6499 -0.3321
26.5400 17.6632 -0.3397
26.5600 17.6765 -0.3446
26.5800 17.6897 -0.3324
26.6000 17.7031 -0.3418
26.6200 17.7164 -0.3470
26.6400 17.7298 -0.3328
26.6600 17.7431 -0.3465
26.6800 17.7565 -0.3480
26.7000 17.7699 -0.3377
26.7200 17.7832 -0.3467
26.7400 17.7966 -0.3531
26.7600 17.8099 -0.3409
26.7800 17.8232 -0.3479
26.8000 17.8366 -0.3508
26.8200 17.8499 -0.3401
26.8400 17.8632 -0.3512
26.8600 17.8765 -0.3568
26.8800 17.8898 -0.3432
26.9000 17.9031 -0.3592
26.9200 17.9164 -0.3576
26.9400 17.9297 -0.3435
26.9600 17.9431 -0.3595
26.9800 17.9564 -0.3635
27.0000 17.9698 -0.3485
27.0200 17.9831 -0.3641
27.0400 17.9965 -0.3638
27.0600 18.0099 -0.3528
27.0800 18.0232 -0.3654
27.1000 18.0366 -0.3627
27.1200 18.0499 -0.3588
27.1400 18.0632 -0.3690
27.1600 18.0766 -0.3682
27.1800 18.0899 -0.3619
27.2000 18.1032 -0.3728
27.2200 18.1165 -0.3721
27.2400 18.1298 -0.3628
27.2600 18.1432 -0.3761
27.2800 18.1565 -0.3817
27.3000 18.1698 -0.3655
27.3200 18.1831 -0.3781
27.3400 18.1965 -0.3815
27.3600 18.2098 -0.3714
27.3800 18.2232 -0.3809
27.4000 18.2365 -0.3863
27.4200 18.2498 -0.3700
27.4400 18.2632 -0.3861
27.4600 18.2765 -0.3856
27.4800 18.2899 -0.3800
27.5000 18.3032 -0.3857
27.5200 18.3166 -0.3919
27.5400 18.3299 -0.3809
27.5600 18.3432 -0.3850
27.5800 18.3565 -0.3984
27.6000 18.3699 -0.3854
27.6200 18.3832 -0.3935
27.6400 18.3965 -0.3966
27.6600 18.4098 -0.3912
27.6800 18.4231 -0.3962
27.7000 18.4365 -0.3968
27.7200 18.4498 -0.3932
27.7400 18.4631 -0.4017
27.7600 18.4765 -0.4033
27.7800 18.4899 -0.3968
27.8000 18.5032 -0.4007
27.8200 18.5166 -0.4075
27.8400 18.5299 -0.4039
27.8600 18.5432 -0.4072
27.8800 18.5565 -0.4098
27.9000 18.5698 -0.4046
27.9200 18.5831 -0.4049
27.9400 18.5964 -0.4094
27.9600 18.6098 -0.4085
27.9800 18.6232 -0.4169
28.0000 18.6365 -0.4155
28.0200 18.6498 -0.4139
28.0400 18.6631 -0.4179
28.0600 18.6765 -0.4111
28.0800 18.6898 -0.4146
28.1000 18.7031 -0.4231
28.1200 18.7165 -0.4173
28.1400 18.7298 -0.4174
28.1600 18.7432 -0.4279
28.1800 18.7566 -0.4249
28.2000 18.7699 -0.4167
28.2200 18.7832 -0.4268
28.2400 18.7966 -0.4283
28.2600 18.8099 -0.4265
28.2800 18.8232 -0.4305
28.3000 18.8365 -0.4239
28.3200 18.8498 -0.4271
28.3400 18.8632 -0.4342
28.3600 18.8765 -0.4323
28.3800 18.8898 -0.4309
28.4000 18.9031 -0.4346
28.4200 18.9164 -0.4312
28.4400 18.9298 -0.4349
28.4600 18.9431 -0.4390
28.4800 18.9565 -0.4378
28.5000 18.9698 -0.4362
28.5200 18.9832 -0.4462
28.5400 18.9965 -0.4386
28.5600 19.0098 -0.4417
28.5800 19.0232 -0.4459
28.6000 19.0365 -0.4456
28.6200 19.0499 -0.4448
28.6400 19.0632 -0.4454
28.6600 19.0765 -0.4448
28.6800 19.0898 -0.4522
28.7000 19.1032 -0.4504
28.7200 19.1165 -0.4540
28.7400 19.1298 -0.4532
28.7600 19.1431 -0.4524
28.7800 19.1564 -0.4583
28.8000 19.1698 -0.4627
28.8200 19.1831 -0.4585
28.8400 19.1965 -0.4640
28.8600 19.2098 -0.4631
28.8800 19.2232 -0.4552
28.9000 19.2366 -0.4738
28.9200 19.2499 -0.4684
28.9400 19.2632 -0.4617
28.9600 19.2766 -0.4728
28.9800 19.2899 -0.4770
29.0000 19.3032 -0.4624
29.0200 19.3165 -0.4706
29.0400 19.3298 -0.4826
29.0600 19.3431 -0.4700
29.0800 19.3565 -0.4757
29.1000 19.3698 -0.4858
29.1200 19.3831 -0.4758
29.1400 19.3965 -0.4871
29.1600 19.4099 -0.4862
29.1800 19.4232 -0.4817
29.2000 19.4365 -0.4911
29.2200 19.4498 -0.4879
29.2400 19.4632 -0.4831
29.2600 19.4766 -0.4980
29.2800 19.4898 -0.4880
29.3000 19.5032 -0.4923
29.3200 19.5165 -0.5042
29.3400 19.5299 -0.4912
29.3600 19.5432 -0.4915
29.3800 19.5565 -0.5049
29.4000 19.5698 -0.4979
29.4200 19.5832 -0.4991
29.4400 19.5965 -0.5074
29.4600 19.6098 -0.4996
29.4800 19.6231 -0.5035
29.5000 19.6364 -0.5104
29.5200 19.6498 -0.5028
29.5400 19.6631 -0.5156
29.5600 19.6765 -0.5148
29.5800 19.6898 -0.5075
29.6000 19.7032 -0.5188
29.6200 19.7165 -0.5150
29.6400 19.7298 -0.5143
29.6600 19.7431 -0.5230
29.6800 19.7565 -0.5205
29.7000 19.7699 -0.5196
29.7200 19.7832 -0.5245
29.7400 19.7965 -0.5232
29.7600 19.8098 -0.5272
29.7800 19.8232 -0.5289
29.8000 19.8365 -0.5273
29.8200 19.8498 -0.5257
29.8400 19.8631 -0.5401
29.8600 19.8764 -0.5253
29.8800 19.8898 -0.5344
29.9000 19.9031 -0.5404
29.9200 19.9165 -0.5291
29.9400 19.9298 -0.5384
29.9600 19.9432 -0.5448
29.9800 19.9566 -0.5372
30.0000 19.9699 -0.5409
30.0200 19.9832 -0.5464
30.0400 19.9966 -0.5411
30.0600 20.0099 -0.5426
30.0800 20.0232 -0.5494
30.1000 20.0365 -0.5431
30.1200 20.0498 -0.5488
30.1400 20.0632 -0.5551
30.1600 20.0765 -0.5530
30.1800 20.0898 -0.5510
30.2000 20.1031 -0.5561
30.2200 20.1165 -0.5589
30.2400 20.1298 -0.5580
30.2600 20.1431 -0.5635
30.2800 20.1565 -0.5561
30.3000 20.1698 -0.5626
30.3200 20.1832 -0.5684
30.3400 20.1965 -0.5659
30.3600 20.2098 -0.5674
30.3800 20.2232 -0.5702
30.4000 20.2365 -0.5697
30.4200 20.2499 -0.5786
30.4400 20.2632 -0.5774
30.4600 20.2765 -0.5750
30.4800 20.2898 -0.5769
30.5000 20.3032 -0.5787
30.5200 20.3165 -0.5815
30.5400 20.3298 -0.5911
30.5600 20.3431 -0.5799
30.5800 20.3564 -0.5858
30.6000 20.3698 -0.5975
30.6200 20.3831 -0.5909
30.6400 20.3965 -0.5501
30.6600 20.4099 -0.4379
30.6800 20.4232 -0.3022
30.7000 20.4366 -0.1806
30.7200 20.4499 -0.0890
30.7400 20.4632 -0.0354
30.7600 20.4765 0.0012
30.7800 20.4899 0.0346
30.8000 20.5032 0.0766
30.8200 20.5165 0.1308
30.8400 20.5298 0.1847
30.8600 20.5431 0.2376
30.8800 20.5565 0.2970
30.9000 20.5698 0.3523
30.9200 20.5831 0.3967
30.9400 20.5964 0.4609
30.9600 20.6098 0.5024
30.9800 20.6231 0.5487
31.0000 20.6364 0.6048
31.0200 20.6498 0.6515
31.0400 20.6632 0.6931
31.0600 20.6766 0.7406
31.0800 20.6899 0.7848
31.1000 20.7032 0.8362
31.1200 20.7165 0.8845
31.1400 20.7299 0.9197
31.1600 20.7432 0.9749
31.1800 20.7565 1.0293
31.2000 20.7698 1.0591
31.2200 20.7831 1.0915
31.2400 20.7965 1.0966
31.2600 20.8098 1.0913
31.2800 20.8231 1.0922
31.3000 20.8365 1.0911
31.3200 20.8499 1.0899
31.3400 20.8632 1.0840
31.3600 20.8765 1.0862
31.3800 20.8899 1.0931
31.4000 20.9032 1.0883
31.4200 20.9166 1.0806
31.4400 20.9299 1.0891
31.4600 20.9432 1.0818
31.4800 20.9565 1.0850
31.5000 20.9699 1.0865
31.5200 20.9832 1.0719
31.5400 20.9965 1.0761
31.5600 21.0098 1.0870
31.5800 21.0232 1.0724
31.6000 21.0365 1.0708
31.6200 21.0498 1.0726
31.6400 21.0631 1.0696
31.6600 21.0765 1.0697
31.6800 21.0898 1.0688
31.7000 21.1031 1.0571
31.7200 21.1165 1.0665
31.7400 21.1298 1.0618
31.7600 21.1432 1.0560
31.7800 21.1565 1.0674
31.8000 21.1698 1.0572
31.8200 21.1832 1.0450
31.8400 21.1965 1.0576
31.8600 21.2099 1.0490
31.8800 21.2232 1.0476
31.9000 21.2365 1.0503
31.9200 21.2498 1.0439
31.9400 21.2632 1.0382
31.9600 21.2765 1.0428
31.9800 21.2898 1.0393
32.0000 21.3031 1.0332
32.0200 21.3164 1.0416
32.0400 21.3298 1.0283
32.0600 21.3431 1.0298
32.0800 21.3565 1.0271
32.1000 21.3698 1.0315
32.1200 21.3832 1.0295
32.1400 21.3966 1.0221
32.1600 21.4099 1.0248
32.1800 21.4232 1.0236
32.2000 21.4365 1.0142
32.2200 21.4499 1.0195
32.2400 21.4632 1.0182
32.2600 21.4765 1.0112
32.2800 21.4898 1.0109
32.3000 21.5031 1.0123
32.3200 21.5165 1.0038
32.3400 21.5298 1.0083
32.3600 21.5431 0.9999
32.3800 21.5564 0.9979
32.4000 21.5698 0.9982
32.4200 21.5832 0.9891
32.4400 21.5965 0.9935
32.4600 21.6098 0.9935
32.4800 21.6231 0.9816
32.5000 21.6365 0.9841
32.5200 21.6499 0.9883
32.5400 21.6632 0.9760
32.5600 21.6765 0.9818
32.5800 21.6899 0.9752
32.6000 21.7032 0.9711
32.6200 21.7165 0.9745
32.6400 21.7298 0.9701
32.6600 21.7432 0.9668
32.6800 21.7565 0.9682
32.7000 21.7698 0.9633
32.7200 21.7831 0.9651
32.7400 21.7964 0.9593
32.7600 21.8098 0.9626
32.7800 21.8231 0.9537
32.8000 21.8365 0.9506
32.8200 21.8498 0.9513
32.8400 21.8632 0.9499
32.8600 21.8766 0.9431
32.8800 21.8899 0.9457
32.9000 21.9032 0.9427
32.9200 21.9165 0.9386
32.9400 21.9299 0.9418
32.9600 21.9432 0.9378
32.9800 21.9565 0.9323
33.0000 21.9698 0.9392
33.0200 21.9832 0.9312
33.0400 21.9965 0.9234
33.0600 22.0099 0.9311
33.0800 22.0232 0.9261
33.1000 22.0365 0.9238
33.1200 22.0498 0.9234
33.1400 22.0631 0.9245
33.1600 22.0764 0.9193
33.1800 22.0898 0.9223
33.2000 22.1032 0.9158
33.2200 22.1166 0.9201
33.2400 22.1299 0.9187
33.2600 22.1432 0.9105
33.2800 22.1565 0.9155
33.3000 22.1699 0.9137
33.3200 22.1832 0.9073
33.3400 22.1965 0.9156
33.3600 22.2098 0.9063
33.3800 22.2231 0.9037
33.4000 22.2365 0.9121
33.4200 22.2498 0.9036
33.4400 22.2631 0.8934
33.4600 22.2764 0.9065
33.4800 22.2898 0.9014
33.5000 22.3031 0.8919
33.5200 22.3165 0.8982
33.5400 22.3298 0.8916
33.5600 22.3432 0.8863
33.5800 22.3565 0.8943
33.6000 22.3699 0.8867
33.6200 22.3832 0.8849
33.6400 22.3965 0.8849
33.6600 22.4098 0.8773
33.6800 22.4232 0.8756
33.7000 22.4365 0.8896
33.7200 22.4498 0.8747
33.7400 22.4632 0.8666
33.7600 22.4766 0.8792
33.7800 22.4899 0.8717
33.8000 22.5031 0.8654
33.8200 22.5164 0.8668
33.8400 22.5298 0.8679
33.8600 22.5431 0.8632
33.8800 22.5564 0.8659
33.9000 22.5698 0.8531
33.9200 22.5832 0.8559
33.9400 22.5966 0.8628
33.9600 22.6099 0.8487
33.9800 22.6232 0.8477
34.0000 22.6366 0.8621
34.0200 22.6499 0.8391
34.0400 22.6633 0.8489
34.0600 22.6766 0.8561
34.0800 22.6898 0.8344
34.1000 22.7031 0.8472
34.1200 22.7165 0.8411
34.1400 22.7298 0.8283
34.1600 22.7431 0.8473
34.1800 22.7564 0.8345
34.2000 22.7698 0.8238
34.2200 22.7831 0.8376
34.2400 22.7965 0.8300
34.2600 22.8098 0.8197
34.2800 22.8232 0.8351
34.3000 22.8365 0.8176
34.3200 22.8499 0.8159
34.3400 22.8632 0.8307
34.3600 22.8765 0.8054
34.3800 22.8899 0.8144
34.4000 22.9033 0.8247
34.4200 22.9166 0.7986
34.4400 22.9298 0.8081
34.4600 22.9431 0.8206
34.4800 22.9565 0.7943
34.5000 22.9698 0.8083
34.5200 22.9831 0.8115
34.5400 22.9964 0.7925
34.5600 23.0098 0.8022
34.5800 23.0231 0.8001
34.6000 23.0365 0.7946
34.6200 23.0498 0.8015
34.6400 23.0631 0.7916
34.6600 23.0765 0.7871
34.6800 23.0899 0.7914
34.7000 23.1032 0.7835
34.7200 23.1165 0.7867
34.7400 23.1299 0.7886
34.7600 23.1432 0.7809
34.7800 23.1565 0.7773
34.8000 23.1698 0.7787
34.8200 23.1832 0.7809
34.8400 23.1965 0.7719
34.8600 23.2098 0.7685
34.8800 23.2231 0.7764
34.9000 23.2364 0.7671
34.9200 23.2498 0.7648
34.9400 23.2631 0.7670
34.9600 23.2765 0.7612
34.9800 23.2898 0.7563
35.0000 23.3032 0.7700
35.0200 23.3166 0.7567
35.0400 23.3299 0.7517
35.0600 23.3432 0.7682
35.0800 23.3565 0.7512
35.1000 23.3699 0.7465
35.1200 23.3832 0.7636
35.1400 23.3965 0.7433
35.1600 23.4098 0.7452
35.1800 23.4231 0.7587
35.2000 23.4365 0.7418
35.2200 23.4498 0.7386
35.2400 23.4631 0.7576
35.2600 23.4764 0.7365
35.2800 23.4898 0.7365
35.3000 23.5032 0.7486
35.3200 23.5165 0.7300
35.3400 23.5298 0.7377
35.3600 23.5431 0.7424
35.3800 23.5565 0.7250
35.4000 23.5699 0.7264
35.4200 23.5832 0.7340
35.4400 23.5965 0.7206
35.4600 23.6099 0.7259
35.4800 23.6233 0.7311
35.5000 23.6366 0.7111
35.5200 23.6498 0.7203
35.5400 23.6631 0.7259
35.5600 23.6765 0.7048
35.5800 23.6898 0.7136
35.6000 23.7031 0.7192
35.6200 23.7165 0.7082
35.6400 23.7298 0.7082
35.6600 23.7431 0.7130
35.6800 23.7565 0.7017
35.7000 23.7698 0.7105
35.7200 23.7832 0.7064
35.7400 23.7965 0.6945
35.7600 23.8099 0.6996
35.7800 23.8232 0.7046
35.8000 23.8365 0.6931
35.8200 23.8498 0.6982
35.8400 23.8632 0.6994
35.8600 23.8765 0.6857
35.8800 23.8898 0.6929
35.9000 23.9032 0.6956
35.9200 23.9165 0.6825
35.9400 23.9298 0.6875
35.9600 23.9431 0.6877
35.9800 23.9564 0.6766
36.0000 23.9697 0.6879
36.0200 23.9831 0.6797
36.0400 23.9964 0.6724
36.0600 24.0098 0.6845
36.0800 24.0231 0.6726
36.1000 24.0365 0.6648
36.1200 24.0499 0.6780
36.1400 24.0632 0.6683
36.1600 24.0766 0.6644
36.1800 24.0899 0.6734
36.2000 24.1032 0.6632
36.2200 24.1165 0.6600
36.2400 24.1298 0.6728
36.2600 24.1431 0.6580
36.2800 24.1565 0.6636
36.3000 24.1698 0.6572
36.3200 24.1831 0.6504
36.3400 24.1964 0.6584
36.3600 24.2098 0.6570
36.3800 24.2231 0.6489
36.4000 24.2365 0.6501
36.4200 24.2498 0.6506
36.4400 24.2632 0.6426
36.4600 24.2765 0.6478
36.4800 24.2899 0.6513
36.5000 24.3032 0.6379
36.5200 24.3165 0.6443
36.5400 24.3298 0.6416
36.5600 24.3432 0.6322
36.5800 24.3565 0.6376
36.6000 24.3698 0.6339
36.6200 24.3831 0.6264
36.6400 24.3965 0.6338
36.6600 24.4098 0.6312
36.6800 24.4231 0.6223
36.7000 24.4364 0.6252
36.7200 24.4498 0.6251
36.7400 24.4632 0.6188
36.7600 24.4765 0.6236
36.7800 24.4898 0.6237
36.8000 24.5032 0.6104
36.8200 24.5165 0.6151
36.8400 24.5299 0.6160
36.8600 24.5432 0.6120
36.8800 24.5565 0.6114
36.9000 24.5698 0.6077
36.9200 24.5832 0.6052
36.9400 24.5965 0.6082
36.9600 24.6098 0.6009
36.9800 24.6231 0.6067
37.0000 24.6365 0.6080
37.0200 24.6499 0.5949
37.0400 24.6632 0.5908
37.0600 24.6764 0.6033
37.0800 24.6898 0.5964
37.1000 24.7031 0.5926
37.1200 24.7165 0.5980
37.1400 24.7298 0.5898
37.1600 24.7431 0.5870
37.1800 24.7565 0.5952
37.2000 24.7699 0.5841
37.2200 24.7832 0.5826
37.2400 24.7965 0.5908
37.2600 24.8099 0.5761
37.2800 24.8232 0.5835
37.3000 24.8365 0.5849
37.3200 24.8498 0.5769
37.3400 24.8631 0.5800
37.3600 24.8765 0.5792
37.3800 24.8898 0.5708
37.4000 24.9032 0.5792
37.4200 24.9165 0.5743
37.4400 24.9298 0.5682
37.4600 24.9431 0.5759
37.4800 24.9565 0.5713
37.5000 24.9698 0.5655
37.5200 24.9831 0.5737
37.5400 24.9965 0.5659
37.5600 25.0099 0.5627
37.5800 25.0232 0.5671
37.6000 25.0365 0.5640
37.6200 25.0498 0.5602
37.6400 25.0632 0.5637
37.6600 25.0766 0.5546
37.6800 25.0899 0.5588
37.7000 25.1032 0.5632
37.7200 25.1165 0.5529
37.7400 25.1298 0.5525
37.7600 25.1431 0.5594
37.7800 25.1564 0.5515
37.8000 25.1698 0.5472
37.8200 25.1831 0.5574
37.8400 25.1964 0.5443
37.8600 25.2098 0.5442
37.8800 25.2232 0.5560
37.9000 25.2365 0.5385
37.9200 25.2499 0.5433
37.9400 25.2632 0.5475
37.9600 25.2765 0.5373
37.9800 25.2899 0.5462
38.0000 25.3032 0.5416
38.0200 25.3166 0.5365
38.0400 25.3299 0.5390
38.0600 25.3432 0.5367
38.0800 25.3565 0.5360
38.1000 25.3699 0.5379
38.1200 25.3832 0.5286
38.1400 25.3964 0.5341
38.1600 25.4097 0.5347
38.1800 25.4231 0.5240
38.2000 25.4364 0.5304
38.2200 25.4498 0.5279
38.2400 25.4631 0.5185
38.2600 25.4765 0.5271
38.2800 25.4899 0.5171
38.3000 25.5032 0.5147
38.3200 25.5165 0.5248
38.3400 25.5299 0.5133
38.3600 25.5432 0.5064
38.3800 25.5566 0.5186
38.4000 25.5698 0.5078
38.4200 25.5831 0.5032
38.4400 25.5964 0.5181
38.4600 25.6098 0.5010
38.4800 25.6231 0.5084
38.5000 25.6364 0.5096
38.5200 25.6498 0.4963
38.5400 25.6631 0.5011
38.5600 25.6765 0.5069
38.5800 25.6898 0.4927
38.6000 25.7032 0.5004
38.6200 25.7165 0.5027
38.6400 25.7299 0.4891
38.6600 25.7432 0.4941
38.6800 25.7565 0.4992
38.7000 25.7698 0.4857
38.7200 25.7832 0.4948
38.7400 25.7965 0.4950
38.7600 25.8099 0.4812
38.7800 25.8232 0.4888
38.8000 25.8365 0.4909
38.8200 25.8499 0.4796
38.8400 25.8632 0.4821
38.8600 25.8765 0.4858
38.8800 25.8898 0.4772
38.9000 25.9031 0.4760
38.9200 25.9165 0.4816
38.9400 25.9298 0.4780
38.9600 25.9431 0.4679
38.9800 25.9565 0.4761
39.0000 25.9698 0.4703
39.0200 25.9832 0.4640
39.0400 25.9965 0.4663
39.0600 26.0098 0.4699
39.0800 26.0232 0.4629
39.1000 26.0365 0.4623
39.1200 26.0499 0.4644
39.1400 26.0632 0.4603
39.1600 26.0765 0.4553
39.1800 26.0898 0.4590
39.2000 26.1032 0.4524
39.2200 26.1165 0.4560
39.2400 26.1298 0.4565
39.2600 26.1431 0.4561
39.2800 26.1564 0.4513
39.3000 26.1698 0.4505
39.3200 26.1831 0.4402
39.3400 26.1965 0.4511
39.3600 26.2099 0.4505
39.3800 26.2232 0.4444
39.4000 26.2366 0.4412
39.4200 26.2499 0.4424
39.4400 26.2632 0.4407
39.4600 26.2766 0.4403
39.4800 26.2898 0.4378
39.5000 26.3031 0.4371
39.5200 26.3165 0.4402
39.5400 26.3298 0.4375
39.5600 26.3432 0.4323
39.5800 26.3565 0.4345
39.6000 26.3698 0.4404
39.6200 26.3831 0.4300
39.6400 26.3965 0.4273
39.6600 26.4098 0.4326
39.6800 26.4232 0.4331
39.7000 26.4365 0.4203
39.7200 26.4499 0.4264
39.7400 26.4632 0.4251
39.7600 26.4765 0.4202
39.7800 26.4899 0.4254
39.8000 26.5032 0.4225
39.8200 26.5166 0.4157
39.8400 26.5299 0.4189
39.8600 26.5432 0.4137
39.8800 26.5565 0.4147
39.9000 26.5698 0.4184
39.9200 26.5831 0.4100
39.9400 26.5964 0.4101
39.9600 26.6097 0.4156
39.9800 26.6231 0.4029
40.0000 26.6364 0.4081
40.0200 26.6498 0.4051
40.0400 26.6631 0.3987
40.0600 26.6765 0.4033
40.0800 26.6899 0.4045
40.1000 26.7032 0.3904
40.1200 26.7165 0.3930
40.1400 26.7298 0.4020
40.1600 26.7432 0.3877
40.1800 26.7565 0.3875
40.2000 26.7699 0.3900
40.2200 26.7832 0.3851
40.2400 26.7965 0.3882
40.2600 26.8098 0.3829
40.2800 26.8232 0.3760
40.3000 26.8365 0.3879
40.3200 26.8498 0.3755
40.3400 26.8631 0.3703
40.3600 26.8765 0.3829
40.3800 26.8898 0.3703
40.4000 26.9031 0.3592
40.4200 26.9165 0.3764
40.4400 26.9299 0.3662
40.4600 26.9432 0.3586
40.4800 26.9565 0.3701
40.5000 26.9698 0.3587
40.5200 26.9832 0.3560
40.5400 26.9966 0.3686
40.5600 27.0099 0.3522
40.5800 27.0232 0.3505
40.6000 27.0365 0.3624
40.6200 27.0498 0.3499
40.6400 27.0631 0.3487
40.6600 27.0764 0.3569
40.6800 27.0898 0.3460
40.7000 27.1031 0.3446
40.7200 27.1165 0.3477
40.7400 27.1298 0.3431
40.7600 27.1432 0.3455
40.7800 27.1565 0.3401
40.8000 27.1698 0.3410
40.8200 27.1832 0.3341
40.8400 27.1965 0.3425
40.8600 27.2098 0.3425
40.8800 27.2232 0.3336
40.9000 27.2365 0.3392
40.9200 27.2499 0.3377
40.9400 27.2632 0.3302
40.9600 27.2765 0.3360
40.9800 27.2899 0.3341
41.0000 27.3032 0.3258
41.0200 27.3165 0.3283
41.0400 27.3298 0.3362
41.0600 27.3431 0.3223
41.0800 27.3565 0.3274
41.1000 27.3698 0.3291
41.1200 27.3831 0.3206
41.1400 27.3965 0.3271
41.1600 27.4099 0.3217
41.1800 27.4233 0.3149
41.2000 27.4366 0.3252
41.2200 27.4499 0.3184
41.2400 27.4632 0.3131
41.2600 27.4766 0.3255
41.2800 27.4899 0.3134
41.3000 27.5032 0.3116
41.3200 27.5165 0.3221
41.3400 27.5298 0.3125
41.3600 27.5431 0.3089
41.3800 27.5565 0.3205
41.4000 27.5698 0.3064
41.4200 27.5831 0.3171
41.4400 27.5964 0.3135
41.4600 27.6098 0.3035
41.4800 27.6231 0.3133
41.5000 27.6365 0.3137
41.5200 27.6499 0.3015
41.5400 27.6632 0.3139
41.5600 27.6766 0.3019
41.5800 27.6899 0.3006
41.6000 27.7032 0.3150
41.6200 27.7165 0.2994
41.6400 27.7299 0.2995
41.6600 27.7431 0.3201
41.6800 27.7564 0.2937
41.7000 27.7698 0.2992
41.7200 27.7831 0.3093
41.7400 27.7965 0.2906
41.7600 27.8098 0.2983
41.7800 27.8231 0.3002
41.8000 27.8365 0.2920
41.8200 27.8498 0.2988
41.8400 27.8632 0.2960
41.8600 27.8765 0.2892
41.8800 27.8899 0.2966
41.9000 27.9032 0.2863
41.9200 27.9165 0.2829
41.9400 27.9299 0.2889
41.9600 27.9432 0.2862
41.9800 27.9566 0.2831
42.0000 27.9699 0.2886
42.0200 27.9832 0.2762
42.0400 27.9965 0.2845
42.0600 28.0098 0.2790
42.0800 28.0232 0.2747
42.1000 28.0365 0.2809
42.1200 28.0498 0.2765
42.1400 28.0631 0.2721
42.1600 28.0764 0.2724
42.1800 28.0898 0.2659
42.2000 28.1031 0.2702
42.2200 28.1165 0.2685
42.2400 28.1299 0.2639
42.2600 28.1432 0.2614
42.2800 28.1566 0.2619
42.3000 28.1699 0.2599
42.3200 28.1832 0.2621
42.3400 28.1965 0.2553
42.3600 28.2099 0.2528
42.3800 28.2232 0.2563
42.4000 28.2364 0.2534
42.4200 28.2498 0.2507
42.4400 28.2631 0.2485
42.4600 28.2765 0.2469
42.4800 28.2898 0.2453
42.5000 28.3031 0.2451
42.5200 28.3165 0.2443
42.5400 28.3298 0.2424
42.5600 28.3431 0.2381
42.5800 28.3565 0.2411
42.6000 28.3698 0.2369
42.6200 28.3832 0.2362
42.6400 28.3965 0.2350
42.6600 28.4099 0.2363
42.6800 28.4232 0.2280
42.7000 28.4366 0.2329
42.7200 28.4499 0.2276
42.7400 28.4632 0.2300
42.7600 28.4765 0.2284
42.7800 28.4898 0.2251
42.8000 28.5032 0.2229
42.8200 28.5165 0.2247
42.8400 28.5298 0.2189
42.8600 28.5431 0.2217
42.8800 28.5564 0.2215
42.9000 28.5698 0.2179
42.9200 28.5831 0.2162
42.9400 28.5965 0.2169
42.9600 28.6098 0.2119
42.9800 28.6232 0.2086
43.0000 28.6365 0.2095
43.0200 28.6498 0.2096
43.0400 28.6632 0.2091
43.0600 28.6765 0.2052
43.0800 28.6899 0.2033
43.1000 28.7032 0.1993
43.1200 28.7165 0.2072
43.1400 28.7298 0.2015
43.1600 28.7432 0.2011
43.1800 28.7565 0.1989
43.2000 28.7698 0.1988
43.2200 28.7831 0.1972
43.2400 28.7964 0.1978
43.2600 28.8098 0.1932
43.2800 28.8231 0.1957
43.3000 28.8364 0.1913
43.3200 28.8498 0.1877
43.3400 28.8632 0.1921
43.3600 28.8766 0.1929
43.3800 28.8899 0.1807
43.4000 28.9032 0.1925
43.4200 28.9166 0.1835
43.4400 28.9299 0.1769
43.4600 28.9432 0.1881
43.4800 28.9565 0.1866
43.5000 28.9698 0.1752
43.5200 28.9831 0.1872
43.5400 28.9965 0.1832
43.5600 29.0098 0.1712
43.5800 29.0231 0.1854
43.6000 29.0365 0.1770
43.6200 29.0498 0.1692
43.6400 29.0632 0.1837
43.6600 29.0765 0.1732
43.6800 29.0899 0.1702
43.7000 29.1032 0.1839
43.7200 29.1166 0.1662
43.7400 29.1299 0.1678
43.7600 29.1432 0.1834
43.7800 29.1565 0.1607
43.8000 29.1699 0.1654
43.8200 29.1832 0.1835
43.8400 29.1965 0.1580
43.8600 29.2098 0.1681
43.8800 29.2231 0.1734
43.9000 29.2365 0.1542
43.9200 29.2498 0.1665
43.9400 29.2631 0.1732
43.9600 29.2764 0.1534
43.9800 29.2898 0.1669
44.0000 29.3031 0.1630
44.0200 29.3165 0.1557
44.0400 29.3298 0.1664
44.0600 29.3432 0.1592
44.0800 29.3565 0.1568
44.1000 29.3699 0.1641
44.1200 29.3832 0.1582
44.1400 29.3965 0.1560
44.1600 29.4099 0.1613
44.1800 29.4232 0.1529
44.2000 29.4365 0.1560
44.2200 29.4498 0.1572
44.2400 29.4632 0.1512
44.2600 29.4765 0.1559
44.2800 29.4898 0.1490
44.3000 29.5031 0.1488
44.3200 29.5164 0.1553
44.3400 29.5298 0.1411
44.3600 29.5431 0.1481
44.3800 29.5564 0.1453
44.4000 29.5698 0.1413
44.4200 29.5832 0.1438
44.4400 29.5966 0.1396
44.4600 29.6099 0.1307
44.4800 29.6232 0.1465
44.5000 29.6365 0.1344
44.5200 29.6499 0.1276
44.5400 29.6632 0.1396
44.5600 29.6765 0.1280
44.5800 29.6898 0.1247
44.6000 29.7032 0.1352
44.6200 29.7165 0.1191
44.6400 29.7298 0.1196
44.6600 29.7431 0.1330
44.6800 29.7564 0.1160
44.7000 29.7698 0.1159
44.7200 29.7831 0.1229
44.7400 29.7965 0.1095
44.7600 29.8098 0.1131
44.7800 29.8232 0.1244
44.8000 29.8365 0.1065
44.8200 29.8498 0.1114
44.8400 29.8632 0.1187
44.8600 29.8765 0.1016
44.8800 29.8899 0.1099
44.9000 29.9032 0.1127
44.9200 29.9165 0.0963
44.9400 29.9298 0.1076
44.9600 29.9432 0.1033
44.9800 29.9565 0.0993
45.0000 29.9698 0.1010
45.0200 29.9831 0.0996
45.0400 29.9964 0.0957
45.0600 30.0098 0.0930
45.0800 30.0231 0.0933
45.1000 30.0365 0.0984
45.1200 30.0498 0.0894
45.1400 30.0632 0.0899
45.1600 30.0766 0.0910
45.1800 30.0899 0.0835
45.2000 30.1032 0.0878
45.2200 30.1165 0.0892
45.2400 30.1299 0.0790
45.2600 30.1432 0.0846
45.2800 30.1565 0.0833
45.3000 30.1698 0.0749
45.3200 30.1831 0.0843
45.3400 30.1965 0.0778
45.3600 30.2098 0.0689
45.3800 30.2231 0.0808
45.4000 30.2364 0.0711
45.4200 30.2498 0.0652
45.4400 30.2631 0.0820
45.4600 30.2764 0.0657
45.4800 30.2898 0.0603
45.5000 30.3032 0.0755
45.5200 30.3166 0.0657
45.5400 30.3299 0.0584
45.5600 30.3432 0.0738
45.5800 30.3565 0.0616
45.6000 30.3699 0.0560
45.6200 30.3832 0.0664
45.6400 30.3965 0.0621
45.6600 30.4098 0.0555
45.6800 30.4231 0.0648
45.7000 30.4365 0.0516
45.7200 30.4498 0.0525
45.7400 30.4631 0.0560
45.7600 30.4764 0.0505
45.7800 30.4898 0.0500
45.8000 30.5032 0.0477
45.8200 30.5165 0.0457
45.8400 30.5298 0.0465
45.8600 30.5432 0.0497
45.8800 30.5565 0.0425
45.9000 30.5699 0.0383
45.9200 30.5832 0.0474
45.9400 30.5965 0.0417
45.9600 30.6099 0.0324
45.9800 30.6232 0.0396
46.0000 30.6365 0.0371
46.0200 30.6498 0.0325
46.0400 30.6632 0.0352
46.0600 30.6766 0.0367
46.0800 30.6899 0.0241
46.1000 30.7031 0.0396
46.1200 30.7164 0.0304
46.1400 30.7298 0.0236
46.1600 30.7431 0.0312
46.1800 30.7564 0.0282
46.2000 30.7698 0.0232
46.2200 30.7832 0.0324
46.2400 30.7965 0.0229
46.2600 30.8099 0.0172
46.2800 30.8232 0.0298
46.3000 30.8365 0.0173
46.3200 30.8499 0.0105
46.3400 30.8632 0.0262
46.3600 30.8765 0.0119
46.3800 30.8898 0.0180
46.4000 30.9032 0.0239
46.4200 30.9165 0.0046
46.4400 30.9299 0.0137
46.4600 30.9431 0.0171
46.4800 30.9564 0.0108
46.5000 30.9698 0.0093
46.5200 30.9831 0.0143
46.5400 30.9964 0.0022
46.5600 31.0098 0.0099
46.5800 31.0232 0.0111
46.6000 31.0366 -0.0020
46.6200 31.0499 0.0018
46.6400 31.0632 0.0052
46.6600 31.0765 -0.0037
46.6800 31.0899 0.0038
46.7000 31.1032 -0.0020
46.7200 31.1165 -0.0021
46.7400 31.1298 -0.0011
46.7600 31.1432 -0.0025
46.7800 31.1565 -0.0041
46.8000 31.1698 -0.0004
46.8200 31.1831 -0.0064
46.8400 31.1965 -0.0049
46.8600 31.2098 -0.0004
46.8800 31.2232 -0.0087
46.9000 31.2365 -0.0035
46.9200 31.2498 -0.0035
46.9400 31.2632 -0.0086
46.9600 31.2765 -0.0044
46.9800 31.2899 -0.0115
47.0000 31.3032 -0.0084
47.0200 31.3165 -0.0075
47.0400 31.3299 -0.0117
47.0600 31.3432 -0.0093
47.0800 31.3565 -0.0095
47.1000 31.3698 -0.0155
47.1200 31.3832 -0.0163
47.1400 31.3965 -0.0123
47.1600 31.4098 -0.0206
47.1800 31.4231 -0.0106
47.2000 31.4364 -0.0202
47.2200 31.4498 -0.0183
47.2400 31.4631 -0.0177
47.2600 31.4765 -0.0238
47.2800 31.4898 -0.0224
47.3000 31.5032 -0.0208
47.3200 31.5165 -0.0313
47.3400 31.5299 -0.0255
47.3600 31.5432 -0.0218
47.3800 31.5565 -0.0333
47.4000 31.5699 -0.0243
47.4200 31.5832 -0.0302
47.4400 31.5965 -0.0432
47.4600 31.6098 -0.0233
47.4800 31.6231 -0.0345
47.5000 31.6365 -0.0365
47.5200 31.6498 -0.0266
47.5400 31.6631 -0.0384
47.5600 31.6765 -0.0374
47.5800 31.6898 -0.0300
47.6000 31.7031 -0.0472
47.6200 31.7165 -0.0377
47.6400 31.7298 -0.0327
47.6600 31.7432 -0.0488
47.6800 31.7566 -0.0443
47.7000 31.7699 -0.0310
47.7200 31.7832 -0.0525
47.7400 31.7965 -0.0412
47.7600 31.8099 -0.0361
47.7800 31.8232 -0.0593
47.8000 31.8365 -0.0407
47.8200 31.8498 -0.0471
47.8400 31.8631 -0.0557
47.8600 31.8765 -0.0439
47.8800 31.8898 -0.0469
47.9000 31.9031 -0.0629
47.9200 31.9165 -0.0464
47.9400 31.9298 -0.0485
47.9600 31.9432 -0.0624
47.9800 31.9565 -0.0486
48.0000 31.9698 -0.0538
48.0200 31.9831 -0.0631
48.0400 31.9965 -0.0527
48.0600 32.0098 -0.0615
48.0800 32.0232 -0.0654
48.1000 32.0365 -0.0600
48.1200 32.0498 -0.0620
48.1400 32.0632 -0.0692
48.1600 32.0765 -0.0666
48.1800 32.0898 -0.0649
48.2000 32.1032 -0.0734
48.2200 32.1165 -0.0694
48.2400 32.1299 -0.0700
48.2600 32.1431 -0.0767
48.2800 32.1564 -0.0746
48.3000 32.1698 -0.0715
48.3200 32.1831 -0.0811
48.3400 32.1964 -0.0782
48.3600 32.2098 -0.0768
48.3800 32.2231 -0.0838
48.4000 32.2365 -0.0809
48.4200 32.2499 -0.0846
48.4400 32.2632 -0.0910
48.4600 32.2765 -0.0767
48.4800 32.2899 -0.0884
48.5000 32.3032 -0.0970
48.5200 32.3166 -0.0868
48.5400 32.3298 -0.0888
48.5600 32.3431 -0.1013
48.5800 32.3565 -0.0883
48.6000 32.3698 -0.0928
48.6200 32.3831 -0.1004
48.6400 32.3964 -0.0918
48.6600 32.4098 -0.0986
48.6800 32.4231 -0.1067
48.7000 32.4365 -0.0955
48.7200 32.4498 -0.1035
48.7400 32.4632 -0.1094
48.7600 32.4766 -0.1034
48.7800 32.4899 -0.1050
48.8000 32.5032 -0.1102
48.8200 32.5166 -0.1069
48.8400 32.5299 -0.1050
48.8600 32.5432 -0.1153
48.8800 32.5565 -0.1099
48.9000 32.5698 -0.1101
48.9200 32.5831 -0.1145
48.9400 32.5965 -0.1145
48.9600 32.6098 -0.1148
48.9800 32.6231 -0.1221
49.0000 32.6364 -0.1155
49.0200 32.6498 -0.1133
49.0400 32.6632 -0.1245
49.0600 32.6765 -0.1206
49.0800 32.6898 -0.1185
49.1000 32.7031 -0.1321
49.1200 32.7165 -0.1187
49.1400 32.7299 -0.1252
49.1600 32.7432 -0.1328
49.1800 32.7565 -0.1211
49.2000 32.7699 -0.1266
49.2200 32.7832 -0.1323
49.2400 32.7965 -0.1245
49.2600 32.8099 -0.1308
49.2800 32.8232 -0.1323
49.3000 32.8365 -0.1284
49.3200 32.8498 -0.1352
49.3400 32.8631 -0.1367
49.3600 32.8764 -0.1269
49.3800 32.8898 -0.1370
49.4000 32.9031 -0.1386
49.4200 32.9165 -0.1334
49.4400 32.9298 -0.1408
49.4600 32.9432 -0.1365
49.4800 32.9566 -0.1368
49.5000 32.9699 -0.1410
49.5200 32.9832 -0.1430
49.5400 32.9965 -0.1405
49.5600 33.0099 -0.1422
49.5800 33.0232 -0.1416
49.6000 33.0365 -0.1422
49.6200 33.0498 -0.1434
49.6400 33.0631 -0.1457
49.6600 33.0765 -0.1440
49.6800 33.0898 -0.1524
49.7000 33.1031 -0.1461
49.7200 33.1164 -0.1490
49.7400 33.1298 -0.1530
49.7600 33.1431 -0.1552
49.7800 33.1565 -0.1504
49.8000 33.1698 -0.1593
49.8200 33.1831 -0.1539
49.8400 33.1965 -0.1580
49.8600 33.2099 -0.1647
49.8800 33.2232 -0.1584
49.9000 33.2365 -0.1598
49.9200 33.2499 -0.1649
49.9400 33.2633 -0.1628
49.9600 33.2766 -0.1689
49.9800 33.2899 -0.1682
50.0000 33.3032 -0.1676
50.0200 33.3165 -0.1710
50.0400 33.3298 -0.1723
50.0600 33.3431 -0.1723
50.0800 33.3565 -0.1708
50.1000 33.3698 -0.1760
50.1200 33.3831 -0.1748
50.1400 33.3965 -0.1829
50.1600 33.4098 -0.1751
50.1800 33.4231 -0.1788
50.2000 33.4365 -0.1861
50.2200 33.4499 -0.1850
50.2400 33.4632 -0.1873
50.2600 33.4765 -0.1911
50.2800 33.4899 -0.1817
50.3000 33.5032 -0.1953
50.3200 33.5165 -0.1944
50.3400 33.5298 -0.1846
50.3600 33.5432 -0.1998
50.3800 33.5565 -0.1998
50.4000 33.5699 -0.1871
50.4200 33.5832 -0.2070
50.4400 33.5964 -0.1987
50.4600 33.6098 -0.1927
50.4800 33.6231 -0.2079
50.5000 33.6364 -0.1982
50.5200 33.6497 -0.1982
50.5400 33.6631 -0.2064
50.5600 33.6765 -0.2029
50.5800 33.6899 -0.1988
50.6000 33.7032 -0.2098
50.6200 33.7166 -0.2024
50.6400 33.7299 -0.2013
50.6600 33.7432 -0.2100
50.6800 33.7565 -0.2075
50.7000 33.7698 -0.1996
50.7200 33.7831 -0.2098
50.7400 33.7965 -0.2071
50.7600 33.8098 -0.2054
50.7800 33.8231 -0.2096
50.8000 33.8364 -0.2120
50.8200 33.8498 -0.2057
50.8400 33.8632 -0.2156
50.8600 33.8765 -0.2130
50.8800 33.8898 -0.2079
50.9000 33.9032 -0.2146
50.9200 33.9165 -0.2192
50.9400 33.9299 -0.2132
50.9600 33.9432 -0.2192
50.9800 33.9565 -0.2180
51.0000 33.9698 -0.2182
51.0200 33.9832 -0.2180
51.0400 33.9965 -0.2258
51.0600 34.0098 -0.2222
51.0800 34.0231 -0.2219
51.1000 34.0365 -0.2292
51.1200 34.0498 -0.2228
51.1400 34.0631 -0.2286
51.1600 34.0764 -0.2293
51.1800 34.0898 -0.2281
51.2000 34.1031 -0.2301
51.2200 34.1165 -0.2354
51.2400 34.1298 -0.2336
51.2600 34.1432 -0.2361
51.2800 34.1565 -0.2373
51.3000 34.1699 -0.2404
51.3200 34.1832 -0.2450
51.3400 34.1965 -0.2416
51.3600 34.2098 -0.2418
51.3800 34.2232 -0.2477
51.4000 34.2366 -0.2445
51.4200 34.2499 -0.2531
51.4400 34.2632 -0.2509
51.4600 34.2765 -0.2510
51.4800 34.2898 -0.2527
51.5000 34.3032 -0.2581
51.5200 34.3164 -0.2501
51.5400 34.3297 -0.2643
51.5600 34.3431 -0.2579
51.5800 34.3565 -0.2521
51.6000 34.3698 -0.2697
51.6200 34.3831 -0.2622
51.6400 34.3965 -0.2587
51.6600 34.4099 -0.2721
51.6800 34.4232 -0.2594
51.7000 34.4366 -0.2645
51.7200 34.4499 -0.2751
51.7400 34.4632 -0.2626
51.7600 34.4766 -0.2751
51.7800 34.4898 -0.2735
51.8000 34.5031 -0.2603
51.8200 34.5165 -0.2758
51.8400 34.5298 -0.2796
51.8600 34.5432 -0.2686
51.8800 34.5565 -0.2761
51.9000 34.5698 -0.2768
51.9200 34.5831 -0.2741
51.9400 34.5965 -0.2768
51.9600 34.6098 -0.2775
51.9800 34.6231 -0.2777
52.0000 34.6364 -0.2827
52.0200 34.6498 -0.2738
52.0400 34.6632 -0.2831
52.0600 34.6765 -0.2840
52.0800 34.6898 -0.2786
52.1000 34.7032 -0.2844
52.1200 34.7166 -0.2823
52.1400 34.7299 -0.2836
52.1600 34.7432 -0.2876
52.1800 34.7565 -0.2758
52.2000 34.7698 -0.2910
52.2200 34.7831 -0.2900
52.2400 34.7964 -0.2818
52.2600 34.8098 -0.2875
52.2800 34.8231 -0.2931
52.3000 34.8365 -0.2853
52.3200 34.8498 -0.2914
52.3400 34.8631 -0.2961
52.3600 34.8765 -0.2803
52.3800 34.8899 -0.3017
52.4000 34.9032 -0.2913
52.4200 34.9165 -0.2906
52.4400 34.9298 -0.3022
52.4600 34.9432 -0.2915
52.4800 34.9565 -0.2921
52.5000 34.9699 -0.3054
52.5200 34.9832 -0.2886
52.5400 34.9965 -0.2966
52.5600 35.0098 -0.3079
52.5800 35.0232 -0.2919
52.6000 35.0364 -0.3031
52.6200 35.0498 -0.3099
52.6400 35.0631 -0.2922
52.6600 35.0765 -0.3163
52.6800 35.0898 -0.3104
52.7000 35.1031 -0.2945
52.7200 35.1165 -0.3164
52.7400 35.1299 -0.3152
52.7600 35.1432 -0.3039
52.7800 35.1565 -0.3229
52.8000 35.1698 -0.3133
52.8200 35.1832 -0.3083
52.8400 35.1965 -0.3280
52.8600 35.2098 -0.3153
52.8800 35.2231 -0.3146
52.9000 35.2364 -0.3261
52.9200 35.2498 -0.3161
52.9400 35.2631 -0.3232
52.9600 35.2764 -0.3244
52.9800 35.2898 -0.3249
53.0000 35.3032 -0.3313
53.0200 35.3165 -0.3249
53.0400 35.3299 -0.3280
53.0600 35.3432 -0.3315
53.0800 35.3565 -0.3318
53.1000 35.3699 -0.3340
53.1200 35.3832 -0.3362
53.1400 35.3965 -0.3304
53.1600 35.4098 -0.3409
53.1800 35.4232 -0.3359
53.2000 35.4365 -0.3330
53.2200 35.4499 -0.3447
53.2400 35.4632 -0.3399
53.2600 35.4765 -0.3369
53.2800 35.4899 -0.3481
53.3000 35.5032 -0.3398
53.3200 35.5165 -0.3419
53.3400 35.5298 -0.3476
53.3600 35.5431 -0.3424
53.3800 35.5565 -0.3462
53.4000 35.5698 -0.3531
53.4200 35.5831 -0.3449
53.4400 35.5965 -0.3510
53.4600 35.6098 -0.3547
53.4800 35.6232 -0.3471
53.5000 35.6365 -0.3594
53.5200 35.6498 -0.3558
53.5400 35.6632 -0.3494
53.5600 35.6765 -0.3627
53.5800 35.6899 -0.3622
53.6000 35.7032 -0.3504
53.6200 35.7165 -0.3636
53.6400 35.7299 -0.3639
53.6600 35.7432 -0.3580
53.6800 35.7565 -0.3619
53.7000 35.7698 -0.3667
53.7200 35.7831 -0.3587
53.7400 35.7965 -0.3707
53.7600 35.8098 -0.3708
53.7800 35.8231 -0.3686
53.8000 35.8365 -0.3667
53.8200 35.8499 -0.3729
53.8400 35.8632 -0.3714
53.8600 35.8765 -0.3718
53.8800 35.8899 -0.3745
53.9000 35.9032 -0.3749
53.9200 35.9166 -0.3740
53.9400 35.9299 -0.3788
53.9600 35.9432 -0.3808
53.9800 35.9565 -0.3760
54.0000 35.9698 -0.3775
54.0200 35.9832 -0.3850
54.0400 35.9964 -0.3772
54.0600 36.0098 -0.3851
54.0800 36.0231 -0.3890
54.1000 36.0365 -0.3804
54.1200 36.0498 -0.3969
54.1400 36.0632 -0.3900
54.1600 36.0765 -0.3853
54.1800 36.0899 -0.3996
54.2000 36.1032 -0.3948
54.2200 36.1165 -0.3873
54.2400 36.1299 -0.4052
54.2600 36.1432 -0.3944
54.2800 36.1566 -0.3970
54.3000 36.1699 -0.4079
54.3200 36.1832 -0.3979
54.3400 36.1965 -0.3965
54.3600 36.2098 -0.4138
54.3800 36.2232 -0.4021
54.4000 36.2365 -0.4076
54.4200 36.2498 -0.4121
54.4400 36.2631 -0.4084
54.4600 36.2764 -0.4052
54.4800 36.2898 -0.4212
54.5000 36.3031 -0.4126
54.5200 36.3165 -0.4105
54.5400 36.3299 -0.4226
54.5600 36.3433 -0.4162
54.5800 36.3566 -0.4177
54.6000 36.3699 -0.4238
54.6200 36.3832 -0.4195
54.6400 36.3965 -0.4223
54.6600 36.4099 -0.4307
54.6800 36.4232 -0.4238
54.7000 36.4365 -0.4266
54.7200 36.4498 -0.4317
54.7400 36.4632 -0.4260
54.7600 36.4765 -0.4306
54.7800 36.4898 -0.4345
54.8000 36.5031 -0.4264
54.8200 36.5165 -0.4365
54.8400 36.5298 -0.4360
54.8600 36.5431 -0.4332
54.8800 36.5565 -0.4307
54.9000 36.5698 -0.4423
54.9200 36.5832 -0.4354
54.9400 36.5965 -0.4370
54.9600 36.6098 -0.4413
54.9800 36.6232 -0.4401
55.0000 36.6366 -0.4398
55.0200 36.6499 -0.4449
55.0400 36.6632 -0.4404
55.0600 36.6765 -0.4445
55.0800 36.6898 -0.4485
55.1000 36.7031 -0.4452
55.1200 36.7164 -0.4452
55.1400 36.7297 -0.4514
55.1600 36.7431 -0.4479
55.1800 36.7565 -0.4505
55.2000 36.7698 -0.4557
55.2200 36.7831 -0.4456
55.2400 36.7965 -0.4512
55.2600 36.8098 -0.4529
55.2800 36.8232 -0.4524
55.3000 36.8365 -0.4549
55.3200 36.8498 -0.4525
55.3400 36.8632 -0.4554
55.3600 36.8765 -0.4591
55.3800 36.8899 -0.4584
55.4000 36.9032 -0.4592
55.4200 36.9165 -0.4570
55.4400 36.9299 -0.4638
55.4600 36.9432 -0.4646
55.4800 36.9565 -0.4628
55.5000 36.9698 -0.4629
55.5200 36.9831 -0.4728
55.5400 36.9964 -0.4626
55.5600 37.0098 -0.4658
55.5800 37.0231 -0.4730
55.6000 37.0365 -0.4669
55.6200 37.0499 -0.4727
55.6400 37.0633 -0.4783
55.6600 37.0766 -0.4700
55.6800 37.0899 -0.4728
55.7000 37.1032 -0.4809
55.7200 37.1166 -0.4764
55.7400 37.1299 -0.4752
55.7600 37.1432 -0.4873
55.7800 37.1565 -0.4770
55.8000 37.1698 -0.4812
55.8200 37.1832 -0.4906
55.8400 37.1965 -0.4796
55.8600 37.2098 -0.4896
55.8800 37.2231 -0.4886
55.9000 37.2364 -0.4896
55.9200 37.2498 -0.4895
55.9400 37.2631 -0.4979
55.9600 37.2764 -0.4894
55.9800 37.2898 -0.4929
56.0000 37.3032 -0.5000
56.0200 37.3166 -0.4930
56.0400 37.3299 -0.4973
56.0600 37.3432 -0.5037
56.0800 37.3566 -0.4963
56.1000 37.3699 -0.5025
56.1200 37.3832 -0.5040
56.1400 37.3965 -0.5033
56.1600 37.4098 -0.5038
56.1800 37.4232 -0.5114
56.2000 37.4365 -0.4998
56.2200 37.4498 -0.5088
56.2400 37.4631 -0.5135
56.2600 37.4765 -0.5042
56.2800 37.4898 -0.5162
56.3000 37.5031 -0.5134
56.3200 37.5165 -0.5083
56.3400 37.5298 -0.5196
56.3600 37.5432 -0.5216
56.3800 37.5565 -0.5118
56.4000 37.5698 -0.5195
56.4200 37.5832 -0.5245
56.4400 37.5965 -0.5152
56.4600 37.6099 -0.5208
56.4800 37.6232 -0.5289
56.5000 37.6365 -0.5196
56.5200 37.6498 -0.5248
56.5400 37.6632 -0.5260
56.5600 37.6765 -0.5320
56.5800 37.6898 -0.5217
56.6000 37.7031 -0.5292
56.6200 37.7164 -0.5324
56.6400 37.7298 -0.5288
56.6600 37.7431 -0.5373
56.6800 37.7565 -0.5394
56.7000 37.7698 -0.5289
56.7200 37.7832 -0.5410
56.7400 37.7966 -0.5433
56.7600 37.8099 -0.5359
56.7800 37.8232 -0.5429
56.8000 37.8366 -0.5510
56.8200 37.8499 -0.5356
56.8400 37.8632 -0.5488
56.8600 37.8765 -0.5504
56.8800 37.8898 -0.5408
56.9000 37.9032 -0.5562
56.9200 37.9165 -0.5514
56.9400 37.9298 -0.5464
56.9600 37.9431 -0.5633
56.9800 37.9565 -0.5551
57.0000 37.9698 -0.5472
57.0200 37.9831 -0.5711
57.0400 37.9965 -0.5579
57.0600 38.0098 -0.5503
57.0800 38.0232 -0.5747
57.1000 38.0366 -0.5657
57.1200 38.0499 -0.5571
57.1400 38.0632 -0.5752
57.1600 38.0766 -0.5639
57.1800 38.0899 -0.5604
57.2000 38.1032 -0.5798
57.2200 38.1165 -0.5647
57.2400 38.1298 -0.5590
57.2600 38.1431 -0.5821
57.2800 38.1565 -0.5695
57.3000 38.1698 -0.5703
57.3200 38.1831 -0.5809
57.3400 38.1964 -0.5716
57.3600 38.2098 -0.5700
57.3800 38.2231 -0.5784
57.4000 38.2365 -0.5773
57.4200 38.2498 -0.5780
57.4400 38.2632 -0.5825
57.4600 38.2765 -0.5804
57.4800 38.2898 -0.5770
57.5000 38.3032 -0.5810
57.5200 38.3165 -0.5874
57.5400 38.3299 -0.5823
57.5600 38.3432 -0.5867
57.5800 38.3565 -0.5882
57.6000 38.3698 -0.5874
57.6200 38.3832 -0.5924
57.6400 38.3965 -0.5992
57.6600 38.4098 -0.5917
57.6800 38.4231 -0.5959
57.7000 38.4364 -0.6064
57.7200 38.4498 -0.6434
57.7400 38.4631 -0.4638
57.7600 38.4764 -0.3881
57.7800 38.4898 -0.3718
57.8000 38.5032 -0.3842
57.8200 38.5166 -0.3886
57.8400 38.5299 -0.3846
57.8600 38.5432 -0.3912
57.8800 38.5566 -0.3860
57.9000 38.5699 -0.3803
57.9200 38.5832 -0.3830
57.9400 38.5965 -0.3844
57.9600 38.6098 -0.3837
57.9800 38.6231 -0.3879
58.0000 38.6365 -0.3859
58.0200 38.6498 -0.3827
58.0400 38.6631 -0.3914
58.0600 38.6765 -0.3866
58.0800 38.6898 -0.3827
58.1000 38.7032 -0.3938
58.1200 38.7165 -0.3837
58.1400 38.7298 -0.3868
58.1600 38.7432 -0.3950
58.1800 38.7566 -0.3906
58.2000 38.7699 -0.3897
58.2200 38.7832 -0.3948
58.2400 38.7965 -0.3857
58.2600 38.8099 -0.3938
58.2800 38.8232 -0.3944
58.3000 38.8365 -0.3931
58.3200 38.8498 -0.3940
58.3400 38.8632 -0.3963
58.3600 38.8765 -0.3997
58.3800 38.8898 -0.3985
58.4000 38.9031 -0.3926
58.4200 38.9165 -0.4034
58.4400 38.9298 -0.4018
58.4600 38.9432 -0.4012
58.4800 38.9565 -0.4038
58.5000 38.9699 -0.4081
58.5200 38.9832 -0.4045
58.5400 38.9966 -0.4072
58.5600 39.0099 -0.4106
58.5800 39.0232 -0.4052
58.6000 39.0365 -0.4147
58.6200 39.0499 -0.4116
58.6400 39.0632 -0.4082
58.6600 39.0765 -0.4215
58.6800 39.0898 -0.4116
58.7000 39.1031 -0.4112
58.7200 39.1165 -0.4246
58.7400 39.1298 -0.4155
58.7600 39.1431 -0.4189
58.7800 39.1564 -0.4245
58.8000 39.1698 -0.4196
58.8200 39.1831 -0.4219
58.8400 39.1965 -0.4296
58.8600 39.2098 -0.4192
58.8800 39.2232 -0.4256
58.9000 39.2366 -0.4319
58.9200 39.2499 -0.4263
58.9400 39.2632 -0.4271
58.9600 39.2765 -0.4324
58.9800 39.2899 -0.4334
59.0000 39.3032 -0.4317
59.0200 39.3165 -0.4340
59.0400 39.3298 -0.4319
59.0600 39.3431 -0.4318
59.0800 39.3565 -0.4418
59.1000 39.3698 -0.4362
59.1200 39.3831 -0.4412
59.1400 39.3964 -0.4441
59.1600 39.4098 -0.4425
59.1800 39.4231 -0.4424
59.2000 39.4365 -0.4452
59.2200 39.4498 -0.4469
59.2400 39.4632 -0.4407
59.2600 39.4765 -0.4506
59.2800 39.4898 -0.4501
59.3000 39.5032 -0.4459
59.3200 39.5165 -0.4537
59.3400 39.5299 -0.4532
59.3600 39.5432 -0.4524
59.3800 39.5565 -0.4614
59.4000 39.5698 -0.4543
59.4200 39.5831 -0.4527
59.4400 39.5965 -0.4643
59.4600 39.6098 -0.4593
59.4800 39.6231 -0.4532
59.5000 39.6364 -0.4728
59.5200 39.6498 -0.4618
59.5400 39.6631 -0.4614
59.5600 39.6765 -0.4725
59.5800 39.6898 -0.4654
59.6000 39.7032 -0.4699
59.6200 39.7166 -0.4820
59.6400 39.7299 -0.4673
59.6600 39.7432 -0.4732
59.6800 39.7565 -0.4785
59.7000 39.7699 -0.4683
59.7200 39.7832 -0.4857
59.7400 39.7965 -0.4808
59.7600 39.8098 -0.4716
59.7800 39.8232 -0.4860
59.8000 39.8365 -0.4828
59.8200 39.8498 -0.4786
59.8400 39.8631 -0.4940
59.8600 39.8764 -0.4796
59.8800 39.8898 -0.4858
59.9000 39.9031 -0.4952
59.9200 39.9165 -0.4848
59.9400 39.9298 -0.4936
59.9600 39.9432 -0.5013
59.9800 39.9566 -0.4860
60.0000 39.9699 -0.5059
60.0200 39.9832 -0.5019
60.0400 39.9965 -0.4948
60.0460 40.0004 -0.5105
