Raw Data
Time Displacement Force
(s) (mm) (N)
0.0000 0.0000 0.3446
0.0200 0.0001 0.3662
0.0400 0.0021 0.4343
0.0600 0.0098 0.4696
0.0800 0.0217 0.4407
0.1000 0.0342 0.4753
0.1200 0.0468 0.5158
0.1400 0.0602 0.4814
0.1600 0.0742 0.4680
0.1800 0.0884 0.4730
0.2000 0.1023 0.4482
0.2200 0.1159 0.4519
0.2400 0.1293 0.4637
0.2600 0.1426 0.4425
0.2800 0.1559 0.4505
0.3000 0.1693 0.4530
0.3200 0.1827 0.4420
0.3400 0.1960 0.4590
0.3600 0.2093 0.4527
0.3800 0.2227 0.4480
0.4000 0.2360 0.4484
0.4200 0.2493 0.4402
0.4400 0.2626 0.4480
0.4600 0.2760 0.4414
0.4800 0.2893 0.4415
0.5000 0.3027 0.4363
0.5200 0.3160 0.4403
0.5400 0.3293 0.4326
0.5600 0.3426 0.4406
0.5800 0.3560 0.4369
0.6000 0.3694 0.4271
0.6200 0.3827 0.4448
0.6400 0.3960 0.4405
0.6600 0.4094 0.4272
0.6800 0.4228 0.4443
0.7000 0.4361 0.4351
0.7200 0.4494 0.4254
0.7400 0.4627 0.4438
0.7600 0.4760 0.4382
0.7800 0.4894 0.4227
0.8000 0.5027 0.4410
0.8200 0.5160 0.4317
0.8400 0.5294 0.4220
0.8600 0.5427 0.4382
0.8800 0.5560 0.4239
0.9000 0.5693 0.4231
0.9200 0.5826 0.4391
0.9400 0.5959 0.4234
0.9600 0.6093 0.4147
0.9800 0.6226 0.4264
1.0000 0.6360 0.4213
1.0200 0.6494 0.4187
1.0400 0.6627 0.4252
1.0600 0.6761 0.4192
1.0800 0.6894 0.4115
1.1000 0.7027 0.4237
1.1200 0.7160 0.4176
1.1400 0.7294 0.4178
1.1600 0.7427 0.4266
1.1800 0.7560 0.4178
1.2000 0.7693 0.4074
1.2200 0.7827 0.4183
1.2400 0.7960 0.4146
1.2600 0.8093 0.4101
1.2800 0.8226 0.4148
1.3000 0.8360 0.4137
1.3200 0.8493 0.4051
1.3400 0.8626 0.4120
1.3600 0.8760 0.4127
1.3800 0.8893 0.4109
1.4000 0.9027 0.4163
1.4200 0.9160 0.4049
1.4400 0.9293 0.4109
1.4600 0.9427 0.4105
1.4800 0.9561 0.4001
1.5000 0.9694 0.4047
1.5200 0.9827 0.4078
1.5400 0.9960 0.4069
1.5600 1.0093 0.4105
1.5800 1.0226 0.4015
1.6000 1.0359 0.4062
1.6200 1.0493 0.4021
1.6400 1.0626 0.3983
1.6600 1.0759 0.4009
1.6800 1.0893 0.3993
1.7000 1.1026 0.3916
1.7200 1.1160 0.4026
1.7400 1.1294 0.3948
1.7600 1.1428 0.3928
1.7800 1.1561 0.4002
1.8000 1.1694 0.3919
1.8200 1.1827 0.3883
1.8400 1.1960 0.4016
1.8600 1.2094 0.3936
1.8800 1.2227 0.3922
1.9000 1.2360 0.3961
1.9200 1.2493 0.3914
1.9400 1.2627 0.3898
1.9600 1.2760 0.3944
1.9800 1.2893 0.3835
2.0000 1.3026 0.3859
2.0200 1.3160 0.3903
2.0400 1.3293 0.3779
2.0600 1.3426 0.3865
2.0800 1.3560 0.3863
2.1000 1.3693 0.3772
2.1200 1.3827 0.3844
2.1400 1.3961 0.3820
2.1600 1.4094 0.3676
2.1800 1.4227 0.3846
2.2000 1.4361 0.3843
2.2200 1.4494 0.3719
2.2400 1.4627 0.3863
2.2600 1.4760 0.3889
2.2800 1.4893 0.3646
2.3000 1.5026 0.3850
2.3200 1.5160 0.3819
2.3400 1.5293 0.3699
2.3600 1.5426 0.3800
2.3800 1.5560 0.3776
2.4000 1.5694 0.3675
2.4200 1.5827 0.3757
2.4400 1.5960 0.3777
2.4600 1.6093 0.3685
2.4800 1.6227 0.3730
2.5000 1.6360 0.3763
2.5200 1.6493 0.3653
2.5400 1.6626 0.3761
2.5600 1.6760 0.3750
2.5800 1.6894 0.3593
2.6000 1.7027 0.3669
2.6200 1.7160 0.3720
2.6400 1.7294 0.3634
2.6600 1.7427 0.3687
2.6800 1.7561 0.3707
2.7000 1.7693 0.3577
2.7200 1.7826 0.3704
2.7400 1.7960 0.3679
2.7600 1.8093 0.3599
2.7800 1.8226 0.3682
2.8000 1.8359 0.3619
2.8200 1.8493 0.3620
2.8400 1.8627 0.3623
2.8600 1.8760 0.3606
2.8800 1.8894 0.3679
2.9000 1.9027 0.3589
2.9200 1.9160 0.3618
2.9400 1.9294 0.3605
2.9600 1.9427 0.3650
2.9800 1.9560 0.3604
3.0000 1.9693 0.3572
3.0200 1.9827 0.3539
3.0400 1.9960 0.3566
3.0600 2.0093 0.3528
3.0800 2.0226 0.3520
3.1000 2.0359 0.3582
3.1200 2.0493 0.3467
3.1400 2.0626 0.3441
3.1600 2.0760 0.3574
3.1800 2.0893 0.3496
3.2000 2.1027 0.3508
3.2200 2.1161 0.3530
3.2400 2.1294 0.3438
3.2600 2.1427 0.3492
3.2800 2.1561 0.3445
3.3000 2.1694 0.3421
3.3200 2.1827 0.3472
3.3400 2.1960 0.3524
3.3600 2.2093 0.3370
3.3800 2.2227 0.3463
3.4000 2.2360 0.3470
3.4200 2.2493 0.3462
3.4400 2.2626 0.3432
3.4600 2.2760 0.3422
3.4800 2.2893 0.3393
3.5000 2.3027 0.3399
3.5200 2.3160 0.3386
3.5400 2.3293 0.3424
3.5600 2.3427 0.3335
3.5800 2.3560 0.3385
3.6000 2.3694 0.3389
3.6200 2.3827 0.3375
3.6400 2.3961 0.3454
3.6600 2.4094 0.3369
3.6800 2.4227 0.3316
3.7000 2.4360 0.3410
3.7200 2.4493 0.3330
3.7400 2.4627 0.3299
3.7600 2.4760 0.3403
3.7800 2.4893 0.3279
3.8000 2.5026 0.3311
3.8200 2.5159 0.3405
3.8400 2.5293 0.3242
3.8600 2.5426 0.3342
3.8800 2.5560 0.3381
3.9000 2.5693 0.3178
3.9200 2.5827 0.3327
3.9400 2.5961 0.3274
3.9600 2.6094 0.3221
3.9800 2.6227 0.3320
4.0000 2.6360 0.3259
4.0200 2.6494 0.3216
4.0400 2.6627 0.3347
4.0600 2.6760 0.3248
4.0800 2.6893 0.3278
4.1000 2.7027 0.3330
4.1200 2.7160 0.3194
4.1400 2.7293 0.3229
4.1600 2.7426 0.3265
4.1800 2.7560 0.3124
4.2000 2.7693 0.3308
4.2200 2.7826 0.3256
4.2400 2.7959 0.3130
4.2600 2.8093 0.3283
4.2800 2.8227 0.3207
4.3000 2.8361 0.3178
4.3200 2.8494 0.3330
4.3400 2.8627 0.3144
4.3600 2.8761 0.3116
4.3800 2.8894 0.3280
4.4000 2.9027 0.3115
4.4200 2.9160 0.3172
4.4400 2.9293 0.3281
4.4600 2.9427 0.3069
4.4800 2.9560 0.3150
4.5000 2.9693 0.3287
4.5200 2.9826 0.3104
4.5400 2.9960 0.3195
4.5600 3.0093 0.3225
4.5800 3.0227 0.3081
4.6000 3.0360 0.3128
4.6200 3.0493 0.3145
4.6400 3.0627 0.3088
4.6600 3.0760 0.3126
4.6800 3.0893 0.3089
4.7000 3.1027 0.3145
4.7200 3.1160 0.3141
4.7400 3.1294 0.3097
4.7600 3.1427 0.3147
4.7800 3.1561 0.3112
4.8000 3.1694 0.3079
4.8200 3.1827 0.3130
4.8400 3.1961 0.3053
4.8600 3.2094 0.3050
4.8800 3.2226 0.3150
4.9000 3.2359 0.3039
4.9200 3.2492 0.3078
4.9400 3.2626 0.3135
4.9600 3.2759 0.3099
4.9800 3.2893 0.3102
5.0000 3.3027 0.3088
5.0200 3.3161 0.2997
5.0400 3.3294 0.3077
5.0600 3.3428 0.3058
5.0800 3.3561 0.2990
5.1000 3.3694 0.3093
5.1200 3.3827 0.3004
5.1400 3.3960 0.2943
5.1600 3.4093 0.3163
5.1800 3.4226 0.3096
5.2000 3.4360 0.2951
5.2200 3.4493 0.3127
5.2400 3.4626 0.3031
5.2600 3.4759 0.2893
5.2800 3.4893 0.3076
5.3000 3.5026 0.2931
5.3200 3.5160 0.2897
5.3400 3.5293 0.3087
5.3600 3.5427 0.2888
5.3800 3.5561 0.2882
5.4000 3.5694 0.3091
5.4200 3.5827 0.2963
5.4400 3.5960 0.2910
5.4600 3.6094 0.2994
5.4800 3.6227 0.2870
5.5000 3.6360 0.2854
5.5200 3.6493 0.2984
5.5400 3.6627 0.2879
5.5600 3.6760 0.2860
5.5800 3.6893 0.2994
5.6000 3.7026 0.2828
5.6200 3.7159 0.2919
5.6400 3.7293 0.2997
5.6600 3.7427 0.2829
5.6800 3.7560 0.2831
5.7000 3.7693 0.2943
5.7200 3.7827 0.2815
5.7400 3.7961 0.2825
5.7600 3.8094 0.2858
5.7800 3.8227 0.2827
5.8000 3.8360 0.2780
5.8200 3.8494 0.2854
5.8400 3.8627 0.2851
5.8600 3.8760 0.2841
5.8800 3.8894 0.2864
5.9000 3.9027 0.2832
5.9200 3.9160 0.2778
5.9400 3.9293 0.2804
5.9600 3.9426 0.2784
5.9800 3.9559 0.2732
6.0000 3.9693 0.2824
6.0200 3.9827 0.2763
6.0400 3.9960 0.2715
6.0600 4.0093 0.2833
6.0800 4.0227 0.2816
6.1000 4.0361 0.2721
6.1200 4.0494 0.2777
6.1400 4.0627 0.2763
6.1600 4.0761 0.2688
6.1800 4.0894 0.2756
6.2000 4.1027 0.2743
6.2200 4.1160 0.2627
6.2400 4.1293 0.2789
6.2600 4.1426 0.2720
6.2800 4.1560 0.2645
6.3000 4.1693 0.2785
6.3200 4.1826 0.2779
6.3400 4.1960 0.2604
6.3600 4.2093 0.2751
6.3800 4.2226 0.2744
6.4000 4.2359 0.2621
6.4200 4.2493 0.2740
6.4400 4.2627 0.2735
6.4600 4.2761 0.2599
6.4800 4.2894 0.2743
6.5000 4.3027 0.2710
6.5200 4.3160 0.2675
6.5400 4.3294 0.2744
6.5600 4.3428 0.2669
6.5800 4.3561 0.2650
6.6000 4.3693 0.2739
6.6200 4.3827 0.2680
6.6400 4.3960 0.2603
6.6600 4.4093 0.2698
6.6800 4.4226 0.2692
6.7000 4.4359 0.2621
6.7200 4.4493 0.2677
6.7400 4.4626 0.2714
6.7600 4.4760 0.2597
6.7800 4.4893 0.2645
6.8000 4.5027 0.2656
6.8200 4.5160 0.2547
6.8400 4.5294 0.2634
6.8600 4.5427 0.2689
6.8800 4.5560 0.2548
6.9000 4.5694 0.2612
6.9200 4.5827 0.2654
6.9400 4.5960 0.2563
6.9600 4.6093 0.2567
6.9800 4.6227 0.2678
7.0000 4.6360 0.2529
7.0200 4.6493 0.2565
7.0400 4.6626 0.2675
7.0600 4.6759 0.2469
7.0800 4.6893 0.2529
7.1000 4.7026 0.2622
7.1200 4.7159 0.2434
7.1400 4.7293 0.2549
7.1600 4.7427 0.2622
7.1800 4.7561 0.2429
7.2000 4.7695 0.2499
7.2200 4.7828 0.2586
7.2400 4.7961 0.2414
7.2600 4.8094 0.2540
7.2800 4.8228 0.2579
7.3000 4.8360 0.2384
7.3200 4.8493 0.2498
7.3400 4.8626 0.2530
7.3600 4.8759 0.2415
7.3800 4.8893 0.2487
7.4000 4.9026 0.2563
7.4200 4.9160 0.2394
7.4400 4.9293 0.2430
7.4600 4.9427 0.2516
7.4800 4.9560 0.2376
7.5000 4.9694 0.2479
7.5200 4.9827 0.2514
7.5400 4.9961 0.2349
7.5600 5.0094 0.2493
7.5800 5.0227 0.2474
7.6000 5.0360 0.2398
7.6200 5.0494 0.2464
7.6400 5.0627 0.2451
7.6600 5.0760 0.2399
7.6800 5.0893 0.2448
7.7000 5.1026 0.2452
7.7200 5.1160 0.2353
7.7400 5.1293 0.2395
7.7600 5.1426 0.2429
7.7800 5.1559 0.2359
7.8000 5.1693 0.2411
7.8200 5.1826 0.2397
7.8400 5.1960 0.2353
7.8600 5.2093 0.2387
7.8800 5.2227 0.2393
7.9000 5.2361 0.2327
7.9200 5.2494 0.2345
7.9400 5.2627 0.2405
7.9600 5.2760 0.2313
7.9800 5.2894 0.2344
8.0000 5.3028 0.2330
8.0200 5.3161 0.2284
8.0400 5.3293 0.2323
8.0600 5.3427 0.2336
8.0800 5.3560 0.2298
8.1000 5.3693 0.2310
8.1200 5.3826 0.2333
8.1400 5.3959 0.2327
8.1600 5.4093 0.2278
8.1800 5.4226 0.2285
8.2000 5.4360 0.2294
8.2200 5.4493 0.2247
8.2400 5.4626 0.2218
8.2600 5.4760 0.2310
8.2800 5.4894 0.2233
8.3000 5.5027 0.2242
8.3200 5.5160 0.2347
8.3400 5.5294 0.2186
8.3600 5.5427 0.2211
8.3800 5.5560 0.2272
8.4000 5.5693 0.2168
8.4200 5.5827 0.2243
8.4400 5.5960 0.2244
8.4600 5.6093 0.2175
8.4800 5.6226 0.2243
8.5000 5.6360 0.2234
8.5200 5.6493 0.2127
8.5400 5.6627 0.2196
8.5600 5.6760 0.2262
8.5800 5.6893 0.2162
8.6000 5.7027 0.2259
8.6200 5.7160 0.2204
8.6400 5.7294 0.2156
8.6600 5.7427 0.2216
8.6800 5.7560 0.2211
8.7000 5.7694 0.2147
8.7200 5.7827 0.2200
8.7400 5.7961 0.2210
8.7600 5.8094 0.2173
8.7800 5.8227 0.2176
8.8000 5.8360 0.2214
8.8200 5.8493 0.2154
8.8400 5.8626 0.2162
8.8600 5.8759 0.2216
8.8800 5.8893 0.2161
8.9000 5.9026 0.2144
8.9200 5.9160 0.2259
8.9400 5.9293 0.2113
8.9600 5.9427 0.2167
8.9800 5.9561 0.2200
9.0000 5.9694 0.2056
9.0200 5.9827 0.2115
9.0400 5.9960 0.2160
9.0600 6.0094 0.2108
9.0800 6.0227 0.2084
9.1000 6.0361 0.2169
9.1200 6.0493 0.2080
9.1400 6.0626 0.2104
9.1600 6.0760 0.2207
9.1800 6.0893 0.2023
9.2000 6.1026 0.2066
9.2200 6.1159 0.2208
9.2400 6.1293 0.2017
9.2600 6.1426 0.2051
9.2800 6.1560 0.2154
9.3000 6.1693 0.2043
9.3200 6.1826 0.2060
9.3400 6.1960 0.2091
9.3600 6.2094 0.2027
9.3800 6.2227 0.2059
9.4000 6.2361 0.2036
9.4200 6.2494 0.2042
9.4400 6.2627 0.2043
9.4600 6.2760 0.2075
9.4800 6.2893 0.2035
9.5000 6.3026 0.2039
9.5200 6.3160 0.2061
9.5400 6.3293 0.2018
9.5600 6.3426 0.2003
9.5800 6.3560 0.2004
9.6000 6.3693 0.2083
9.6200 6.3827 0.1976
9.6400 6.3960 0.1968
9.6600 6.4094 0.2055
9.6800 6.4227 0.1963
9.7000 6.4360 0.1967
9.7200 6.4494 0.2007
9.7400 6.4627 0.1935
9.7600 6.4760 0.2032
9.7800 6.4893 0.2004
9.8000 6.5027 0.1928
9.8200 6.5160 0.2003
9.8400 6.5294 0.1981
9.8600 6.5427 0.1949
9.8800 6.5560 0.2054
9.9000 6.5694 0.1918
9.9200 6.5827 0.1924
9.9400 6.5960 0.2003
9.9600 6.6093 0.1906
9.9800 6.6226 0.1918
10.0000 6.6360 0.2043
10.0200 6.6493 0.1875
10.0400 6.6626 0.1923
10.0600 6.6760 0.2017
10.0800 6.6894 0.1891
10.1000 6.7027 0.1881
10.1200 6.7160 0.1980
10.1400 6.7294 0.1862
10.1600 6.7427 0.1868
10.1800 6.7561 0.1953
10.2000 6.7694 0.1868
10.2200 6.7827 0.1880
10.2400 6.7960 0.1914
10.2600 6.8094 0.1872
10.2800 6.8227 0.1867
10.3000 6.8360 0.1860
10.3200 6.8493 0.1882
10.3400 6.8626 0.1830
10.3600 6.8760 0.1881
10.3800 6.8893 0.1881
10.4000 6.9026 0.1839
10.4200 6.9160 0.1885
10.4400 6.9294 0.1873
10.4600 6.9427 0.1823
10.4800 6.9560 0.1842
10.5000 6.9694 0.1852
10.5200 6.9827 0.1782
10.5400 6.9960 0.1849
10.5600 7.0093 0.1831
10.5800 7.0226 0.1787
10.6000 7.0360 0.1844
10.6200 7.0493 0.1803
10.6400 7.0626 0.1764
10.6600 7.0759 0.1821
10.6800 7.0893 0.1792
10.7000 7.1027 0.1751
10.7200 7.1160 0.1774
10.7400 7.1293 0.1829
10.7600 7.1426 0.1746
10.7800 7.1560 0.1794
10.8000 7.1694 0.1773
10.8200 7.1827 0.1697
10.8400 7.1960 0.1760
10.8600 7.2094 0.1796
10.8800 7.2227 0.1709
10.9000 7.2361 0.1719
10.9200 7.2494 0.1769
10.9400 7.2627 0.1730
10.9600 7.2760 0.1687
10.9800 7.2894 0.1744
11.0000 7.3027 0.1719
11.0200 7.3159 0.1678
11.0400 7.3293 0.1751
11.0600 7.3426 0.1676
11.0800 7.3560 0.1680
11.1000 7.3693 0.1740
11.1200 7.3827 0.1648
11.1400 7.3960 0.1614
11.1600 7.4094 0.1732
11.1800 7.4227 0.1590
11.2000 7.4360 0.1616
11.2200 7.4494 0.1744
11.2400 7.4627 0.1637
11.2600 7.4761 0.1602
11.2800 7.4894 0.1710
11.3000 7.5027 0.1630
11.3200 7.5160 0.1588
11.3400 7.5294 0.1700
11.3600 7.5427 0.1646
11.3800 7.5560 0.1646
11.4000 7.5693 0.1719
11.4200 7.5826 0.1605
11.4400 7.5960 0.1649
11.4600 7.6093 0.1700
11.4800 7.6226 0.1602
11.5000 7.6360 0.1616
11.5200 7.6494 0.1695
11.5400 7.6627 0.1591
11.5600 7.6760 0.1594
11.5800 7.6894 0.1683
11.6000 7.7027 0.1556
11.6200 7.7161 0.1609
11.6400 7.7294 0.1663
11.6600 7.7427 0.1558
11.6800 7.7560 0.1585
11.7000 7.7693 0.1682
11.7200 7.7826 0.1524
11.7400 7.7959 0.1596
11.7600 7.8093 0.1645
11.7800 7.8226 0.1487
11.8000 7.8360 0.1572
11.8200 7.8493 0.1640
11.8400 7.8626 0.1465
11.8600 7.8760 0.1587
11.8800 7.8893 0.1566
11.9000 7.9027 0.1473
11.9200 7.9160 0.1601
11.9400 7.9293 0.1566
11.9600 7.9427 0.1438
11.9800 7.9561 0.1573
12.0000 7.9694 0.1525
12.0200 7.9827 0.1489
12.0400 7.9960 0.1569
12.0600 8.0094 0.1532
12.0800 8.0227 0.1479
12.1000 8.0360 0.1513
12.1200 8.0493 0.1504
12.1400 8.0626 0.1475
12.1600 8.0759 0.1543
12.1800 8.0892 0.1474
12.2000 8.1026 0.1448
12.2200 8.1160 0.1491
12.2400 8.1294 0.1501
12.2600 8.1428 0.1414
12.2800 8.1561 0.1496
12.3000 8.1694 0.1506
12.3200 8.1828 0.1421
12.3400 8.1961 0.1463
12.3600 8.2094 0.1438
12.3800 8.2227 0.1405
12.4000 8.2360 0.1503
12.4200 8.2493 0.1401
12.4400 8.2627 0.1439
12.4600 8.2760 0.1461
12.4800 8.2893 0.1408
12.5000 8.3026 0.1481
12.5200 8.3160 0.1434
12.5400 8.3293 0.1321
12.5600 8.3426 0.1442
12.5800 8.3560 0.1426
12.6000 8.3694 0.1370
12.6200 8.3828 0.1418
12.6400 8.3961 0.1368
12.6600 8.4094 0.1340
12.6800 8.4227 0.1476
12.7000 8.4361 0.1362
12.7200 8.4494 0.1347
12.7400 8.4627 0.1481
12.7600 8.4760 0.1314
12.7800 8.4893 0.1337
12.8000 8.5026 0.1457
12.8200 8.5159 0.1331
12.8400 8.5292 0.1356
12.8600 8.5426 0.1462
12.8800 8.5560 0.1250
12.9000 8.5694 0.1370
12.9200 8.5827 0.1414
12.9400 8.5960 0.1275
12.9600 8.6094 0.1375
12.9800 8.6227 0.1387
13.0000 8.6360 0.1246
13.0200 8.6494 0.1401
13.0400 8.6627 0.1324
13.0600 8.6761 0.1277
13.0800 8.6894 0.1329
13.1000 8.7027 0.1300
13.1200 8.7160 0.1292
13.1400 8.7294 0.1359
13.1600 8.7427 0.1281
13.1800 8.7560 0.1294
13.2000 8.7693 0.1323
13.2200 8.7826 0.1228
13.2400 8.7960 0.1275
13.2600 8.8093 0.1297
13.2800 8.8227 0.1247
13.3000 8.8360 0.1319
13.3200 8.8494 0.1286
13.3400 8.8628 0.1172
13.3600 8.8761 0.1340
13.3800 8.8894 0.1268
13.4000 8.9027 0.1235
13.4200 8.9161 0.1294
13.4400 8.9294 0.1196
13.4600 8.9426 0.1214
13.4800 8.9560 0.1309
13.5000 8.9693 0.1171
13.5200 8.9827 0.1239
13.5400 8.9960 0.1262
13.5600 9.0093 0.1169
13.5800 9.0226 0.1263
13.6000 9.0360 0.1259
13.6200 9.0493 0.1090
13.6400 9.0626 0.1288
13.6600 9.0760 0.1203
13.6800 9.0893 0.1163
13.7000 9.1027 0.1243
13.7200 9.1161 0.1197
13.7400 9.1294 0.1122
13.7600 9.1427 0.1248
13.7800 9.1561 0.1208
13.8000 9.1694 0.1101
13.8200 9.1827 0.1249
13.8400 9.1960 0.1156
13.8600 9.2093 0.1135
13.8800 9.2227 0.1282
13.9000 9.2360 0.1131
13.9200 9.2493 0.1130
13.9400 9.2626 0.1230
13.9600 9.2760 0.1117
13.9800 9.2893 0.1134
14.0000 9.3027 0.1171
14.0200 9.3160 0.1186
14.0400 9.3294 0.1132
14.0600 9.3427 0.1138
14.0800 9.3560 0.1096
14.1000 9.3694 0.1152
14.1200 9.3827 0.1118
14.1400 9.3960 0.1089
14.1600 9.4094 0.1102
14.1800 9.4227 0.1110
14.2000 9.4360 0.1109
14.2200 9.4494 0.1117
14.2400 9.4627 0.1081
14.2600 9.4760 0.1155
14.2800 9.4893 0.1063
14.3000 9.5026 0.1105
14.3200 9.5159 0.1136
14.3400 9.5293 0.1021
14.3600 9.5426 0.1074
14.3800 9.5560 0.1179
14.4000 9.5694 0.0974
14.4200 9.5828 0.1082
14.4400 9.5961 0.1143
14.4600 9.6094 0.0997
14.4800 9.6227 0.1044
14.5000 9.6361 0.1132
14.5200 9.6494 0.0968
14.5400 9.6626 0.1065
14.5600 9.6759 0.1133
14.5800 9.6892 0.0932
14.6000 9.7026 0.1097
14.6200 9.7159 0.1071
14.6400 9.7293 0.0921
14.6600 9.7426 0.1064
14.6800 9.7560 0.1087
14.7000 9.7694 0.0861
14.7200 9.7827 0.1074
14.7400 9.7960 0.1042
14.7600 9.8094 0.0910
14.7800 9.8227 0.1066
14.8000 9.8361 0.1013
14.8200 9.8494 0.0917
14.8400 9.8627 0.1018
14.8600 9.8761 0.1002
14.8800 9.8894 0.0923
14.9000 9.9027 0.1058
14.9200 9.9160 0.0963
14.9400 9.9293 0.0848
14.9600 9.9427 0.1037
14.9800 9.9560 0.0979
15.0000 9.9693 0.0862
15.0200 9.9826 0.1024
15.0400 9.9960 0.0973
15.0600 10.0093 0.0816
15.0800 10.0227 0.1033
15.1000 10.0360 0.0961
15.1200 10.0494 0.0859
15.1400 10.0627 0.0974
15.1600 10.0761 0.0921
15.1800 10.0894 0.0918
15.2000 10.1027 0.0945
15.2200 10.1161 0.0970
15.2400 10.1294 0.0845
15.2600 10.1427 0.0925
15.2800 10.1560 0.0955
15.3000 10.1693 0.0908
15.3200 10.1827 0.0901
15.3400 10.1960 0.0930
15.3600 10.2093 0.0874
15.3800 10.2226 0.0869
15.4000 10.2359 0.0967
15.4200 10.2493 0.0824
15.4400 10.2626 0.0862
15.4600 10.2760 0.1011
15.4800 10.2893 0.0772
15.5000 10.3027 0.0878
15.5200 10.3161 0.0987
15.5400 10.3294 0.0771
15.5600 10.3427 0.0858
15.5800 10.3561 0.0962
15.6000 10.3694 0.0746
15.6200 10.3827 0.0878
15.6400 10.3960 0.1017
15.6600 10.4093 0.0679
15.6800 10.4227 0.0871
15.7000 10.4360 0.0988
15.7200 10.4493 0.0666
15.7400 10.4626 0.0888
15.7600 10.4760 0.0918
15.7800 10.4893 0.0681
15.8000 10.5026 0.0868
15.8200 10.5160 0.0882
15.8400 10.5293 0.0685
15.8600 10.5427 0.0820
15.8800 10.5560 0.0860
15.9000 10.5693 0.0651
15.9200 10.5827 0.0886
15.9400 10.5961 0.0826
15.9600 10.6094 0.0655
15.9800 10.6227 0.0848
16.0000 10.6360 0.0789
16.0200 10.6493 0.0714
16.0400 10.6627 0.0856
16.0600 10.6760 0.0728
16.0800 10.6893 0.0720
16.1000 10.7026 0.0826
16.1200 10.7160 0.0741
16.1400 10.7293 0.0679
16.1600 10.7426 0.0832
16.1800 10.7560 0.0742
16.2000 10.7694 0.0682
16.2200 10.7827 0.0777
16.2400 10.7961 0.0753
16.2600 10.8094 0.0724
16.2800 10.8227 0.0745
16.3000 10.8360 0.0745
16.3200 10.8494 0.0731
16.3400 10.8627 0.0755
16.3600 10.8760 0.0761
16.3800 10.8893 0.0704
16.4000 10.9027 0.0712
16.4200 10.9160 0.0772
16.4400 10.9293 0.0660
16.4600 10.9426 0.0760
16.4800 10.9559 0.0815
16.5000 10.9693 0.0646
16.5200 10.9826 0.0661
16.5400 10.9960 0.0825
16.5600 11.0093 0.0614
16.5800 11.0227 0.0709
16.6000 11.0361 0.0789
16.6200 11.0494 0.0590
16.6400 11.0627 0.0748
16.6600 11.0761 0.0750
16.6800 11.0894 0.0570
16.7000 11.1027 0.0786
16.7200 11.1160 0.0716
16.7400 11.1293 0.0613
16.7600 11.1426 0.0721
16.7800 11.1560 0.0691
16.8000 11.1693 0.0607
16.8200 11.1826 0.0723
16.8400 11.1960 0.0711
16.8600 11.2094 0.0530
16.8800 11.2227 0.0692
16.9000 11.2360 0.0673
16.9200 11.2493 0.0579
16.9400 11.2627 0.0677
16.9600 11.2760 0.0614
16.9800 11.2893 0.0571
17.0000 11.3027 0.0670
17.0200 11.3160 0.0630
17.0400 11.3294 0.0631
17.0600 11.3427 0.0586
17.0800 11.3560 0.0552
17.1000 11.3694 0.0559
17.1200 11.3827 0.0609
17.1400 11.3961 0.0546
17.1600 11.4093 0.0544
17.1800 11.4226 0.0568
17.2000 11.4360 0.0589
17.2200 11.4493 0.0475
17.2400 11.4626 0.0559
17.2600 11.4760 0.0596
17.2800 11.4893 0.0490
17.3000 11.5027 0.0495
17.3200 11.5160 0.0578
17.3400 11.5293 0.0465
17.3600 11.5427 0.0513
17.3800 11.5560 0.0576
17.4000 11.5694 0.0478
17.4200 11.5827 0.0527
17.4400 11.5960 0.0557
17.4600 11.6094 0.0501
17.4800 11.6227 0.0481
17.5000 11.6360 0.0556
17.5200 11.6493 0.0493
17.5400 11.6626 0.0505
17.5600 11.6759 0.0572
17.5800 11.6893 0.0448
17.6000 11.7026 0.0450
17.6200 11.7160 0.0573
17.6400 11.7293 0.0459
17.6600 11.7427 0.0457
17.6800 11.7561 0.0485
17.7000 11.7694 0.0510
17.7200 11.7827 0.0465
17.7400 11.7961 0.0523
17.7600 11.8094 0.0457
17.7800 11.8227 0.0479
17.8000 11.8360 0.0504
17.8200 11.8493 0.0471
17.8400 11.8626 0.0474
17.8600 11.8760 0.0502
17.8800 11.8893 0.0405
17.9000 11.9026 0.0462
17.9200 11.9160 0.0521
17.9400 11.9293 0.0427
17.9600 11.9427 0.0413
17.9800 11.9560 0.0503
18.0000 11.9693 0.0405
18.0200 11.9827 0.0405
18.0400 11.9960 0.0486
18.0600 12.0094 0.0391
18.0800 12.0227 0.0422
18.1000 12.0360 0.0477
18.1200 12.0494 0.0383
18.1400 12.0627 0.0403
18.1600 12.0760 0.0476
18.1800 12.0893 0.0381
18.2000 12.1027 0.0408
18.2200 12.1160 0.0417
18.2400 12.1293 0.0397
18.2600 12.1426 0.0424
18.2800 12.1559 0.0407
18.3000 12.1693 0.0369
18.3200 12.1826 0.0493
18.3400 12.1960 0.0344
18.3600 12.2093 0.0374
18.3800 12.2227 0.0392
18.4000 12.2361 0.0360
18.4200 12.2494 0.0374
18.4400 12.2627 0.0422
18.4600 12.2760 0.0348
18.4800 12.2894 0.0348
18.5000 12.3027 0.0385
18.5200 12.3160 0.0353
18.5400 12.3293 0.0353
18.5600 12.3427 0.0413
18.5800 12.3560 0.0326
18.6000 12.3693 0.0323
18.6200 12.3827 0.0395
18.6400 12.3960 0.0338
18.6600 12.4093 0.0286
18.6800 12.4226 0.0386
18.7000 12.4360 0.0325
18.7200 12.4493 0.0288
18.7400 12.4627 0.0366
18.7600 12.4761 0.0243
18.7800 12.4894 0.0289
18.8000 12.5027 0.0365
18.8200 12.5160 0.0260
18.8400 12.5294 0.0281
18.8600 12.5427 0.0304
18.8800 12.5560 0.0246
18.9000 12.5693 0.0338
18.9200 12.5826 0.0290
18.9400 12.5960 0.0210
18.9600 12.6093 0.0314
18.9800 12.6226 0.0327
19.0000 12.6359 0.0191
19.0200 12.6493 0.0327
19.0400 12.6627 0.0263
19.0600 12.6760 0.0190
19.0800 12.6893 0.0308
19.1000 12.7027 0.0305
19.1200 12.7160 0.0178
19.1400 12.7294 0.0282
19.1600 12.7427 0.0272
19.1800 12.7560 0.0148
19.2000 12.7694 0.0258
19.2200 12.7827 0.0236
19.2400 12.7960 0.0147
19.2600 12.8094 0.0262
19.2800 12.8227 0.0280
19.3000 12.8361 0.0110
19.3200 12.8494 0.0269
19.3400 12.8626 0.0252
19.3600 12.8759 0.0118
19.3800 12.8893 0.0259
19.4000 12.9026 0.0241
19.4200 12.9159 0.0108
19.4400 12.9293 0.0271
19.4600 12.9427 0.0235
19.4800 12.9561 0.0119
19.5000 12.9694 0.0239
19.5200 12.9827 0.0236
19.5400 12.9961 0.0121
19.5600 13.0094 0.0206
19.5800 13.0228 0.0203
19.6000 13.0361 0.0129
19.6200 13.0493 0.0167
19.6400 13.0626 0.0224
19.6600 13.0760 0.0079
19.6800 13.0893 0.0194
19.7000 13.1026 0.0188
19.7200 13.1159 0.0099
19.7400 13.1293 0.0205
19.7600 13.1426 0.0183
19.7800 13.1560 0.0094
19.8000 13.1693 0.0208
19.8200 13.1827 0.0135
19.8400 13.1961 0.0050
19.8600 13.2094 0.0204
19.8800 13.2227 0.0179
19.9000 13.2360 0.0056
19.9200 13.2494 0.0209
19.9400 13.2627 0.0180
19.9600 13.2760 0.0021
19.9800 13.2893 0.0209
20.0000 13.3027 0.0144
20.0200 13.3160 0.0040
20.0400 13.3293 0.0162
20.0600 13.3426 0.0164
20.0800 13.3559 0.0037
20.1000 13.3693 0.0178
20.1200 13.3827 0.0057
20.1400 13.3960 -0.0003
20.1600 13.4093 0.0129
20.1800 13.4227 0.0150
20.2000 13.4361 0.0008
20.2200 13.4494 0.0125
20.2400 13.4627 0.0037
20.2600 13.4760 0.0027
20.2800 13.4894 0.0147
20.3000 13.5027 0.0039
20.3200 13.5160 0.0024
20.3400 13.5294 0.0136
20.3600 13.5427 0.0042
20.3800 13.5560 -0.0029
20.4000 13.5693 0.0061
20.4200 13.5826 0.0052
20.4400 13.5959 -0.0049
20.4600 13.6093 0.0050
20.4800 13.6227 0.0028
20.5000 13.6360 -0.0005
20.5200 13.6493 0.0043
20.5400 13.6627 -0.0014
20.5600 13.6761 -0.0032
20.5800 13.6894 0.0019
20.6000 13.7027 -0.0006
20.6200 13.7160 -0.0022
20.6400 13.7294 0.0051
20.6600 13.7427 -0.0045
20.6800 13.7560 -0.0068
20.7000 13.7693 0.0036
20.7200 13.7826 -0.0027
20.7400 13.7960 -0.0068
20.7600 13.8093 0.0009
20.7800 13.8226 -0.0083
20.8000 13.8360 -0.0074
20.8200 13.8493 0.0029
20.8400 13.8627 -0.0050
20.8600 13.8760 -0.0060
20.8800 13.8893 0.0013
20.9000 13.9027 -0.0105
20.9200 13.9161 -0.0089
20.9400 13.9294 -0.0010
20.9600 13.9427 -0.0072
20.9800 13.9561 -0.0074
21.0000 13.9694 -0.0085
21.0200 13.9828 -0.0095
21.0400 13.9961 -0.0038
21.0600 14.0093 -0.0072
21.0800 14.0226 -0.0077
21.1000 14.0360 -0.0080
21.1200 14.0493 -0.0084
21.1400 14.0627 -0.0057
21.1600 14.0760 -0.0091
21.1800 14.0893 -0.0105
21.2000 14.1026 -0.0075
21.2200 14.1160 -0.0100
21.2400 14.1293 -0.0139
21.2600 14.1427 -0.0049
21.2800 14.1561 -0.0150
21.3000 14.1694 -0.0157
21.3200 14.1827 -0.0102
21.3400 14.1960 -0.0140
21.3600 14.2094 -0.0182
21.3800 14.2227 -0.0103
21.4000 14.2360 -0.0156
21.4200 14.2493 -0.0167
21.4400 14.2627 -0.0147
21.4600 14.2760 -0.0136
21.4800 14.2894 -0.0211
21.5000 14.3026 -0.0157
21.5200 14.3159 -0.0171
21.5400 14.3293 -0.0197
21.5600 14.3426 -0.0163
21.5800 14.3559 -0.0150
21.6000 14.3693 -0.0184
21.6200 14.3826 -0.0160
21.6400 14.3961 -0.0152
21.6600 14.4094 -0.0197
21.6800 14.4228 -0.0231
21.7000 14.4361 -0.0183
21.7200 14.4494 -0.0192
21.7400 14.4627 -0.0249
21.7600 14.4760 -0.0160
21.7800 14.4893 -0.0220
21.8000 14.5026 -0.0185
21.8200 14.5159 -0.0185
21.8400 14.5293 -0.0231
21.8600 14.5426 -0.0233
21.8800 14.5559 -0.0150
21.9000 14.5693 -0.0219
21.9200 14.5827 -0.0232
21.9400 14.5960 -0.0208
21.9600 14.6093 -0.0254
21.9800 14.6227 -0.0209
22.0000 14.6361 -0.0190
22.0200 14.6494 -0.0291
22.0400 14.6627 -0.0182
22.0600 14.6760 -0.0248
22.0800 14.6894 -0.0253
22.1000 14.7027 -0.0204
22.1200 14.7160 -0.0235
22.1400 14.7293 -0.0258
22.1600 14.7426 -0.0168
22.1800 14.7560 -0.0295
22.2000 14.7693 -0.0330
22.2200 14.7826 -0.0166
22.2400 14.7960 -0.0304
22.2600 14.8093 -0.0292
22.2800 14.8227 -0.0186
22.3000 14.8360 -0.0375
22.3200 14.8493 -0.0264
22.3400 14.8627 -0.0225
22.3600 14.8761 -0.0436
22.3800 14.8894 -0.0288
22.4000 14.9027 -0.0291
22.4200 14.9160 -0.0374
22.4400 14.9294 -0.0254
22.4600 14.9428 -0.0311
22.4800 14.9561 -0.0395
22.5000 14.9694 -0.0220
22.5200 14.9827 -0.0393
22.5400 14.9960 -0.0393
22.5600 15.0093 -0.0204
22.5800 15.0226 -0.0426
22.6000 15.0359 -0.0368
22.6200 15.0493 -0.0262
22.6400 15.0626 -0.0467
22.6600 15.0760 -0.0345
22.6800 15.0893 -0.0289
22.7000 15.1027 -0.0467
22.7200 15.1160 -0.0351
22.7400 15.1294 -0.0302
22.7600 15.1427 -0.0473
22.7800 15.1560 -0.0335
22.8000 15.1694 -0.0305
22.8200 15.1827 -0.0487
22.8400 15.1960 -0.0311
22.8600 15.2093 -0.0334
22.8800 15.2226 -0.0504
22.9000 15.2360 -0.0300
22.9200 15.2494 -0.0363
22.9400 15.2627 -0.0545
22.9600 15.2760 -0.0307
22.9800 15.2893 -0.0371
23.0000 15.3026 -0.0503
23.0200 15.3160 -0.0345
23.0400 15.3293 -0.0391
23.0600 15.3426 -0.0536
23.0800 15.3560 -0.0364
23.1000 15.3694 -0.0452
23.1200 15.3827 -0.0474
23.1400 15.3960 -0.0393
23.1600 15.4094 -0.0434
23.1800 15.4227 -0.0487
23.2000 15.4361 -0.0397
23.2200 15.4494 -0.0469
23.2400 15.4627 -0.0482
23.2600 15.4760 -0.0413
23.2800 15.4893 -0.0476
23.3000 15.5026 -0.0529
23.3200 15.5159 -0.0404
23.3400 15.5293 -0.0506
23.3600 15.5426 -0.0540
23.3800 15.5560 -0.0472
23.4000 15.5693 -0.0450
23.4200 15.5827 -0.0555
23.4400 15.5961 -0.0480
23.4600 15.6094 -0.0455
23.4800 15.6227 -0.0559
23.5000 15.6360 -0.0488
23.5200 15.6494 -0.0471
23.5400 15.6627 -0.0567
23.5600 15.6761 -0.0522
23.5800 15.6894 -0.0474
23.6000 15.7027 -0.0591
23.6200 15.7160 -0.0472
23.6400 15.7293 -0.0556
23.6600 15.7427 -0.0585
23.6800 15.7560 -0.0477
23.7000 15.7693 -0.0526
23.7200 15.7826 -0.0622
23.7400 15.7960 -0.0471
23.7600 15.8093 -0.0597
23.7800 15.8226 -0.0623
23.8000 15.8360 -0.0480
23.8200 15.8494 -0.0626
23.8400 15.8627 -0.0628
23.8600 15.8761 -0.0479
23.8800 15.8894 -0.0674
23.9000 15.9027 -0.0562
23.9200 15.9160 -0.0547
23.9400 15.9293 -0.0660
23.9600 15.9426 -0.0567
23.9800 15.9560 -0.0523
24.0000 15.9693 -0.0731
24.0200 15.9826 -0.0604
24.0400 15.9960 -0.0550
24.0600 16.0093 -0.0702
24.0800 16.0227 -0.0596
24.1000 16.0360 -0.0537
24.1200 16.0493 -0.0710
24.1400 16.0627 -0.0634
24.1600 16.0760 -0.0563
24.1800 16.0894 -0.0725
24.2000 16.1027 -0.0605
24.2200 16.1160 -0.0616
24.2400 16.1293 -0.0724
24.2600 16.1427 -0.0584
24.2800 16.1560 -0.0632
24.3000 16.1694 -0.0761
24.3200 16.1827 -0.0579
24.3400 16.1960 -0.0657
24.3600 16.2094 -0.0734
24.3800 16.2227 -0.0613
24.4000 16.2360 -0.0662
24.4200 16.2493 -0.0722
24.4400 16.2626 -0.0610
24.4600 16.2760 -0.0720
24.4800 16.2893 -0.0715
24.5000 16.3026 -0.0640
24.5200 16.3160 -0.0698
24.5400 16.3294 -0.0736
24.5600 16.3427 -0.0671
24.5800 16.3560 -0.0754
24.6000 16.3694 -0.0773
24.6200 16.3827 -0.0678
24.6400 16.3961 -0.0713
24.6600 16.4094 -0.0759
24.6800 16.4227 -0.0705
24.7000 16.4360 -0.0734
24.7200 16.4494 -0.0763
24.7400 16.4627 -0.0729
24.7600 16.4760 -0.0736
24.7800 16.4893 -0.0753
24.8000 16.5026 -0.0796
24.8200 16.5160 -0.0755
24.8400 16.5293 -0.0780
24.8600 16.5426 -0.0757
24.8800 16.5560 -0.0764
24.9000 16.5694 -0.0778
24.9200 16.5827 -0.0831
24.9400 16.5961 -0.0756
24.9600 16.6094 -0.0801
24.9800 16.6228 -0.0837
25.0000 16.6361 -0.0805
25.0200 16.6494 -0.0800
25.0400 16.6627 -0.0869
25.0600 16.6760 -0.0764
25.0800 16.6893 -0.0812
25.1000 16.7026 -0.0852
25.1200 16.7159 -0.0791
25.1400 16.7293 -0.0799
25.1600 16.7426 -0.0875
25.1800 16.7560 -0.0796
25.2000 16.7693 -0.0874
25.2200 16.7826 -0.0892
25.2400 16.7960 -0.0755
25.2600 16.8093 -0.0882
25.2800 16.8227 -0.0889
25.3000 16.8360 -0.0805
25.3200 16.8494 -0.0868
25.3400 16.8627 -0.0869
25.3600 16.8761 -0.0842
25.3800 16.8894 -0.0898
25.4000 16.9027 -0.0856
25.4200 16.9160 -0.0857
25.4400 16.9293 -0.0914
25.4600 16.9426 -0.0829
25.4800 16.9559 -0.0831
25.5000 16.9692 -0.0977
25.5200 16.9826 -0.0846
25.5400 16.9959 -0.0887
25.5600 17.0093 -0.0928
25.5800 17.0226 -0.0862
25.6000 17.0360 -0.0892
25.6200 17.0494 -0.0985
25.6400 17.0627 -0.0906
25.6600 17.0760 -0.0942
25.6800 17.0894 -0.0904
25.7000 17.1027 -0.0924
25.7200 17.1161 -0.0894
25.7400 17.1294 -0.0950
25.7600 17.1427 -0.0966
25.7800 17.1560 -0.0928
25.8000 17.1694 -0.0939
25.8200 17.1827 -0.0961
25.8400 17.1960 -0.0927
25.8600 17.2093 -0.0956
25.8800 17.2226 -0.1001
25.9000 17.2359 -0.0951
25.9200 17.2493 -0.0954
25.9400 17.2627 -0.0979
25.9600 17.2760 -0.0941
25.9800 17.2894 -0.1015
26.0000 17.3028 -0.1030
26.0200 17.3161 -0.0977
26.0400 17.3294 -0.0984
26.0600 17.3427 -0.0982
26.0800 17.3561 -0.1011
26.1000 17.3694 -0.0993
26.1200 17.3827 -0.1015
26.1400 17.3960 -0.0978
26.1600 17.4093 -0.1018
26.1800 17.4226 -0.0998
26.2000 17.4359 -0.1030
26.2200 17.4493 -0.0995
26.2400 17.4626 -0.1019
26.2600 17.4760 -0.1004
26.2800 17.4894 -0.1023
26.3000 17.5027 -0.1028
26.3200 17.5160 -0.1077
26.3400 17.5294 -0.1058
26.3600 17.5427 -0.1034
26.3800 17.5560 -0.1068
26.4000 17.5693 -0.1032
26.4200 17.5827 -0.1051
26.4400 17.5960 -0.1063
26.4600 17.6094 -0.1032
26.4800 17.6227 -0.1077
26.5000 17.6360 -0.1020
26.5200 17.6494 -0.1073
26.5400 17.6627 -0.1117
26.5600 17.6760 -0.1055
26.5800 17.6893 -0.1083
26.6000 17.7026 -0.1089
26.6200 17.7159 -0.1115
26.6400 17.7293 -0.1060
26.6600 17.7426 -0.1125
26.6800 17.7560 -0.1086
26.7000 17.7694 -0.1102
26.7200 17.7828 -0.1154
26.7400 17.7961 -0.1129
26.7600 17.8094 -0.1089
26.7800 17.8227 -0.1180
26.8000 17.8361 -0.1131
26.8200 17.8494 -0.1184
26.8400 17.8627 -0.1152
26.8600 17.8760 -0.1179
26.8800 17.8893 -0.1128
26.9000 17.9026 -0.1177
26.9200 17.9159 -0.1230
26.9400 17.9292 -0.1151
26.9600 17.9426 -0.1185
26.9800 17.9560 -0.1216
27.0000 17.9693 -0.1184
27.0200 17.9826 -0.1175
27.0400 17.9960 -0.1206
27.0600 18.0094 -0.1228
27.0800 18.0227 -0.1226
27.1000 18.0361 -0.1235
27.1200 18.0494 -0.1176
27.1400 18.0627 -0.1198
27.1600 18.0761 -0.1263
27.1800 18.0894 -0.1172
27.2000 18.1027 -0.1239
27.2200 18.1160 -0.1288
27.2400 18.1293 -0.1198
27.2600 18.1427 -0.1267
27.2800 18.1560 -0.1285
27.3000 18.1693 -0.1182
27.3200 18.1826 -0.1265
27.3400 18.1960 -0.1299
27.3600 18.2093 -0.1204
27.3800 18.2227 -0.1283
27.4000 18.2360 -0.1305
27.4200 18.2494 -0.1228
27.4400 18.2627 -0.1353
27.4600 18.2760 -0.1297
27.4800 18.2894 -0.1290
27.5000 18.3027 -0.1297
27.5200 18.3161 -0.1317
27.5400 18.3294 -0.1302
27.5600 18.3427 -0.1328
27.5800 18.3560 -0.1285
27.6000 18.3694 -0.1326
27.6200 18.3827 -0.1391
27.6400 18.3960 -0.1337
27.6600 18.4093 -0.1313
27.6800 18.4226 -0.1365
27.7000 18.4360 -0.1386
27.7200 18.4493 -0.1363
27.7400 18.4627 -0.1363
27.7600 18.4760 -0.1385
27.7800 18.4894 -0.1407
27.8000 18.5027 -0.1366
27.8200 18.5161 -0.1452
27.8400 18.5294 -0.1389
27.8600 18.5427 -0.1399
27.8800 18.5561 -0.1483
27.9000 18.5694 -0.1412
27.9200 18.5827 -0.1388
27.9400 18.5960 -0.1495
27.9600 18.6093 -0.1427
27.9800 18.6227 -0.1389
28.0000 18.6360 -0.1497
28.0200 18.6493 -0.1476
28.0400 18.6626 -0.1374
28.0600 18.6760 -0.1533
28.0800 18.6893 -0.1504
28.1000 18.7026 -0.1413
28.1200 18.7160 -0.1501
28.1400 18.7293 -0.1475
28.1600 18.7427 -0.1485
28.1800 18.7561 -0.1541
28.2000 18.7694 -0.1511
28.2200 18.7827 -0.1462
28.2400 18.7961 -0.1502
28.2600 18.8094 -0.1542
28.2800 18.8227 -0.1523
28.3000 18.8360 -0.1539
28.3200 18.8493 -0.1518
28.3400 18.8627 -0.1506
28.3600 18.8760 -0.1563
28.3800 18.8893 -0.1551
28.4000 18.9026 -0.1544
28.4200 18.9160 -0.1522
28.4400 18.9293 -0.1604
28.4600 18.9427 -0.1532
28.4800 18.9560 -0.1568
28.5000 18.9694 -0.1621
28.5200 18.9827 -0.1567
28.5400 18.9960 -0.1503
28.5600 19.0094 -0.1644
28.5800 19.0227 -0.1587
28.6000 19.0361 -0.1583
28.6200 19.0494 -0.1623
28.6400 19.0627 -0.1596
28.6600 19.0760 -0.1586
28.6800 19.0893 -0.1654
28.7000 19.1027 -0.1623
28.7200 19.1160 -0.1684
28.7400 19.1293 -0.1652
28.7600 19.1426 -0.1560
28.7800 19.1559 -0.1715
28.8000 19.1693 -0.1705
28.8200 19.1826 -0.1601
28.8400 19.1960 -0.1726
28.8600 19.2094 -0.1702
28.8800 19.2227 -0.1642
28.9000 19.2361 -0.1732
28.9200 19.2494 -0.1704
28.9400 19.2628 -0.1675
28.9600 19.2761 -0.1704
28.9800 19.2894 -0.1705
29.0000 19.3027 -0.1662
29.0200 19.3160 -0.1756
29.0400 19.3293 -0.1701
29.0600 19.3426 -0.1736
29.0800 19.3560 -0.1767
29.1000 19.3693 -0.1726
29.1200 19.3826 -0.1784
29.1400 19.3960 -0.1807
29.1600 19.4094 -0.1709
29.1800 19.4227 -0.1825
29.2000 19.4360 -0.1785
29.2200 19.4494 -0.1782
29.2400 19.4627 -0.1830
29.2600 19.4761 -0.1857
29.2800 19.4894 -0.1771
29.3000 19.5027 -0.1838
29.3200 19.5160 -0.1867
29.3400 19.5294 -0.1807
29.3600 19.5427 -0.1869
29.3800 19.5560 -0.1870
29.4000 19.5693 -0.1781
29.4200 19.5827 -0.1858
29.4400 19.5960 -0.1916
29.4600 19.6093 -0.1786
29.4800 19.6226 -0.1861
29.5000 19.6360 -0.1915
29.5200 19.6493 -0.1845
29.5400 19.6627 -0.1891
29.5600 19.6760 -0.1949
29.5800 19.6893 -0.1849
29.6000 19.7027 -0.1940
29.6200 19.7160 -0.1950
29.6400 19.7294 -0.1906
29.6600 19.7427 -0.1899
29.6800 19.7560 -0.1961
29.7000 19.7694 -0.1893
29.7200 19.7827 -0.1933
29.7400 19.7960 -0.1978
29.7600 19.8093 -0.1885
29.7800 19.8227 -0.1989
29.8000 19.8360 -0.2000
29.8200 19.8493 -0.1854
29.8400 19.8626 -0.2014
29.8600 19.8759 -0.2017
29.8800 19.8893 -0.1883
29.9000 19.9027 -0.2019
29.9200 19.9160 -0.1995
29.9400 19.9293 -0.1841
29.9600 19.9427 -0.2068
29.9800 19.9561 -0.2001
30.0000 19.9694 -0.1887
30.0200 19.9827 -0.2075
30.0400 19.9961 -0.1969
30.0600 20.0094 -0.1934
30.0800 20.0227 -0.2107
30.1000 20.0360 -0.1997
30.1200 20.0493 -0.1968
30.1400 20.0627 -0.2127
30.1600 20.0760 -0.2004
30.1800 20.0893 -0.2008
30.2000 20.1026 -0.2119
30.2200 20.1160 -0.2017
30.2400 20.1293 -0.2070
30.2600 20.1426 -0.2125
30.2800 20.1560 -0.2003
30.3000 20.1693 -0.2108
30.3200 20.1827 -0.2099
30.3400 20.1960 -0.2081
30.3600 20.2094 -0.2138
30.3800 20.2227 -0.2147
30.4000 20.2361 -0.2105
30.4200 20.2494 -0.2214
30.4400 20.2627 -0.2165
30.4600 20.2760 -0.2169
30.4800 20.2893 -0.2203
30.5000 20.3027 -0.2193
30.5200 20.3160 -0.2188
30.5400 20.3293 -0.2217
30.5600 20.3426 -0.2233
30.5800 20.3559 -0.2199
30.6000 20.3693 -0.2259
30.6200 20.3826 -0.2271
30.6400 20.3960 -0.2264
30.6600 20.4094 -0.2235
30.6800 20.4228 -0.2291
30.7000 20.4361 -0.2299
30.7200 20.4494 -0.2172
30.7400 20.4627 -0.1659
30.7600 20.4760 -0.0860
30.7800 20.4894 -0.0264
30.8000 20.5027 -0.0097
30.8200 20.5160 0.0386
30.8400 20.5293 0.0904
30.8600 20.5427 0.1358
30.8800 20.5560 0.1948
30.9000 20.5693 0.2603
30.9200 20.5826 0.3039
30.9400 20.5959 0.3600
30.9600 20.6093 0.4048
30.9800 20.6226 0.4428
31.0000 20.6360 0.4878
31.0200 20.6493 0.5190
31.0400 20.6627 0.5684
31.0600 20.6761 0.6106
31.0800 20.6894 0.6150
31.1000 20.7027 0.6196
31.1200 20.7161 0.6148
31.1400 20.7294 0.6184
31.1600 20.7427 0.6199
31.1800 20.7560 0.6094
31.2000 20.7693 0.6145
31.2200 20.7826 0.6220
31.2400 20.7960 0.6067
31.2600 20.8093 0.6149
31.2800 20.8226 0.6159
31.3000 20.8360 0.5993
31.3200 20.8494 0.6158
31.3400 20.8627 0.6032
31.3600 20.8760 0.6014
31.3800 20.8894 0.6107
31.4000 20.9027 0.5970
31.4200 20.9160 0.5964
31.4400 20.9294 0.6068
31.4600 20.9427 0.5957
31.4800 20.9560 0.5979
31.5000 20.9694 0.5959
31.5200 20.9827 0.5907
31.5400 20.9960 0.5940
31.5600 21.0093 0.5922
31.5800 21.0227 0.5862
31.6000 21.0361 0.5920
31.6200 21.0494 0.5870
31.6400 21.0627 0.5819
31.6600 21.0760 0.5917
31.6800 21.0893 0.5873
31.7000 21.1026 0.5815
31.7200 21.1160 0.5891
31.7400 21.1293 0.5811
31.7600 21.1427 0.5795
31.7800 21.1560 0.5837
31.8000 21.1694 0.5786
31.8200 21.1827 0.5804
31.8400 21.1960 0.5784
31.8600 21.2094 0.5780
31.8800 21.2227 0.5785
31.9000 21.2360 0.5805
31.9200 21.2493 0.5771
31.9400 21.2627 0.5818
31.9600 21.2760 0.5763
31.9800 21.2893 0.5775
32.0000 21.3026 0.5774
32.0200 21.3159 0.5759
32.0400 21.3293 0.5758
32.0600 21.3426 0.5737
32.0800 21.3560 0.5753
32.1000 21.3693 0.5772
32.1200 21.3827 0.5725
32.1400 21.3961 0.5749
32.1600 21.4094 0.5678
32.1800 21.4227 0.5721
32.2000 21.4360 0.5759
32.2200 21.4494 0.5713
32.2400 21.4627 0.5650
32.2600 21.4760 0.5731
32.2800 21.4893 0.5686
32.3000 21.5026 0.5618
32.3200 21.5160 0.5694
32.3400 21.5293 0.5630
32.3600 21.5426 0.5563
32.3800 21.5559 0.5644
32.4000 21.5693 0.5574
32.4200 21.5827 0.5500
32.4400 21.5960 0.5658
32.4600 21.6093 0.5534
32.4800 21.6227 0.5479
32.5000 21.6360 0.5606
32.5200 21.6494 0.5445
32.5400 21.6627 0.5481
32.5600 21.6760 0.5583
32.5800 21.6894 0.5401
32.6000 21.7027 0.5442
32.6200 21.7160 0.5502
32.6400 21.7293 0.5444
32.6600 21.7427 0.5367
32.6800 21.7560 0.5489
32.7000 21.7693 0.5355
32.7200 21.7826 0.5377
32.7400 21.7959 0.5470
32.7600 21.8093 0.5316
32.7800 21.8226 0.5324
32.8000 21.8360 0.5430
32.8200 21.8493 0.5290
32.8400 21.8627 0.5350
32.8600 21.8761 0.5361
32.8800 21.8894 0.5261
32.9000 21.9027 0.5303
32.9200 21.9160 0.5324
32.9400 21.9294 0.5260
32.9600 21.9427 0.5310
32.9800 21.9560 0.5293
33.0000 21.9693 0.5243
33.0200 21.9827 0.5320
33.0400 21.9960 0.5257
33.0600 22.0094 0.5178
33.0800 22.0227 0.5287
33.1000 22.0360 0.5245
33.1200 22.0493 0.5181
33.1400 22.0626 0.5263
33.1600 22.0760 0.5200
33.1800 22.0893 0.5173
33.2000 22.1027 0.5191
33.2200 22.1161 0.5208
33.2400 22.1294 0.5117
33.2600 22.1427 0.5234
33.2800 22.1560 0.5158
33.3000 22.1694 0.5099
33.3200 22.1827 0.5179
33.3400 22.1960 0.5130
33.3600 22.2093 0.5085
33.3800 22.2226 0.5173
33.4000 22.2360 0.5010
33.4200 22.2493 0.5059
33.4400 22.2626 0.5154
33.4600 22.2760 0.5049
33.4800 22.2893 0.5004
33.5000 22.3027 0.5095
33.5200 22.3160 0.5006
33.5400 22.3293 0.4989
33.5600 22.3427 0.5080
33.5800 22.3560 0.5037
33.6000 22.3694 0.4979
33.6200 22.3827 0.4986
33.6400 22.3960 0.5035
33.6600 22.4094 0.4980
33.6800 22.4227 0.4931
33.7000 22.4360 0.5058
33.7200 22.4494 0.4898
33.7400 22.4627 0.4934
33.7600 22.4761 0.5011
33.7800 22.4894 0.4866
33.8000 22.5026 0.4982
33.8200 22.5159 0.4935
33.8400 22.5293 0.4844
33.8600 22.5426 0.4961
33.8800 22.5559 0.4932
33.9000 22.5693 0.4765
33.9200 22.5827 0.4964
33.9400 22.5961 0.4902
33.9600 22.6094 0.4712
33.9800 22.6227 0.4883
34.0000 22.6361 0.4876
34.0200 22.6494 0.4749
34.0400 22.6628 0.4896
34.0600 22.6761 0.4771
34.0800 22.6894 0.4761
34.1000 22.7027 0.4873
34.1200 22.7160 0.4716
34.1400 22.7293 0.4706
34.1600 22.7426 0.4858
34.1800 22.7559 0.4756
34.2000 22.7693 0.4654
34.2200 22.7826 0.4762
34.2400 22.7960 0.4667
34.2600 22.8093 0.4702
34.2800 22.8227 0.4744
34.3000 22.8361 0.4599
34.3200 22.8494 0.4628
34.3400 22.8627 0.4697
34.3600 22.8761 0.4612
34.3800 22.8894 0.4665
34.4000 22.9028 0.4658
34.4200 22.9160 0.4580
34.4400 22.9293 0.4570
34.4600 22.9426 0.4642
34.4800 22.9560 0.4546
34.5000 22.9693 0.4572
34.5200 22.9826 0.4557
34.5400 22.9959 0.4493
34.5600 23.0093 0.4564
34.5800 23.0226 0.4591
34.6000 23.0360 0.4465
34.6200 23.0493 0.4562
34.6400 23.0626 0.4558
34.6600 23.0760 0.4435
34.6800 23.0894 0.4490
34.7000 23.1027 0.4529
34.7200 23.1160 0.4489
34.7400 23.1294 0.4459
34.7600 23.1427 0.4478
34.7800 23.1560 0.4397
34.8000 23.1694 0.4470
34.8200 23.1827 0.4462
34.8400 23.1960 0.4378
34.8600 23.2094 0.4461
34.8800 23.2226 0.4421
34.9000 23.2359 0.4346
34.9200 23.2493 0.4433
34.9400 23.2626 0.4377
34.9600 23.2760 0.4372
34.9800 23.2893 0.4380
35.0000 23.3027 0.4359
35.0200 23.3161 0.4291
35.0400 23.3294 0.4394
35.0600 23.3427 0.4311
35.0800 23.3560 0.4297
35.1000 23.3694 0.4388
35.1200 23.3827 0.4277
35.1400 23.3960 0.4285
35.1600 23.4093 0.4368
35.1800 23.4226 0.4296
35.2000 23.4360 0.4278
35.2200 23.4493 0.4286
35.2400 23.4626 0.4271
35.2600 23.4760 0.4278
35.2800 23.4893 0.4261
35.3000 23.5027 0.4204
35.3200 23.5160 0.4229
35.3400 23.5293 0.4256
35.3600 23.5427 0.4212
35.3800 23.5560 0.4244
35.4000 23.5694 0.4178
35.4200 23.5827 0.4146
35.4400 23.5960 0.4185
35.4600 23.6094 0.4206
35.4800 23.6228 0.4159
35.5000 23.6361 0.4126
35.5200 23.6494 0.4166
35.5400 23.6627 0.4132
35.5600 23.6760 0.4088
35.5800 23.6893 0.4152
35.6000 23.7027 0.4067
35.6200 23.7160 0.4088
35.6400 23.7293 0.4054
35.6600 23.7426 0.4114
35.6800 23.7560 0.4077
35.7000 23.7693 0.4023
35.7200 23.7827 0.4038
35.7400 23.7960 0.4029
35.7600 23.8094 0.3998
35.7800 23.8227 0.4020
35.8000 23.8360 0.4017
35.8200 23.8494 0.4008
35.8400 23.8627 0.3967
35.8600 23.8760 0.3982
35.8800 23.8894 0.3985
35.9000 23.9027 0.3956
35.9200 23.9160 0.3881
35.9400 23.9293 0.3953
35.9600 23.9426 0.3953
35.9800 23.9559 0.3893
36.0000 23.9692 0.3923
36.0200 23.9826 0.3879
36.0400 23.9959 0.3880
36.0600 24.0093 0.3893
36.0800 24.0227 0.3848
36.1000 24.0360 0.3807
36.1200 24.0494 0.3891
36.1400 24.0628 0.3763
36.1600 24.0761 0.3798
36.1800 24.0894 0.3872
36.2000 24.1028 0.3738
36.2200 24.1161 0.3782
36.2400 24.1293 0.3837
36.2600 24.1426 0.3717
36.2800 24.1559 0.3770
36.3000 24.1693 0.3763
36.3200 24.1826 0.3717
36.3400 24.1959 0.3708
36.3600 24.2093 0.3754
36.3800 24.2227 0.3664
36.4000 24.2360 0.3674
36.4200 24.2494 0.3689
36.4400 24.2627 0.3718
36.4600 24.2761 0.3627
36.4800 24.2894 0.3608
36.5000 24.3027 0.3671
36.5200 24.3160 0.3634
36.5400 24.3294 0.3644
36.5600 24.3427 0.3664
36.5800 24.3561 0.3611
36.6000 24.3693 0.3595
36.6200 24.3827 0.3671
36.6400 24.3960 0.3565
36.6600 24.4093 0.3614
36.6800 24.4226 0.3676
36.7000 24.4360 0.3537
36.7200 24.4493 0.3539
36.7400 24.4627 0.3627
36.7600 24.4760 0.3462
36.7800 24.4893 0.3585
36.8000 24.5027 0.3583
36.8200 24.5160 0.3470
36.8400 24.5294 0.3558
36.8600 24.5427 0.3516
36.8800 24.5560 0.3453
36.9000 24.5694 0.3546
36.9200 24.5827 0.3480
36.9400 24.5961 0.3410
36.9600 24.6094 0.3529
36.9800 24.6227 0.3491
37.0000 24.6360 0.3384
37.0200 24.6494 0.3515
37.0400 24.6627 0.3439
37.0600 24.6760 0.3423
37.0800 24.6893 0.3461
37.1000 24.7026 0.3382
37.1200 24.7160 0.3435
37.1400 24.7293 0.3399
37.1600 24.7426 0.3380
37.1800 24.7560 0.3421
37.2000 24.7694 0.3393
37.2200 24.7827 0.3364
37.2400 24.7961 0.3375
37.2600 24.8094 0.3321
37.2800 24.8227 0.3379
37.3000 24.8360 0.3374
37.3200 24.8493 0.3336
37.3400 24.8626 0.3392
37.3600 24.8760 0.3334
37.3800 24.8894 0.3271
37.4000 24.9027 0.3398
37.4200 24.9160 0.3258
37.4400 24.9293 0.3305
37.4600 24.9426 0.3343
37.4800 24.9560 0.3211
37.5000 24.9693 0.3271
37.5200 24.9826 0.3337
37.5400 24.9960 0.3236
37.5600 25.0094 0.3253
37.5800 25.0227 0.3248
37.6000 25.0360 0.3220
37.6200 25.0494 0.3232
37.6400 25.0627 0.3192
37.6600 25.0761 0.3179
37.6800 25.0894 0.3212
37.7000 25.1027 0.3202
37.7200 25.1160 0.3167
37.7400 25.1294 0.3209
37.7600 25.1427 0.3149
37.7800 25.1560 0.3130
37.8000 25.1693 0.3171
37.8200 25.1826 0.3161
37.8400 25.1960 0.3083
37.8600 25.2093 0.3162
37.8800 25.2227 0.3149
37.9000 25.2360 0.3054
37.9200 25.2494 0.3045
37.9400 25.2628 0.3138
37.9600 25.2761 0.3059
37.9800 25.2894 0.3135
38.0000 25.3027 0.3062
38.0200 25.3161 0.3013
38.0400 25.3294 0.3065
38.0600 25.3427 0.3114
38.0800 25.3560 0.3021
38.1000 25.3694 0.3059
38.1200 25.3827 0.3015
38.1400 25.3959 0.3028
38.1600 25.4093 0.3050
38.1800 25.4226 0.3041
38.2000 25.4360 0.2987
38.2200 25.4493 0.2969
38.2400 25.4626 0.3062
38.2600 25.4760 0.2988
38.2800 25.4894 0.2956
38.3000 25.5027 0.3028
38.3200 25.5160 0.2936
38.3400 25.5294 0.2950
38.3600 25.5427 0.3032
38.3800 25.5561 0.2927
38.4000 25.5694 0.2918
38.4200 25.5826 0.3003
38.4400 25.5960 0.2911
38.4600 25.6093 0.2875
38.4800 25.6226 0.3009
38.5000 25.6360 0.2897
38.5200 25.6493 0.2874
38.5400 25.6627 0.2989
38.5600 25.6760 0.2874
38.5800 25.6894 0.2855
38.6000 25.7027 0.2996
38.6200 25.7160 0.2871
38.6400 25.7294 0.2862
38.6600 25.7427 0.2944
38.6800 25.7560 0.2861
38.7000 25.7693 0.2850
38.7200 25.7827 0.2954
38.7400 25.7960 0.2853
38.7600 25.8094 0.2844
38.7800 25.8227 0.2914
38.8000 25.8360 0.2841
38.8200 25.8494 0.2836
38.8400 25.8627 0.2887
38.8600 25.8760 0.2814
38.8800 25.8893 0.2763
38.9000 25.9026 0.2854
38.9200 25.9160 0.2787
38.9400 25.9293 0.2759
38.9600 25.9426 0.2850
38.9800 25.9560 0.2757
39.0000 25.9694 0.2741
39.0200 25.9827 0.2766
39.0400 25.9960 0.2691
39.0600 26.0093 0.2725
39.0800 26.0227 0.2746
39.1000 26.0361 0.2692
39.1200 26.0494 0.2625
39.1400 26.0627 0.2734
39.1600 26.0760 0.2624
39.1800 26.0894 0.2668
39.2000 26.1027 0.2661
39.2200 26.1160 0.2601
39.2400 26.1293 0.2621
39.2600 26.1426 0.2650
39.2800 26.1559 0.2532
39.3000 26.1693 0.2607
39.3200 26.1826 0.2631
39.3400 26.1960 0.2522
39.3600 26.2094 0.2498
39.3800 26.2228 0.2569
39.4000 26.2361 0.2509
39.4200 26.2494 0.2531
39.4400 26.2627 0.2561
39.4600 26.2761 0.2485
39.4800 26.2894 0.2538
39.5000 26.3027 0.2527
39.5200 26.3160 0.2447
39.5400 26.3293 0.2496
39.5600 26.3427 0.2498
39.5800 26.3560 0.2416
39.6000 26.3693 0.2481
39.6200 26.3826 0.2484
39.6400 26.3960 0.2399
39.6600 26.4094 0.2402
39.6800 26.4227 0.2459
39.7000 26.4360 0.2381
39.7200 26.4494 0.2422
39.7400 26.4627 0.2370
39.7600 26.4760 0.2366
39.7800 26.4894 0.2395
39.8000 26.5027 0.2352
39.8200 26.5161 0.2364
39.8400 26.5294 0.2364
39.8600 26.5427 0.2344
39.8800 26.5560 0.2363
39.9000 26.5693 0.2341
39.9200 26.5827 0.2349
39.9400 26.5959 0.2347
39.9600 26.6092 0.2323
39.9800 26.6226 0.2292
40.0000 26.6359 0.2331
40.0200 26.6493 0.2289
40.0400 26.6626 0.2309
40.0600 26.6760 0.2271
40.0800 26.6894 0.2223
40.1000 26.7028 0.2264
40.1200 26.7161 0.2256
40.1400 26.7294 0.2255
40.1600 26.7427 0.2251
40.1800 26.7561 0.2182
40.2000 26.7694 0.2197
40.2200 26.7827 0.2265
40.2400 26.7960 0.2128
40.2600 26.8093 0.2235
40.2800 26.8227 0.2193
40.3000 26.8360 0.2122
40.3200 26.8493 0.2162
40.3400 26.8626 0.2202
40.3600 26.8760 0.2104
40.3800 26.8893 0.2151
40.4000 26.9026 0.2148
40.4200 26.9160 0.2042
40.4400 26.9294 0.2113
40.4600 26.9427 0.2096
40.4800 26.9560 0.2020
40.5000 26.9694 0.2125
40.5200 26.9827 0.2013
40.5400 26.9961 0.2010
40.5600 27.0094 0.2095
40.5800 27.0227 0.1997
40.6000 27.0360 0.1991
40.6200 27.0493 0.2056
40.6400 27.0627 0.2007
40.6600 27.0760 0.1918
40.6800 27.0893 0.2013
40.7000 27.1026 0.1976
40.7200 27.1160 0.1965
40.7400 27.1293 0.1931
40.7600 27.1427 0.1968
40.7800 27.1560 0.1990
40.8000 27.1693 0.1911
40.8200 27.1827 0.1864
40.8400 27.1960 0.1937
40.8600 27.2093 0.1956
40.8800 27.2227 0.1835
40.9000 27.2361 0.1884
40.9200 27.2494 0.1936
40.9400 27.2627 0.1833
40.9600 27.2760 0.1910
40.9800 27.2894 0.1873
41.0000 27.3027 0.1869
41.0200 27.3160 0.1827
41.0400 27.3293 0.1838
41.0600 27.3426 0.1876
41.0800 27.3559 0.1840
41.1000 27.3693 0.1790
41.1200 27.3826 0.1803
41.1400 27.3960 0.1853
41.1600 27.4094 0.1795
41.1800 27.4228 0.1781
41.2000 27.4361 0.1798
41.2200 27.4494 0.1802
41.2400 27.4627 0.1798
41.2600 27.4761 0.1784
41.2800 27.4894 0.1792
41.3000 27.5027 0.1752
41.3200 27.5160 0.1785
41.3400 27.5293 0.1834
41.3600 27.5427 0.1710
41.3800 27.5560 0.1812
41.4000 27.5693 0.1802
41.4200 27.5826 0.1746
41.4400 27.5960 0.1743
41.4600 27.6093 0.1788
41.4800 27.6226 0.1707
41.5000 27.6360 0.1759
41.5200 27.6494 0.1769
41.5400 27.6627 0.1706
41.5600 27.6761 0.1752
41.5800 27.6894 0.1754
41.6000 27.7027 0.1698
41.6200 27.7161 0.1762
41.6400 27.7294 0.1730
41.6600 27.7427 0.1683
41.6800 27.7560 0.1749
41.7000 27.7693 0.1781
41.7200 27.7827 0.1641
41.7400 27.7960 0.1761
41.7600 27.8093 0.1743
41.7800 27.8226 0.1617
41.8000 27.8360 0.1696
41.8200 27.8493 0.1696
41.8400 27.8627 0.1610
41.8600 27.8760 0.1662
41.8800 27.8894 0.1694
41.9000 27.9027 0.1579
41.9200 27.9161 0.1640
41.9400 27.9294 0.1704
41.9600 27.9427 0.1506
41.9800 27.9561 0.1589
42.0000 27.9694 0.1669
42.0200 27.9827 0.1443
42.0400 27.9960 0.1624
42.0600 28.0093 0.1577
42.0800 28.0227 0.1442
42.1000 28.0360 0.1548
42.1200 28.0493 0.1567
42.1400 28.0626 0.1418
42.1600 28.0760 0.1519
42.1800 28.0893 0.1544
42.2000 28.1027 0.1386
42.2200 28.1160 0.1495
42.2400 28.1294 0.1485
42.2600 28.1428 0.1348
42.2800 28.1561 0.1487
42.3000 28.1694 0.1469
42.3200 28.1827 0.1339
42.3400 28.1960 0.1464
42.3600 28.2094 0.1466
42.3800 28.2226 0.1325
42.4000 28.2359 0.1390
42.4200 28.2493 0.1460
42.4400 28.2627 0.1255
42.4600 28.2760 0.1382
42.4800 28.2893 0.1436
42.5000 28.3026 0.1265
42.5200 28.3160 0.1340
42.5400 28.3293 0.1391
42.5600 28.3426 0.1210
42.5800 28.3560 0.1332
42.6000 28.3693 0.1367
42.6200 28.3827 0.1198
42.6400 28.3960 0.1267
42.6600 28.4094 0.1349
42.6800 28.4227 0.1178
42.7000 28.4361 0.1296
42.7200 28.4494 0.1324
42.7400 28.4627 0.1140
42.7600 28.4760 0.1263
42.7800 28.4893 0.1334
42.8000 28.5027 0.1143
42.8200 28.5160 0.1226
42.8400 28.5293 0.1294
42.8600 28.5426 0.1140
42.8800 28.5560 0.1173
42.9000 28.5693 0.1296
42.9200 28.5827 0.1164
42.9400 28.5960 0.1186
42.9600 28.6093 0.1264
42.9800 28.6227 0.1136
43.0000 28.6360 0.1137
43.0200 28.6493 0.1235
43.0400 28.6627 0.1173
43.0600 28.6760 0.1118
43.0800 28.6894 0.1220
43.1000 28.7027 0.1145
43.1200 28.7160 0.1140
43.1400 28.7293 0.1206
43.1600 28.7427 0.1148
43.1800 28.7560 0.1122
43.2000 28.7693 0.1220
43.2200 28.7826 0.1122
43.2400 28.7959 0.1125
43.2600 28.8093 0.1114
43.2800 28.8226 0.1152
43.3000 28.8359 0.1115
43.3200 28.8493 0.1133
43.3400 28.8627 0.1072
43.3600 28.8761 0.1118
43.3800 28.8894 0.1139
43.4000 28.9028 0.1053
43.4200 28.9161 0.1088
43.4400 28.9294 0.1116
43.4600 28.9427 0.1039
43.4800 28.9560 0.1092
43.5000 28.9693 0.1098
43.5200 28.9826 0.1040
43.5400 28.9960 0.1046
43.5600 29.0093 0.1054
43.5800 29.0226 0.1026
43.6000 29.0360 0.1058
43.6200 29.0493 0.1083
43.6400 29.0627 0.0992
43.6600 29.0760 0.0989
43.6800 29.0894 0.1109
43.7000 29.1028 0.1023
43.7200 29.1161 0.0922
43.7400 29.1294 0.1107
43.7600 29.1427 0.0980
43.7800 29.1560 0.0950
43.8000 29.1694 0.1075
43.8200 29.1827 0.0931
43.8400 29.1960 0.0949
43.8600 29.2093 0.1107
43.8800 29.2227 0.0865
43.9000 29.2360 0.0957
43.9200 29.2493 0.1113
43.9400 29.2626 0.0856
43.9600 29.2759 0.0961
43.9800 29.2893 0.1058
44.0000 29.3027 0.0860
44.0200 29.3160 0.0961
44.0400 29.3294 0.1028
44.0600 29.3427 0.0869
44.0800 29.3561 0.0999
44.1000 29.3694 0.1001
44.1200 29.3827 0.0834
44.1400 29.3960 0.0948
44.1600 29.4094 0.0951
44.1800 29.4227 0.0837
44.2000 29.4360 0.0928
44.2200 29.4493 0.0930
44.2400 29.4627 0.0837
44.2600 29.4760 0.0888
44.2800 29.4893 0.0907
44.3000 29.5026 0.0824
44.3200 29.5159 0.0900
44.3400 29.5293 0.0864
44.3600 29.5427 0.0830
44.3800 29.5560 0.0841
44.4000 29.5693 0.0930
44.4200 29.5827 0.0809
44.4400 29.5961 0.0804
44.4600 29.6094 0.0822
44.4800 29.6227 0.0808
44.5000 29.6360 0.0788
44.5200 29.6494 0.0832
44.5400 29.6627 0.0755
44.5600 29.6760 0.0774
44.5800 29.6893 0.0839
44.6000 29.7027 0.0716
44.6200 29.7160 0.0756
44.6400 29.7293 0.0833
44.6600 29.7426 0.0670
44.6800 29.7560 0.0711
44.7000 29.7693 0.0786
44.7200 29.7826 0.0652
44.7400 29.7960 0.0715
44.7600 29.8093 0.0727
44.7800 29.8227 0.0632
44.8000 29.8361 0.0682
44.8200 29.8494 0.0710
44.8400 29.8627 0.0601
44.8600 29.8760 0.0645
44.8800 29.8894 0.0643
44.9000 29.9027 0.0570
44.9200 29.9160 0.0647
44.9400 29.9293 0.0634
44.9600 29.9427 0.0486
44.9800 29.9560 0.0628
45.0000 29.9693 0.0556
45.0200 29.9826 0.0566
45.0400 29.9960 0.0611
45.0600 30.0093 0.0519
45.0800 30.0226 0.0533
45.1000 30.0360 0.0566
45.1200 30.0494 0.0496
45.1400 30.0627 0.0518
45.1600 30.0761 0.0508
45.1800 30.0894 0.0498
45.2000 30.1027 0.0555
45.2200 30.1160 0.0510
45.2400 30.1294 0.0471
45.2600 30.1427 0.0570
45.2800 30.1560 0.0457
45.3000 30.1693 0.0429
45.3200 30.1826 0.0573
45.3400 30.1960 0.0425
45.3600 30.2093 0.0435
45.3800 30.2226 0.0469
45.4000 30.2359 0.0400
45.4200 30.2493 0.0417
45.4400 30.2626 0.0467
45.4600 30.2760 0.0387
45.4800 30.2893 0.0434
45.5000 30.3027 0.0456
45.5200 30.3161 0.0306
45.5400 30.3294 0.0365
45.5600 30.3427 0.0450
45.5800 30.3561 0.0331
45.6000 30.3694 0.0342
45.6200 30.3827 0.0340
45.6400 30.3960 0.0344
45.6600 30.4093 0.0357
45.6800 30.4226 0.0372
45.7000 30.4360 0.0313
45.7200 30.4493 0.0319
45.7400 30.4626 0.0364
45.7600 30.4760 0.0289
45.7800 30.4893 0.0301
45.8000 30.5027 0.0396
45.8200 30.5160 0.0299
45.8400 30.5293 0.0219
45.8600 30.5427 0.0340
45.8800 30.5560 0.0309
45.9000 30.5693 0.0239
45.9200 30.5827 0.0312
45.9400 30.5960 0.0265
45.9600 30.6094 0.0254
45.9800 30.6227 0.0290
46.0000 30.6361 0.0257
46.0200 30.6494 0.0264
46.0400 30.6627 0.0215
46.0600 30.6761 0.0275
46.0800 30.6894 0.0192
46.1000 30.7026 0.0253
46.1200 30.7160 0.0245
46.1400 30.7293 0.0144
46.1600 30.7426 0.0232
46.1800 30.7560 0.0254
46.2000 30.7693 0.0105
46.2200 30.7827 0.0235
46.2400 30.7960 0.0244
46.2600 30.8094 0.0132
46.2800 30.8227 0.0132
46.3000 30.8360 0.0224
46.3200 30.8494 0.0119
46.3400 30.8628 0.0162
46.3600 30.8761 0.0212
46.3800 30.8894 0.0052
46.4000 30.9027 0.0171
46.4200 30.9161 0.0184
46.4400 30.9294 0.0000
46.4600 30.9427 0.0171
46.4800 30.9559 0.0205
46.5000 30.9693 0.0036
46.5200 30.9826 0.0136
46.5400 30.9960 0.0135
46.5600 31.0093 0.0077
46.5800 31.0227 0.0091
46.6000 31.0361 0.0100
46.6200 31.0494 0.0025
46.6400 31.0627 0.0154
46.6600 31.0760 0.0059
46.6800 31.0894 0.0044
46.7000 31.1027 0.0112
46.7200 31.1160 0.0086
46.7400 31.1293 0.0053
46.7600 31.1427 0.0091
46.7800 31.1560 0.0085
46.8000 31.1693 0.0076
46.8200 31.1826 0.0033
46.8400 31.1960 0.0077
46.8600 31.2093 0.0043
46.8800 31.2227 0.0020
46.9000 31.2360 0.0021
46.9200 31.2493 0.0068
46.9400 31.2627 0.0007
46.9600 31.2760 0.0050
46.9800 31.2894 0.0041
47.0000 31.3027 -0.0030
47.0200 31.3160 0.0093
47.0400 31.3294 0.0038
47.0600 31.3427 -0.0036
47.0800 31.3560 0.0056
47.1000 31.3693 0.0018
47.1200 31.3827 -0.0037
47.1400 31.3960 0.0065
47.1600 31.4093 -0.0031
47.1800 31.4226 -0.0007
47.2000 31.4359 0.0026
47.2200 31.4493 -0.0062
47.2400 31.4626 -0.0081
47.2600 31.4760 0.0049
47.2800 31.4893 -0.0107
47.3000 31.5027 -0.0042
47.3200 31.5161 0.0012
47.3400 31.5294 -0.0110
47.3600 31.5427 -0.0108
47.3800 31.5560 0.0021
47.4000 31.5694 -0.0127
47.4200 31.5827 -0.0109
47.4400 31.5960 -0.0014
47.4600 31.6093 -0.0160
47.4800 31.6227 -0.0141
47.5000 31.6360 -0.0056
47.5200 31.6493 -0.0174
47.5400 31.6627 -0.0176
47.5600 31.6760 -0.0076
47.5800 31.6893 -0.0185
47.6000 31.7026 -0.0204
47.6200 31.7160 -0.0093
47.6400 31.7293 -0.0193
47.6600 31.7427 -0.0194
47.6800 31.7561 -0.0115
47.7000 31.7694 -0.0235
47.7200 31.7827 -0.0196
47.7400 31.7960 -0.0123
47.7600 31.8094 -0.0279
47.7800 31.8227 -0.0192
47.8000 31.8361 -0.0098
47.8200 31.8493 -0.0314
47.8400 31.8626 -0.0181
47.8600 31.8760 -0.0134
47.8800 31.8893 -0.0305
47.9000 31.9026 -0.0200
47.9200 31.9160 -0.0156
47.9400 31.9293 -0.0328
47.9600 31.9426 -0.0152
47.9800 31.9560 -0.0251
48.0000 31.9693 -0.0305
48.0200 31.9826 -0.0186
48.0400 31.9960 -0.0255
48.0600 32.0094 -0.0297
48.0800 32.0227 -0.0182
48.1000 32.0360 -0.0228
48.1200 32.0493 -0.0279
48.1400 32.0627 -0.0270
48.1600 32.0760 -0.0294
48.1800 32.0894 -0.0250
48.2000 32.1027 -0.0288
48.2200 32.1161 -0.0308
48.2400 32.1294 -0.0309
48.2600 32.1427 -0.0296
48.2800 32.1559 -0.0304
48.3000 32.1693 -0.0302
48.3200 32.1826 -0.0384
48.3400 32.1959 -0.0335
48.3600 32.2093 -0.0351
48.3800 32.2227 -0.0414
48.4000 32.2361 -0.0364
48.4200 32.2494 -0.0427
48.4400 32.2627 -0.0468
48.4600 32.2761 -0.0315
48.4800 32.2894 -0.0485
48.5000 32.3028 -0.0412
48.5200 32.3161 -0.0365
48.5400 32.3294 -0.0490
48.5600 32.3427 -0.0459
48.5800 32.3560 -0.0381
48.6000 32.3693 -0.0515
48.6200 32.3826 -0.0470
48.6400 32.3959 -0.0466
48.6600 32.4093 -0.0559
48.6800 32.4226 -0.0464
48.7000 32.4360 -0.0488
48.7200 32.4493 -0.0545
48.7400 32.4627 -0.0478
48.7600 32.4760 -0.0530
48.7800 32.4894 -0.0556
48.8000 32.5027 -0.0494
48.8200 32.5161 -0.0533
48.8400 32.5294 -0.0528
48.8600 32.5428 -0.0577
48.8800 32.5561 -0.0588
48.9000 32.5693 -0.0546
48.9200 32.5826 -0.0593
48.9400 32.5960 -0.0565
48.9600 32.6093 -0.0533
48.9800 32.6227 -0.0637
49.0000 32.6360 -0.0532
49.0200 32.6493 -0.0572
49.0400 32.6627 -0.0638
49.0600 32.6760 -0.0553
49.0800 32.6893 -0.0584
49.1000 32.7027 -0.0670
49.1200 32.7160 -0.0521
49.1400 32.7294 -0.0606
49.1600 32.7427 -0.0681
49.1800 32.7560 -0.0582
49.2000 32.7694 -0.0632
49.2200 32.7827 -0.0680
49.2400 32.7960 -0.0553
49.2600 32.8094 -0.0707
49.2800 32.8227 -0.0660
49.3000 32.8360 -0.0596
49.3200 32.8494 -0.0692
49.3400 32.8626 -0.0675
49.3600 32.8759 -0.0597
49.3800 32.8893 -0.0719
49.4000 32.9026 -0.0667
49.4200 32.9160 -0.0644
49.4400 32.9293 -0.0748
49.4600 32.9427 -0.0633
49.4800 32.9561 -0.0660
49.5000 32.9694 -0.0720
49.5200 32.9827 -0.0747
49.5400 32.9960 -0.0678
49.5600 33.0094 -0.0726
49.5800 33.0227 -0.0744
49.6000 33.0360 -0.0744
49.6200 33.0493 -0.0666
49.6400 33.0626 -0.0773
49.6600 33.0760 -0.0775
49.6800 33.0893 -0.0698
49.7000 33.1027 -0.0805
49.7200 33.1160 -0.0824
49.7400 33.1293 -0.0676
49.7600 33.1426 -0.0870
49.7800 33.1560 -0.0764
49.8000 33.1693 -0.0723
49.8200 33.1826 -0.0898
49.8400 33.1960 -0.0765
49.8600 33.2094 -0.0759
49.8800 33.2227 -0.0897
49.9000 33.2360 -0.0761
49.9200 33.2494 -0.0790
49.9400 33.2628 -0.0898
49.9600 33.2761 -0.0820
49.9800 33.2894 -0.0846
50.0000 33.3027 -0.0899
50.0200 33.3160 -0.0809
50.0400 33.3294 -0.0858
50.0600 33.3427 -0.0939
50.0800 33.3560 -0.0797
50.1000 33.3693 -0.0900
50.1200 33.3826 -0.0913
50.1400 33.3960 -0.0886
50.1600 33.4093 -0.0923
50.1800 33.4227 -0.0911
50.2000 33.4360 -0.0902
50.2200 33.4494 -0.0992
50.2400 33.4627 -0.0931
50.2600 33.4760 -0.0954
50.2800 33.4894 -0.0980
50.3000 33.5027 -0.0975
50.3200 33.5160 -0.0973
50.3400 33.5294 -0.0958
50.3600 33.5427 -0.0950
50.3800 33.5560 -0.1060
50.4000 33.5694 -0.0988
50.4200 33.5827 -0.1023
50.4400 33.5960 -0.1065
50.4600 33.6093 -0.0936
50.4800 33.6226 -0.1051
50.5000 33.6359 -0.1119
50.5200 33.6493 -0.0967
50.5400 33.6626 -0.1004
50.5600 33.6760 -0.1140
50.5800 33.6894 -0.0978
50.6000 33.7028 -0.1110
50.6200 33.7161 -0.1115
50.6400 33.7294 -0.1026
50.6600 33.7427 -0.1108
50.6800 33.7561 -0.1103
50.7000 33.7693 -0.1084
50.7200 33.7826 -0.1127
50.7400 33.7959 -0.1089
50.7600 33.8093 -0.1143
50.7800 33.8226 -0.1104
50.8000 33.8360 -0.1166
50.8200 33.8493 -0.1079
50.8400 33.8627 -0.1156
50.8600 33.8760 -0.1178
50.8800 33.8894 -0.1110
50.9000 33.9027 -0.1133
50.9200 33.9161 -0.1173
50.9400 33.9294 -0.1117
50.9600 33.9427 -0.1182
50.9800 33.9560 -0.1171
51.0000 33.9693 -0.1111
51.0200 33.9827 -0.1202
51.0400 33.9960 -0.1203
51.0600 34.0093 -0.1099
51.0800 34.0226 -0.1238
51.1000 34.0360 -0.1231
51.1200 34.0493 -0.1142
51.1400 34.0627 -0.1249
51.1600 34.0760 -0.1205
51.1800 34.0893 -0.1178
51.2000 34.1026 -0.1209
51.2200 34.1160 -0.1262
51.2400 34.1293 -0.1204
51.2600 34.1427 -0.1255
51.2800 34.1560 -0.1249
51.3000 34.1694 -0.1243
51.3200 34.1827 -0.1254
51.3400 34.1960 -0.1293
51.3600 34.2094 -0.1287
51.3800 34.2227 -0.1250
51.4000 34.2361 -0.1297
51.4200 34.2494 -0.1337
51.4400 34.2627 -0.1257
51.4600 34.2760 -0.1348
51.4800 34.2894 -0.1330
51.5000 34.3027 -0.1316
51.5200 34.3160 -0.1355
51.5400 34.3293 -0.1299
51.5600 34.3426 -0.1338
51.5800 34.3560 -0.1430
51.6000 34.3693 -0.1344
51.6200 34.3827 -0.1354
51.6400 34.3960 -0.1395
51.6600 34.4094 -0.1355
51.6800 34.4227 -0.1349
51.7000 34.4361 -0.1429
51.7200 34.4494 -0.1385
51.7400 34.4627 -0.1430
51.7600 34.4760 -0.1418
51.7800 34.4893 -0.1373
51.8000 34.5026 -0.1432
51.8200 34.5159 -0.1409
51.8400 34.5293 -0.1422
51.8600 34.5427 -0.1420
51.8800 34.5560 -0.1471
51.9000 34.5693 -0.1439
51.9200 34.5827 -0.1449
51.9400 34.5960 -0.1480
51.9600 34.6093 -0.1450
51.9800 34.6226 -0.1460
52.0000 34.6360 -0.1502
52.0200 34.6493 -0.1471
52.0400 34.6627 -0.1453
52.0600 34.6760 -0.1490
52.0800 34.6894 -0.1538
52.1000 34.7027 -0.1444
52.1200 34.7161 -0.1534
52.1400 34.7294 -0.1544
52.1600 34.7427 -0.1415
52.1800 34.7560 -0.1512
52.2000 34.7693 -0.1531
52.2200 34.7827 -0.1441
52.2400 34.7960 -0.1549
52.2600 34.8093 -0.1523
52.2800 34.8226 -0.1454
52.3000 34.8360 -0.1561
52.3200 34.8493 -0.1541
52.3400 34.8627 -0.1413
52.3600 34.8760 -0.1565
52.3800 34.8894 -0.1528
52.4000 34.9028 -0.1442
52.4200 34.9160 -0.1600
52.4400 34.9293 -0.1482
52.4600 34.9427 -0.1463
52.4800 34.9561 -0.1571
52.5000 34.9694 -0.1482
52.5200 34.9827 -0.1469
52.5400 34.9960 -0.1586
52.5600 35.0093 -0.1489
52.5800 35.0227 -0.1530
52.6000 35.0360 -0.1575
52.6200 35.0493 -0.1467
52.6400 35.0626 -0.1556
52.6600 35.0760 -0.1666
52.6800 35.0893 -0.1534
52.7000 35.1026 -0.1554
52.7200 35.1160 -0.1610
52.7400 35.1294 -0.1536
52.7600 35.1427 -0.1562
52.7800 35.1560 -0.1625
52.8000 35.1694 -0.1631
52.8200 35.1827 -0.1551
52.8400 35.1961 -0.1660
52.8600 35.2094 -0.1670
52.8800 35.2226 -0.1565
52.9000 35.2359 -0.1696
52.9200 35.2493 -0.1710
52.9400 35.2626 -0.1561
52.9600 35.2760 -0.1725
52.9800 35.2893 -0.1762
53.0000 35.3027 -0.1561
53.0200 35.3161 -0.1776
53.0400 35.3294 -0.1782
53.0600 35.3427 -0.1600
53.0800 35.3560 -0.1776
53.1000 35.3694 -0.1764
53.1200 35.3827 -0.1675
53.1400 35.3960 -0.1840
53.1600 35.4093 -0.1779
53.1800 35.4227 -0.1660
53.2000 35.4360 -0.1858
53.2200 35.4494 -0.1758
53.2400 35.4627 -0.1748
53.2600 35.4760 -0.1858
53.2800 35.4894 -0.1800
53.3000 35.5027 -0.1750
53.3200 35.5160 -0.1876
53.3400 35.5293 -0.1819
53.3600 35.5426 -0.1809
53.3800 35.5560 -0.1857
53.4000 35.5693 -0.1862
53.4200 35.5826 -0.1810
53.4400 35.5960 -0.1846
53.4600 35.6094 -0.1912
53.4800 35.6227 -0.1833
53.5000 35.6360 -0.1872
53.5200 35.6493 -0.1903
53.5400 35.6627 -0.1840
53.5600 35.6761 -0.1901
53.5800 35.6894 -0.1966
53.6000 35.7027 -0.1850
53.6200 35.7160 -0.1894
53.6400 35.7294 -0.1946
53.6600 35.7427 -0.1880
53.6800 35.7560 -0.1873
53.7000 35.7693 -0.1970
53.7200 35.7826 -0.1874
53.7400 35.7960 -0.1938
53.7600 35.8093 -0.2013
53.7800 35.8226 -0.1864
53.8000 35.8360 -0.1949
53.8200 35.8494 -0.2034
53.8400 35.8627 -0.1931
53.8600 35.8760 -0.1979
53.8800 35.8894 -0.1992
53.9000 35.9027 -0.1914
53.9200 35.9161 -0.1962
53.9400 35.9294 -0.2033
53.9600 35.9426 -0.1927
53.9800 35.9560 -0.1929
54.0000 35.9693 -0.2076
54.0200 35.9827 -0.1983
54.0400 35.9960 -0.1957
54.0600 36.0093 -0.2041
54.0800 36.0226 -0.1969
54.1000 36.0360 -0.1995
54.1200 36.0494 -0.2051
54.1400 36.0627 -0.1982
54.1600 36.0760 -0.2006
54.1800 36.0894 -0.2034
54.2000 36.1027 -0.2057
54.2200 36.1160 -0.2005
54.2400 36.1294 -0.2092
54.2600 36.1427 -0.2062
54.2800 36.1561 -0.2017
54.3000 36.1694 -0.2108
54.3200 36.1827 -0.2073
54.3400 36.1960 -0.2041
54.3600 36.2093 -0.2141
54.3800 36.2227 -0.2106
54.4000 36.2360 -0.2097
54.4200 36.2493 -0.2109
54.4400 36.2626 -0.2103
54.4600 36.2760 -0.2153
54.4800 36.2893 -0.2168
54.5000 36.3027 -0.2133
54.5200 36.3160 -0.2198
54.5400 36.3294 -0.2188
54.5600 36.3428 -0.2220
54.5800 36.3561 -0.2247
54.6000 36.3694 -0.2221
54.6200 36.3827 -0.2254
54.6400 36.3961 -0.2224
54.6600 36.4094 -0.2235
54.6800 36.4227 -0.2293
54.7000 36.4360 -0.2286
54.7200 36.4493 -0.2241
54.7400 36.4627 -0.2318
54.7600 36.4760 -0.2294
54.7800 36.4893 -0.2293
54.8000 36.5026 -0.2330
54.8200 36.5160 -0.2389
54.8400 36.5293 -0.2338
54.8600 36.5426 -0.2366
54.8800 36.5560 -0.2315
54.9000 36.5694 -0.2333
54.9200 36.5827 -0.2452
54.9400 36.5961 -0.2380
54.9600 36.6094 -0.2345
54.9800 36.6227 -0.2440
55.0000 36.6361 -0.2377
55.0200 36.6494 -0.2403
55.0400 36.6627 -0.2790
55.0600 36.6760 -0.1280
55.0800 36.6893 -0.0620
55.1000 36.7026 -0.0652
55.1200 36.7160 -0.0681
55.1400 36.7293 -0.0695
55.1600 36.7426 -0.0852
55.1800 36.7560 -0.0670
55.2000 36.7693 -0.0740
55.2200 36.7826 -0.0824
55.2400 36.7960 -0.0673
55.2600 36.8093 -0.0730
55.2800 36.8227 -0.0803
55.3000 36.8360 -0.0656
55.3200 36.8493 -0.0760
55.3400 36.8627 -0.0800
55.3600 36.8760 -0.0664
55.3800 36.8894 -0.0742
55.4000 36.9027 -0.0787
55.4200 36.9160 -0.0643
55.4400 36.9294 -0.0809
55.4600 36.9427 -0.0783
55.4800 36.9560 -0.0666
55.5000 36.9693 -0.0775
55.5200 36.9826 -0.0778
55.5400 36.9959 -0.0713
55.5600 37.0093 -0.0761
55.5800 37.0226 -0.0757
55.6000 37.0360 -0.0742
55.6200 37.0494 -0.0770
55.6400 37.0628 -0.0723
55.6600 37.0761 -0.0776
55.6800 37.0894 -0.0774
55.7000 37.1027 -0.0769
55.7200 37.1161 -0.0744
55.7400 37.1294 -0.0763
55.7600 37.1427 -0.0817
55.7800 37.1560 -0.0750
55.8000 37.1693 -0.0736
55.8200 37.1827 -0.0845
55.8400 37.1960 -0.0772
55.8600 37.2093 -0.0747
55.8800 37.2226 -0.0836
55.9000 37.2359 -0.0782
55.9200 37.2493 -0.0797
55.9400 37.2626 -0.0873
55.9600 37.2760 -0.0759
55.9800 37.2894 -0.0821
56.0000 37.3027 -0.0844
56.0200 37.3161 -0.0818
56.0400 37.3294 -0.0791
56.0600 37.3427 -0.0899
56.0800 37.3561 -0.0777
56.1000 37.3694 -0.0802
56.1200 37.3827 -0.0913
56.1400 37.3960 -0.0848
56.1600 37.4093 -0.0809
56.1800 37.4227 -0.0906
56.2000 37.4360 -0.0847
56.2200 37.4493 -0.0789
56.2400 37.4626 -0.0950
56.2600 37.4760 -0.0864
56.2800 37.4893 -0.0800
56.3000 37.5027 -0.0943
56.3200 37.5160 -0.0869
56.3400 37.5293 -0.0792
56.3600 37.5427 -0.0986
56.3800 37.5560 -0.0910
56.4000 37.5694 -0.0832
56.4200 37.5827 -0.0952
56.4400 37.5960 -0.0971
56.4600 37.6094 -0.0820
56.4800 37.6227 -0.0972
56.5000 37.6360 -0.0980
56.5200 37.6494 -0.0831
56.5400 37.6627 -0.0980
56.5600 37.6760 -0.1007
56.5800 37.6893 -0.0806
56.6000 37.7026 -0.1009
56.6200 37.7159 -0.0957
56.6400 37.7293 -0.0824
56.6600 37.7427 -0.1059
56.6800 37.7560 -0.0998
56.7000 37.7694 -0.0813
56.7200 37.7827 -0.1033
56.7400 37.7961 -0.0965
56.7600 37.8094 -0.0873
56.7800 37.8227 -0.1069
56.8000 37.8361 -0.0951
56.8200 37.8494 -0.0878
56.8400 37.8627 -0.1104
56.8600 37.8760 -0.0928
56.8800 37.8893 -0.0859
56.9000 37.9027 -0.1117
56.9200 37.9160 -0.0961
56.9400 37.9293 -0.0852
56.9600 37.9426 -0.1088
56.9800 37.9560 -0.1021
57.0000 37.9693 -0.0923
57.0200 37.9826 -0.1102
57.0400 37.9960 -0.0977
57.0600 38.0093 -0.0953
57.0800 38.0227 -0.1066
57.1000 38.0361 -0.0996
57.1200 38.0494 -0.0960
57.1400 38.0627 -0.1075
57.1600 38.0761 -0.1028
57.1800 38.0894 -0.0999
57.2000 38.1027 -0.1090
57.2200 38.1160 -0.1104
57.2400 38.1293 -0.0968
57.2600 38.1427 -0.1112
57.2800 38.1560 -0.1084
57.3000 38.1693 -0.0972
57.3200 38.1826 -0.1120
57.3400 38.1959 -0.1123
57.3600 38.2093 -0.0971
57.3800 38.2226 -0.1135
57.4000 38.2360 -0.1124
57.4200 38.2493 -0.0944
57.4400 38.2627 -0.1161
57.4600 38.2760 -0.1141
57.4800 38.2893 -0.1021
57.5000 38.3027 -0.1135
57.5200 38.3160 -0.1148
57.5400 38.3294 -0.1030
57.5600 38.3427 -0.1141
57.5800 38.3560 -0.1173
57.6000 38.3693 -0.1047
57.6200 38.3827 -0.1130
57.6400 38.3960 -0.1149
57.6600 38.4093 -0.1026
57.6800 38.4226 -0.1205
57.7000 38.4359 -0.1165
57.7200 38.4493 -0.1081
57.7400 38.4626 -0.1131
57.7600 38.4759 -0.1223
57.7800 38.4893 -0.1100
57.8000 38.5027 -0.1144
57.8200 38.5161 -0.1205
57.8400 38.5294 -0.1136
57.8600 38.5427 -0.1161
57.8800 38.5561 -0.1214
57.9000 38.5694 -0.1100
57.9200 38.5827 -0.1188
57.9400 38.5960 -0.1219
57.9600 38.6093 -0.1096
57.9800 38.6226 -0.1181
58.0000 38.6360 -0.1266
58.0200 38.6493 -0.1123
58.0400 38.6626 -0.1224
58.0600 38.6760 -0.1300
58.0800 38.6893 -0.1095
58.1000 38.7027 -0.1233
58.1200 38.7160 -0.1294
58.1400 38.7294 -0.1148
58.1600 38.7427 -0.1242
58.1800 38.7561 -0.1333
58.2000 38.7694 -0.1154
58.2200 38.7827 -0.1301
58.2400 38.7960 -0.1282
58.2600 38.8094 -0.1160
58.2800 38.8227 -0.1282
58.3000 38.8360 -0.1315
58.3200 38.8493 -0.1179
58.3400 38.8627 -0.1334
58.3600 38.8760 -0.1304
58.3800 38.8893 -0.1227
58.4000 38.9026 -0.1294
58.4200 38.9160 -0.1333
58.4400 38.9293 -0.1236
58.4600 38.9427 -0.1361
58.4800 38.9560 -0.1302
58.5000 38.9694 -0.1219
58.5200 38.9827 -0.1350
58.5400 38.9961 -0.1387
58.5600 39.0094 -0.1241
58.5800 39.0227 -0.1354
58.6000 39.0360 -0.1340
58.6200 39.0494 -0.1278
58.6400 39.0627 -0.1398
58.6600 39.0760 -0.1389
58.6800 39.0893 -0.1284
58.7000 39.1027 -0.1386
58.7200 39.1160 -0.1428
58.7400 39.1293 -0.1326
58.7600 39.1426 -0.1414
58.7800 39.1559 -0.1419
58.8000 39.1693 -0.1362
58.8200 39.1826 -0.1417
58.8400 39.1960 -0.1473
58.8600 39.2093 -0.1362
58.8800 39.2227 -0.1462
58.9000 39.2361 -0.1466
58.9200 39.2494 -0.1378
58.9400 39.2627 -0.1420
58.9600 39.2760 -0.1501
58.9800 39.2894 -0.1385
59.0000 39.3027 -0.1448
59.0200 39.3160 -0.1472
59.0400 39.3293 -0.1399
59.0600 39.3427 -0.1460
59.0800 39.3560 -0.1467
59.1000 39.3693 -0.1439
59.1200 39.3826 -0.1461
59.1400 39.3960 -0.1455
59.1600 39.4093 -0.1470
59.1800 39.4227 -0.1486
59.2000 39.4360 -0.1498
59.2200 39.4493 -0.1441
59.2400 39.4627 -0.1519
59.2600 39.4760 -0.1515
59.2800 39.4894 -0.1472
59.3000 39.5027 -0.1581
59.3200 39.5160 -0.1515
59.3400 39.5294 -0.1523
59.3600 39.5427 -0.1555
59.3800 39.5560 -0.1529
59.4000 39.5693 -0.1567
59.4200 39.5826 -0.1581
59.4400 39.5960 -0.1518
59.4600 39.6093 -0.1598
59.4800 39.6226 -0.1585
59.5000 39.6359 -0.1538
59.5200 39.6493 -0.1577
59.5400 39.6627 -0.1641
59.5600 39.6760 -0.1524
59.5800 39.6893 -0.1609
59.6000 39.7027 -0.1594
59.6200 39.7161 -0.1600
59.6400 39.7294 -0.1660
59.6600 39.7427 -0.1570
59.6800 39.7560 -0.1611
59.7000 39.7694 -0.1676
59.7200 39.7827 -0.1587
59.7400 39.7960 -0.1573
59.7600 39.8093 -0.1733
59.7800 39.8227 -0.1583
59.8000 39.8360 -0.1637
59.8200 39.8493 -0.1759
59.8400 39.8626 -0.1577
59.8600 39.8760 -0.1631
59.8800 39.8893 -0.1739
59.9000 39.9026 -0.1609
59.9200 39.9160 -0.1680
59.9400 39.9293 -0.1718
59.9600 39.9427 -0.1640
59.9800 39.9561 -0.1708
60.0000 39.9694 -0.1739
60.0200 39.9827 -0.1615
60.0400 39.9960 -0.1802
60.0470 40.0006 -0.1980
