Raw Data
Time Displacement Force
(s) (mm) (N)
0.0000 0.0000 0.4378
0.0200 0.0001 0.4506
0.0400 0.0023 0.5209
0.0600 0.0101 0.5486
0.0800 0.0221 0.4776
0.1000 0.0346 0.4724
0.1200 0.0473 0.5025
0.1400 0.0607 0.4600
0.1600 0.0748 0.4652
0.1800 0.0889 0.4688
0.2000 0.1028 0.4418
0.2200 0.1164 0.4556
0.2400 0.1298 0.4604
0.2600 0.1430 0.4363
0.2800 0.1564 0.4565
0.3000 0.1698 0.4525
0.3200 0.1831 0.4400
0.3400 0.1965 0.4602
0.3600 0.2098 0.4577
0.3800 0.2232 0.4457
0.4000 0.2365 0.4557
0.4200 0.2498 0.4428
0.4400 0.2631 0.4439
0.4600 0.2764 0.4456
0.4800 0.2898 0.4379
0.5000 0.3031 0.4378
0.5200 0.3165 0.4383
0.5400 0.3298 0.4311
0.5600 0.3431 0.4411
0.5800 0.3565 0.4343
0.6000 0.3698 0.4276
0.6200 0.3831 0.4421
0.6400 0.3965 0.4357
0.6600 0.4099 0.4263
0.6800 0.4232 0.4364
0.7000 0.4365 0.4342
0.7200 0.4499 0.4259
0.7400 0.4632 0.4373
0.7600 0.4766 0.4285
0.7800 0.4899 0.4288
0.8000 0.5032 0.4339
0.8200 0.5165 0.4278
0.8400 0.5298 0.4248
0.8600 0.5432 0.4266
0.8800 0.5564 0.4200
0.9000 0.5697 0.4256
0.9200 0.5831 0.4237
0.9400 0.5964 0.4201
0.9600 0.6098 0.4208
0.9800 0.6231 0.4206
1.0000 0.6364 0.4155
1.0200 0.6498 0.4205
1.0400 0.6632 0.4214
1.0600 0.6765 0.4151
1.0800 0.6899 0.4170
1.1000 0.7032 0.4241
1.1200 0.7165 0.4178
1.1400 0.7299 0.4100
1.1600 0.7432 0.4255
1.1800 0.7565 0.4204
1.2000 0.7698 0.4074
1.2200 0.7832 0.4188
1.2400 0.7965 0.4096
1.2600 0.8098 0.4091
1.2800 0.8231 0.4177
1.3000 0.8365 0.4048
1.3200 0.8498 0.4073
1.3400 0.8631 0.4150
1.3600 0.8765 0.4057
1.3800 0.8898 0.4066
1.4000 0.9032 0.4201
1.4200 0.9165 0.4035
1.4400 0.9298 0.4027
1.4600 0.9432 0.4090
1.4800 0.9566 0.3991
1.5000 0.9699 0.3994
1.5200 0.9832 0.4117
1.5400 0.9965 0.4013
1.5600 1.0098 0.4054
1.5800 1.0231 0.4109
1.6000 1.0365 0.3970
1.6200 1.0498 0.3965
1.6400 1.0631 0.4134
1.6600 1.0764 0.3950
1.6800 1.0898 0.3920
1.7000 1.1031 0.4060
1.7200 1.1165 0.3942
1.7400 1.1299 0.3941
1.7600 1.1433 0.4018
1.7800 1.1566 0.3921
1.8000 1.1699 0.3914
1.8200 1.1832 0.4028
1.8400 1.1965 0.3890
1.8600 1.2099 0.3910
1.8800 1.2232 0.3998
1.9000 1.2365 0.3902
1.9200 1.2498 0.3917
1.9400 1.2632 0.3940
1.9600 1.2765 0.3861
1.9800 1.2898 0.3933
2.0000 1.3031 0.3894
2.0200 1.3165 0.3825
2.0400 1.3298 0.3841
2.0600 1.3431 0.3877
2.0800 1.3565 0.3785
2.1000 1.3698 0.3849
2.1200 1.3832 0.3815
2.1400 1.3966 0.3747
2.1600 1.4099 0.3785
2.1800 1.4232 0.3833
2.2000 1.4365 0.3785
2.2200 1.4499 0.3786
2.2400 1.4632 0.3803
2.2600 1.4765 0.3777
2.2800 1.4898 0.3766
2.3000 1.5031 0.3787
2.3200 1.5165 0.3794
2.3400 1.5298 0.3731
2.3600 1.5431 0.3733
2.3800 1.5565 0.3718
2.4000 1.5699 0.3698
2.4200 1.5832 0.3738
2.4400 1.5965 0.3683
2.4600 1.6098 0.3659
2.4800 1.6232 0.3827
2.5000 1.6365 0.3681
2.5200 1.6498 0.3656
2.5400 1.6631 0.3816
2.5600 1.6765 0.3687
2.5800 1.6899 0.3578
2.6000 1.7032 0.3775
2.6200 1.7165 0.3676
2.6400 1.7298 0.3670
2.6600 1.7432 0.3743
2.6800 1.7565 0.3583
2.7000 1.7698 0.3660
2.7200 1.7831 0.3803
2.7400 1.7965 0.3525
2.7600 1.8098 0.3600
2.7800 1.8231 0.3784
2.8000 1.8364 0.3563
2.8200 1.8498 0.3577
2.8400 1.8632 0.3738
2.8600 1.8765 0.3492
2.8800 1.8898 0.3615
2.9000 1.9032 0.3701
2.9200 1.9165 0.3449
2.9400 1.9299 0.3594
2.9600 1.9432 0.3654
2.9800 1.9565 0.3443
3.0000 1.9698 0.3551
3.0200 1.9832 0.3643
3.0400 1.9965 0.3463
3.0600 2.0098 0.3549
3.0800 2.0231 0.3542
3.1000 2.0364 0.3519
3.1200 2.0498 0.3516
3.1400 2.0631 0.3498
3.1600 2.0765 0.3515
3.1800 2.0898 0.3536
3.2000 2.1032 0.3442
3.2200 2.1166 0.3468
3.2400 2.1299 0.3500
3.2600 2.1432 0.3457
3.2800 2.1566 0.3454
3.3000 2.1699 0.3479
3.3200 2.1832 0.3391
3.3400 2.1965 0.3464
3.3600 2.2098 0.3398
3.3800 2.2232 0.3465
3.4000 2.2365 0.3432
3.4200 2.2498 0.3392
3.4400 2.2631 0.3439
3.4600 2.2765 0.3403
3.4800 2.2898 0.3361
3.5000 2.3032 0.3505
3.5200 2.3165 0.3376
3.5400 2.3298 0.3290
3.5600 2.3432 0.3479
3.5800 2.3565 0.3372
3.6000 2.3699 0.3291
3.6200 2.3832 0.3448
3.6400 2.3966 0.3412
3.6600 2.4099 0.3252
3.6800 2.4232 0.3458
3.7000 2.4365 0.3320
3.7200 2.4498 0.3277
3.7400 2.4632 0.3502
3.7600 2.4765 0.3290
3.7800 2.4898 0.3233
3.8000 2.5031 0.3494
3.8200 2.5164 0.3252
3.8400 2.5298 0.3281
3.8600 2.5431 0.3434
3.8800 2.5565 0.3234
3.9000 2.5698 0.3284
3.9200 2.5832 0.3387
3.9400 2.5966 0.3202
3.9600 2.6099 0.3296
3.9800 2.6232 0.3366
4.0000 2.6365 0.3194
4.0200 2.6499 0.3246
4.0400 2.6632 0.3326
4.0600 2.6765 0.3227
4.0800 2.6898 0.3244
4.1000 2.7031 0.3266
4.1200 2.7165 0.3244
4.1400 2.7298 0.3228
4.1600 2.7431 0.3223
4.1800 2.7564 0.3239
4.2000 2.7698 0.3221
4.2200 2.7831 0.3170
4.2400 2.7964 0.3222
4.2600 2.8098 0.3184
4.2800 2.8232 0.3178
4.3000 2.8366 0.3231
4.3200 2.8499 0.3110
4.3400 2.8632 0.3252
4.3600 2.8766 0.3220
4.3800 2.8899 0.3112
4.4000 2.9032 0.3209
4.4200 2.9165 0.3175
4.4400 2.9298 0.3104
4.4600 2.9432 0.3251
4.4800 2.9565 0.3152
4.5000 2.9698 0.3077
4.5200 2.9831 0.3185
4.5400 2.9964 0.3159
4.5600 3.0098 0.3086
4.5800 3.0232 0.3154
4.6000 3.0365 0.3084
4.6200 3.0498 0.3096
4.6400 3.0632 0.3189
4.6600 3.0765 0.3048
4.6800 3.0898 0.3089
4.7000 3.1031 0.3191
4.7200 3.1165 0.3075
4.7400 3.1299 0.3071
4.7600 3.1432 0.3152
4.7800 3.1565 0.3039
4.8000 3.1699 0.3076
4.8200 3.1832 0.3126
4.8400 3.1965 0.3025
4.8600 3.2098 0.3050
4.8800 3.2231 0.3164
4.9000 3.2364 0.3018
4.9200 3.2498 0.3085
4.9400 3.2631 0.3079
4.9600 3.2764 0.2998
4.9800 3.2898 0.3082
5.0000 3.3032 0.3118
5.0200 3.3166 0.2984
5.0400 3.3299 0.3034
5.0600 3.3432 0.3058
5.0800 3.3566 0.3020
5.1000 3.3699 0.3025
5.1200 3.3832 0.3003
5.1400 3.3965 0.3027
5.1600 3.4098 0.3090
5.1800 3.4231 0.2979
5.2000 3.4365 0.2965
5.2200 3.4498 0.3032
5.2400 3.4631 0.2958
5.2600 3.4764 0.2994
5.2800 3.4898 0.2949
5.3000 3.5031 0.2986
5.3200 3.5165 0.2965
5.3400 3.5298 0.2962
5.3600 3.5432 0.2930
5.3800 3.5566 0.2971
5.4000 3.5699 0.2955
5.4200 3.5832 0.2955
5.4400 3.5965 0.2961
5.4600 3.6099 0.2945
5.4800 3.6232 0.2915
5.5000 3.6365 0.2959
5.5200 3.6498 0.2947
5.5400 3.6631 0.2951
5.5600 3.6765 0.2878
5.5800 3.6898 0.2912
5.6000 3.7031 0.2959
5.6200 3.7164 0.2912
5.6400 3.7298 0.2793
5.6600 3.7431 0.2942
5.6800 3.7565 0.2884
5.7000 3.7698 0.2835
5.7200 3.7832 0.2940
5.7400 3.7965 0.2787
5.7600 3.8099 0.2809
5.7800 3.8232 0.2988
5.8000 3.8365 0.2755
5.8200 3.8499 0.2769
5.8400 3.8632 0.2935
5.8600 3.8765 0.2730
5.8800 3.8899 0.2726
5.9000 3.9032 0.2938
5.9200 3.9165 0.2736
5.9400 3.9298 0.2743
5.9600 3.9431 0.2903
5.9800 3.9564 0.2703
6.0000 3.9698 0.2807
6.0200 3.9832 0.2816
6.0400 3.9965 0.2727
6.0600 4.0098 0.2744
6.0800 4.0232 0.2843
6.1000 4.0366 0.2759
6.1200 4.0499 0.2701
6.1400 4.0632 0.2766
6.1600 4.0765 0.2817
6.1800 4.0899 0.2690
6.2000 4.1032 0.2707
6.2200 4.1165 0.2800
6.2400 4.1298 0.2756
6.2600 4.1431 0.2733
6.2800 4.1565 0.2708
6.3000 4.1698 0.2674
6.3200 4.1831 0.2780
6.3400 4.1964 0.2749
6.3600 4.2098 0.2696
6.3800 4.2231 0.2707
6.4000 4.2365 0.2706
6.4200 4.2498 0.2676
6.4400 4.2632 0.2717
6.4600 4.2765 0.2694
6.4800 4.2899 0.2699
6.5000 4.3032 0.2714
6.5200 4.3165 0.2672
6.5400 4.3299 0.2696
6.5600 4.3432 0.2710
6.5800 4.3565 0.2614
6.6000 4.3698 0.2686
6.6200 4.3832 0.2693
6.6400 4.3965 0.2640
6.6600 4.4098 0.2700
6.6800 4.4231 0.2607
6.7000 4.4364 0.2622
6.7200 4.4498 0.2745
6.7400 4.4631 0.2644
6.7600 4.4765 0.2563
6.7800 4.4898 0.2710
6.8000 4.5032 0.2597
6.8200 4.5165 0.2563
6.8400 4.5299 0.2658
6.8600 4.5432 0.2638
6.8800 4.5565 0.2544
6.9000 4.5699 0.2680
6.9200 4.5832 0.2612
6.9400 4.5965 0.2504
6.9600 4.6098 0.2675
6.9800 4.6232 0.2576
7.0000 4.6365 0.2520
7.0200 4.6498 0.2651
7.0400 4.6631 0.2560
7.0600 4.6764 0.2519
7.0800 4.6897 0.2606
7.1000 4.7031 0.2511
7.1200 4.7164 0.2567
7.1400 4.7298 0.2582
7.1600 4.7432 0.2465
7.1800 4.7566 0.2556
7.2000 4.7699 0.2584
7.2200 4.7833 0.2431
7.2400 4.7966 0.2571
7.2600 4.8099 0.2524
7.2800 4.8233 0.2460
7.3000 4.8365 0.2519
7.3200 4.8498 0.2523
7.3400 4.8631 0.2449
7.3600 4.8765 0.2545
7.3800 4.8898 0.2461
7.4000 4.9031 0.2469
7.4200 4.9165 0.2511
7.4400 4.9298 0.2434
7.4600 4.9432 0.2446
7.4800 4.9565 0.2495
7.5000 4.9698 0.2407
7.5200 4.9832 0.2512
7.5400 4.9966 0.2459
7.5600 5.0099 0.2373
7.5800 5.0232 0.2454
7.6000 5.0365 0.2445
7.6200 5.0499 0.2371
7.6400 5.0632 0.2465
7.6600 5.0765 0.2421
7.6800 5.0898 0.2348
7.7000 5.1031 0.2462
7.7200 5.1165 0.2405
7.7400 5.1298 0.2375
7.7600 5.1431 0.2431
7.7800 5.1564 0.2414
7.8000 5.1698 0.2324
7.8200 5.1831 0.2441
7.8400 5.1965 0.2349
7.8600 5.2098 0.2362
7.8800 5.2232 0.2416
7.9000 5.2365 0.2324
7.9200 5.2499 0.2343
7.9400 5.2632 0.2406
7.9600 5.2765 0.2300
7.9800 5.2899 0.2370
8.0000 5.3032 0.2359
8.0200 5.3165 0.2314
8.0400 5.3298 0.2343
8.0600 5.3432 0.2364
8.0800 5.3565 0.2316
8.1000 5.3698 0.2342
8.1200 5.3831 0.2336
8.1400 5.3964 0.2280
8.1600 5.4098 0.2328
8.1800 5.4231 0.2293
8.2000 5.4365 0.2281
8.2200 5.4498 0.2321
8.2400 5.4632 0.2290
8.2600 5.4765 0.2279
8.2800 5.4899 0.2295
8.3000 5.5032 0.2278
8.3200 5.5165 0.2268
8.3400 5.5299 0.2307
8.3600 5.5432 0.2272
8.3800 5.5565 0.2244
8.4000 5.5698 0.2275
8.4200 5.5831 0.2248
8.4400 5.5965 0.2234
8.4600 5.6098 0.2244
8.4800 5.6231 0.2263
8.5000 5.6365 0.2223
8.5200 5.6498 0.2270
8.5400 5.6632 0.2197
8.5600 5.6765 0.2214
8.5800 5.6898 0.2224
8.6000 5.7032 0.2225
8.6200 5.7165 0.2196
8.6400 5.7299 0.2219
8.6600 5.7432 0.2203
8.6800 5.7565 0.2199
8.7000 5.7699 0.2202
8.7200 5.7832 0.2198
8.7400 5.7966 0.2164
8.7600 5.8099 0.2254
8.7800 5.8231 0.2172
8.8000 5.8365 0.2164
8.8200 5.8498 0.2232
8.8400 5.8631 0.2138
8.8600 5.8764 0.2171
8.8800 5.8898 0.2226
8.9000 5.9031 0.2143
8.9200 5.9165 0.2138
8.9400 5.9298 0.2242
8.9600 5.9432 0.2086
8.9800 5.9566 0.2115
9.0000 5.9699 0.2213
9.0200 5.9832 0.2111
9.0400 5.9965 0.2085
9.0600 6.0099 0.2215
9.0800 6.0232 0.2090
9.1000 6.0365 0.2092
9.1200 6.0498 0.2154
9.1400 6.0631 0.2129
9.1600 6.0765 0.2048
9.1800 6.0898 0.2125
9.2000 6.1031 0.2105
9.2200 6.1164 0.2081
9.2400 6.1298 0.2111
9.2600 6.1431 0.2105
9.2800 6.1564 0.2044
9.3000 6.1698 0.2139
9.3200 6.1831 0.2025
9.3400 6.1965 0.2053
9.3600 6.2099 0.2141
9.3800 6.2232 0.2028
9.4000 6.2365 0.1990
9.4200 6.2499 0.2121
9.4400 6.2632 0.2022
9.4600 6.2765 0.1948
9.4800 6.2898 0.2113
9.5000 6.3031 0.2050
9.5200 6.3164 0.1979
9.5400 6.3298 0.2077
9.5600 6.3431 0.1983
9.5800 6.3564 0.2011
9.6000 6.3698 0.2083
9.6200 6.3832 0.1920
9.6400 6.3965 0.2058
9.6600 6.4099 0.2013
9.6800 6.4232 0.1947
9.7000 6.4365 0.2016
9.7200 6.4499 0.2033
9.7400 6.4632 0.1940
9.7600 6.4765 0.1984
9.7800 6.4898 0.1951
9.8000 6.5032 0.1938
9.8200 6.5165 0.1995
9.8400 6.5299 0.2011
9.8600 6.5432 0.1939
9.8800 6.5565 0.1969
9.9000 6.5699 0.1911
9.9200 6.5832 0.1944
9.9400 6.5965 0.1954
9.9600 6.6098 0.1926
9.9800 6.6231 0.1881
10.0000 6.6365 0.1957
10.0200 6.6498 0.1940
10.0400 6.6631 0.1931
10.0600 6.6765 0.1932
10.0800 6.6899 0.1897
10.1000 6.7032 0.1890
10.1200 6.7165 0.1944
10.1400 6.7299 0.1909
10.1600 6.7432 0.1885
10.1800 6.7566 0.1865
10.2000 6.7699 0.1915
10.2200 6.7832 0.1914
10.2400 6.7965 0.1829
10.2600 6.8099 0.1918
10.2800 6.8232 0.1828
10.3000 6.8365 0.1864
10.3200 6.8498 0.1870
10.3400 6.8631 0.1823
10.3600 6.8765 0.1840
10.3800 6.8898 0.1892
10.4000 6.9031 0.1770
10.4200 6.9165 0.1831
10.4400 6.9299 0.1873
10.4600 6.9432 0.1812
10.4800 6.9565 0.1786
10.5000 6.9699 0.1847
10.5200 6.9832 0.1811
10.5400 6.9965 0.1791
10.5600 7.0098 0.1818
10.5800 7.0231 0.1832
10.6000 7.0365 0.1796
10.6200 7.0498 0.1830
10.6400 7.0631 0.1819
10.6600 7.0765 0.1761
10.6800 7.0898 0.1859
10.7000 7.1032 0.1786
10.7200 7.1165 0.1701
10.7400 7.1298 0.1829
10.7600 7.1431 0.1793
10.7800 7.1565 0.1726
10.8000 7.1699 0.1777
10.8200 7.1832 0.1769
10.8400 7.1965 0.1816
10.8600 7.2099 0.1749
10.8800 7.2232 0.1755
10.9000 7.2366 0.1706
10.9200 7.2499 0.1777
10.9400 7.2632 0.1738
10.9600 7.2765 0.1729
10.9800 7.2898 0.1770
11.0000 7.3031 0.1733
11.0200 7.3164 0.1682
11.0400 7.3297 0.1793
11.0600 7.3431 0.1750
11.0800 7.3565 0.1647
11.1000 7.3698 0.1720
11.1200 7.3832 0.1770
11.1400 7.3965 0.1621
11.1600 7.4099 0.1733
11.1800 7.4232 0.1692
11.2000 7.4365 0.1616
11.2200 7.4499 0.1770
11.2400 7.4632 0.1709
11.2600 7.4766 0.1627
11.2800 7.4899 0.1695
11.3000 7.5032 0.1679
11.3200 7.5165 0.1634
11.3400 7.5298 0.1729
11.3600 7.5432 0.1663
11.3800 7.5565 0.1573
11.4000 7.5698 0.1709
11.4200 7.5831 0.1666
11.4400 7.5965 0.1541
11.4600 7.6098 0.1708
11.4800 7.6231 0.1614
11.5000 7.6365 0.1619
11.5200 7.6499 0.1664
11.5400 7.6632 0.1640
11.5600 7.6765 0.1615
11.5800 7.6899 0.1703
11.6000 7.7032 0.1586
11.6200 7.7166 0.1548
11.6400 7.7299 0.1648
11.6600 7.7432 0.1630
11.6800 7.7565 0.1504
11.7000 7.7698 0.1639
11.7200 7.7831 0.1587
11.7400 7.7964 0.1551
11.7600 7.8098 0.1595
11.7800 7.8231 0.1547
11.8000 7.8365 0.1534
11.8200 7.8498 0.1611
11.8400 7.8631 0.1540
11.8600 7.8765 0.1535
11.8800 7.8898 0.1586
11.9000 7.9032 0.1506
11.9200 7.9165 0.1539
11.9400 7.9298 0.1553
11.9600 7.9432 0.1477
11.9800 7.9566 0.1497
12.0000 7.9699 0.1561
12.0200 7.9832 0.1506
12.0400 7.9965 0.1558
12.0600 8.0099 0.1517
12.0800 8.0232 0.1454
12.1000 8.0365 0.1514
12.1200 8.0498 0.1542
12.1400 8.0631 0.1442
12.1600 8.0764 0.1495
12.1800 8.0898 0.1473
12.2000 8.1031 0.1468
12.2200 8.1165 0.1489
12.2400 8.1299 0.1458
12.2600 8.1433 0.1424
12.2800 8.1566 0.1510
12.3000 8.1699 0.1443
12.3200 8.1832 0.1459
12.3400 8.1966 0.1449
12.3600 8.2099 0.1400
12.3800 8.2232 0.1432
12.4000 8.2365 0.1520
12.4200 8.2498 0.1427
12.4400 8.2631 0.1406
12.4600 8.2764 0.1476
12.4800 8.2897 0.1401
12.5000 8.3031 0.1411
12.5200 8.3165 0.1483
12.5400 8.3298 0.1380
12.5600 8.3431 0.1347
12.5800 8.3565 0.1512
12.6000 8.3699 0.1361
12.6200 8.3832 0.1348
12.6400 8.3966 0.1510
12.6600 8.4099 0.1335
12.6800 8.4232 0.1301
12.7000 8.4366 0.1513
12.7200 8.4499 0.1295
12.7400 8.4632 0.1387
12.7600 8.4765 0.1401
12.7800 8.4898 0.1333
12.8000 8.5031 0.1354
12.8200 8.5164 0.1369
12.8400 8.5297 0.1297
12.8600 8.5431 0.1386
12.8800 8.5565 0.1349
12.9000 8.5698 0.1242
12.9200 8.5832 0.1392
12.9400 8.5965 0.1351
12.9600 8.6099 0.1233
12.9800 8.6232 0.1333
13.0000 8.6365 0.1322
13.0200 8.6499 0.1251
13.0400 8.6632 0.1312
13.0600 8.6766 0.1310
13.0800 8.6899 0.1233
13.1000 8.7032 0.1336
13.1200 8.7165 0.1294
13.1400 8.7299 0.1196
13.1600 8.7432 0.1312
13.1800 8.7565 0.1295
13.2000 8.7697 0.1258
13.2200 8.7831 0.1261
13.2400 8.7965 0.1309
13.2600 8.8098 0.1214
13.2800 8.8232 0.1296
13.3000 8.8365 0.1281
13.3200 8.8499 0.1203
13.3400 8.8632 0.1292
13.3600 8.8766 0.1268
13.3800 8.8899 0.1210
13.4000 8.9032 0.1353
13.4200 8.9166 0.1233
13.4400 8.9299 0.1193
13.4600 8.9431 0.1271
13.4800 8.9565 0.1316
13.5000 8.9698 0.1203
13.5200 8.9832 0.1274
13.5400 8.9965 0.1236
13.5600 9.0098 0.1198
13.5800 9.0231 0.1203
13.6000 9.0365 0.1215
13.6200 9.0498 0.1224
13.6400 9.0631 0.1190
13.6600 9.0765 0.1230
13.6800 9.0898 0.1239
13.7000 9.1032 0.1199
13.7200 9.1166 0.1185
13.7400 9.1299 0.1251
13.7600 9.1432 0.1133
13.7800 9.1566 0.1200
13.8000 9.1699 0.1191
13.8200 9.1832 0.1145
13.8400 9.1965 0.1225
13.8600 9.2098 0.1164
13.8800 9.2232 0.1050
13.9000 9.2365 0.1197
13.9200 9.2498 0.1160
13.9400 9.2631 0.1075
13.9600 9.2765 0.1158
13.9800 9.2898 0.1153
14.0000 9.3031 0.1097
14.0200 9.3165 0.1206
14.0400 9.3298 0.1057
14.0600 9.3432 0.1005
14.0800 9.3565 0.1150
14.1000 9.3698 0.1055
14.1200 9.3832 0.1046
14.1400 9.3965 0.1151
14.1600 9.4099 0.1054
14.1800 9.4232 0.1049
14.2000 9.4365 0.1146
14.2200 9.4498 0.1028
14.2400 9.4632 0.1072
14.2600 9.4765 0.1107
14.2800 9.4898 0.1017
14.3000 9.5031 0.1059
14.3200 9.5164 0.1061
14.3400 9.5298 0.1005
14.3600 9.5431 0.1064
14.3800 9.5565 0.1054
14.4000 9.5699 0.1040
14.4200 9.5832 0.1013
14.4400 9.5966 0.1049
14.4600 9.6099 0.1083
14.4800 9.6232 0.1042
14.5000 9.6366 0.1029
14.5200 9.6499 0.1017
14.5400 9.6631 0.0978
14.5600 9.6764 0.1053
14.5800 9.6898 0.1040
14.6000 9.7031 0.0926
14.6200 9.7164 0.1025
14.6400 9.7298 0.1109
14.6600 9.7431 0.0925
14.6800 9.7565 0.0948
14.7000 9.7699 0.1051
14.7200 9.7832 0.0931
14.7400 9.7965 0.0971
14.7600 9.8099 0.1026
14.7800 9.8232 0.0887
14.8000 9.8366 0.1014
14.8200 9.8499 0.0979
14.8400 9.8632 0.0840
14.8600 9.8766 0.1038
14.8800 9.8899 0.0975
14.9000 9.9032 0.0864
14.9200 9.9165 0.0973
14.9400 9.9298 0.0993
14.9600 9.9432 0.0815
14.9800 9.9565 0.1002
15.0000 9.9698 0.0962
15.0200 9.9831 0.0863
15.0400 9.9965 0.0999
15.0600 10.0098 0.0924
15.0800 10.0231 0.0825
15.1000 10.0365 0.1010
15.1200 10.0499 0.0931
15.1400 10.0632 0.0844
15.1600 10.0766 0.0964
15.1800 10.0899 0.0938
15.2000 10.1032 0.0880
15.2200 10.1166 0.0987
15.2400 10.1299 0.0915
15.2600 10.1432 0.0859
15.2800 10.1565 0.0968
15.3000 10.1698 0.0917
15.3200 10.1832 0.0863
15.3400 10.1965 0.0968
15.3600 10.2098 0.0870
15.3800 10.2231 0.0847
15.4000 10.2364 0.0940
15.4200 10.2498 0.0832
15.4400 10.2631 0.0869
15.4600 10.2765 0.0884
15.4800 10.2898 0.0818
15.5000 10.3032 0.0893
15.5200 10.3166 0.0868
15.5400 10.3299 0.0822
15.5600 10.3432 0.0898
15.5800 10.3566 0.0844
15.6000 10.3699 0.0801
15.6200 10.3832 0.0835
15.6400 10.3965 0.0841
15.6600 10.4098 0.0836
15.6800 10.4232 0.0833
15.7000 10.4365 0.0791
15.7200 10.4498 0.0822
15.7400 10.4631 0.0809
15.7600 10.4765 0.0778
15.7800 10.4898 0.0836
15.8000 10.5031 0.0772
15.8200 10.5164 0.0752
15.8400 10.5298 0.0888
15.8600 10.5432 0.0712
15.8800 10.5565 0.0763
15.9000 10.5698 0.0871
15.9200 10.5832 0.0678
15.9400 10.5965 0.0742
15.9600 10.6099 0.0861
15.9800 10.6232 0.0647
16.0000 10.6365 0.0761
16.0200 10.6498 0.0875
16.0400 10.6632 0.0640
16.0600 10.6765 0.0760
16.0800 10.6898 0.0839
16.1000 10.7031 0.0646
16.1200 10.7165 0.0736
16.1400 10.7298 0.0824
16.1600 10.7431 0.0615
16.1800 10.7565 0.0738
16.2000 10.7699 0.0814
16.2200 10.7832 0.0610
16.2400 10.7966 0.0725
16.2600 10.8099 0.0809
16.2800 10.8232 0.0599
16.3000 10.8365 0.0764
16.3200 10.8499 0.0727
16.3400 10.8632 0.0601
16.3600 10.8765 0.0782
16.3800 10.8898 0.0746
16.4000 10.9032 0.0588
16.4200 10.9165 0.0747
16.4400 10.9298 0.0703
16.4600 10.9431 0.0590
16.4800 10.9564 0.0788
16.5000 10.9698 0.0670
16.5200 10.9831 0.0615
16.5400 10.9965 0.0787
16.5600 11.0098 0.0624
16.5800 11.0232 0.0609
16.6000 11.0366 0.0753
16.6200 11.0499 0.0632
16.6400 11.0632 0.0635
16.6600 11.0766 0.0716
16.6800 11.0899 0.0644
16.7000 11.1032 0.0611
16.7200 11.1165 0.0736
16.7400 11.1298 0.0644
16.7600 11.1431 0.0659
16.7800 11.1565 0.0675
16.8000 11.1698 0.0619
16.8200 11.1831 0.0671
16.8400 11.1965 0.0630
16.8600 11.2099 0.0619
16.8800 11.2232 0.0640
16.9000 11.2365 0.0580
16.9200 11.2498 0.0660
16.9400 11.2632 0.0578
16.9600 11.2765 0.0577
16.9800 11.2898 0.0638
17.0000 11.3031 0.0587
17.0200 11.3165 0.0598
17.0400 11.3299 0.0646
17.0600 11.3432 0.0520
17.0800 11.3565 0.0558
17.1000 11.3698 0.0657
17.1200 11.3832 0.0476
17.1400 11.3965 0.0541
17.1600 11.4098 0.0625
17.1800 11.4231 0.0521
17.2000 11.4365 0.0560
17.2200 11.4498 0.0591
17.2400 11.4631 0.0481
17.2600 11.4765 0.0517
17.2800 11.4898 0.0569
17.3000 11.5032 0.0459
17.3200 11.5165 0.0522
17.3400 11.5298 0.0566
17.3600 11.5432 0.0436
17.3800 11.5565 0.0566
17.4000 11.5699 0.0519
17.4200 11.5832 0.0430
17.4400 11.5965 0.0540
17.4600 11.6098 0.0511
17.4800 11.6232 0.0422
17.5000 11.6365 0.0496
17.5200 11.6498 0.0512
17.5400 11.6631 0.0464
17.5600 11.6764 0.0501
17.5800 11.6898 0.0505
17.6000 11.7031 0.0468
17.6200 11.7165 0.0516
17.6400 11.7298 0.0475
17.6600 11.7432 0.0463
17.6800 11.7566 0.0479
17.7000 11.7699 0.0406
17.7200 11.7832 0.0501
17.7400 11.7965 0.0484
17.7600 11.8099 0.0426
17.7800 11.8232 0.0484
17.8000 11.8365 0.0480
17.8200 11.8498 0.0400
17.8400 11.8632 0.0476
17.8600 11.8765 0.0432
17.8800 11.8898 0.0402
17.9000 11.9031 0.0475
17.9200 11.9165 0.0423
17.9400 11.9298 0.0373
17.9600 11.9432 0.0474
17.9800 11.9565 0.0394
18.0000 11.9698 0.0416
18.0200 11.9832 0.0424
18.0400 11.9965 0.0385
18.0600 12.0099 0.0391
18.0800 12.0232 0.0463
18.1000 12.0365 0.0367
18.1200 12.0499 0.0353
18.1400 12.0632 0.0444
18.1600 12.0765 0.0371
18.1800 12.0898 0.0401
18.2000 12.1032 0.0439
18.2200 12.1165 0.0327
18.2400 12.1298 0.0398
18.2600 12.1431 0.0409
18.2800 12.1564 0.0384
18.3000 12.1698 0.0355
18.3200 12.1831 0.0392
18.3400 12.1965 0.0416
18.3600 12.2098 0.0307
18.3800 12.2232 0.0405
18.4000 12.2366 0.0330
18.4200 12.2499 0.0308
18.4400 12.2632 0.0342
18.4600 12.2765 0.0337
18.4800 12.2899 0.0314
18.5000 12.3032 0.0359
18.5200 12.3165 0.0313
18.5400 12.3298 0.0326
18.5600 12.3431 0.0334
18.5800 12.3565 0.0318
18.6000 12.3698 0.0302
18.6200 12.3831 0.0325
18.6400 12.3965 0.0297
18.6600 12.4098 0.0291
18.6800 12.4231 0.0319
18.7000 12.4365 0.0319
18.7200 12.4498 0.0233
18.7400 12.4632 0.0312
18.7600 12.4765 0.0282
18.7800 12.4899 0.0230
18.8000 12.5032 0.0323
18.8200 12.5165 0.0323
18.8400 12.5299 0.0229
18.8600 12.5432 0.0294
18.8800 12.5565 0.0298
18.9000 12.5698 0.0208
18.9200 12.5831 0.0307
18.9400 12.5965 0.0248
18.9600 12.6098 0.0175
18.9800 12.6231 0.0297
19.0000 12.6364 0.0271
19.0200 12.6498 0.0170
19.0400 12.6631 0.0294
19.0600 12.6765 0.0200
19.0800 12.6898 0.0188
19.1000 12.7031 0.0311
19.1200 12.7165 0.0184
19.1400 12.7298 0.0171
19.1600 12.7432 0.0262
19.1800 12.7565 0.0133
19.2000 12.7699 0.0256
19.2200 12.7832 0.0197
19.2400 12.7965 0.0156
19.2600 12.8098 0.0191
19.2800 12.8232 0.0210
19.3000 12.8365 0.0132
19.3200 12.8498 0.0196
19.3400 12.8631 0.0200
19.3600 12.8764 0.0161
19.3800 12.8898 0.0202
19.4000 12.9031 0.0144
19.4200 12.9164 0.0148
19.4400 12.9298 0.0188
19.4600 12.9432 0.0149
19.4800 12.9566 0.0139
19.5000 12.9699 0.0127
19.5200 12.9832 0.0119
19.5400 12.9966 0.0176
19.5600 13.0099 0.0134
19.5800 13.0233 0.0158
19.6000 13.0365 0.0176
19.6200 13.0498 0.0095
19.6400 13.0631 0.0171
19.6600 13.0765 0.0170
19.6800 13.0898 0.0086
19.7000 13.1031 0.0142
19.7200 13.1164 0.0143
19.7400 13.1298 0.0081
19.7600 13.1431 0.0105
19.7800 13.1565 0.0183
19.8000 13.1698 0.0016
19.8200 13.1832 0.0149
19.8400 13.1966 0.0126
19.8600 13.2099 0.0014
19.8800 13.2232 0.0161
19.9000 13.2365 0.0157
19.9200 13.2499 0.0039
19.9400 13.2632 0.0161
19.9600 13.2765 0.0137
19.9800 13.2898 -0.0003
20.0000 13.3032 0.0171
20.0200 13.3165 0.0131
20.0400 13.3298 -0.0026
20.0600 13.3431 0.0150
20.0800 13.3564 0.0099
20.1000 13.3698 -0.0004
20.1200 13.3832 0.0180
20.1400 13.3965 0.0039
20.1600 13.4098 -0.0018
20.1800 13.4232 0.0170
20.2000 13.4365 0.0054
20.2200 13.4499 -0.0063
20.2400 13.4632 0.0150
20.2600 13.4765 0.0043
20.2800 13.4899 -0.0004
20.3000 13.5032 0.0120
20.3200 13.5165 0.0040
20.3400 13.5298 -0.0021
20.3600 13.5432 0.0091
20.3800 13.5565 0.0005
20.4000 13.5698 -0.0025
20.4200 13.5831 0.0041
20.4400 13.5964 0.0021
20.4600 13.6098 -0.0018
20.4800 13.6231 0.0013
20.5000 13.6365 -0.0017
20.5200 13.6498 0.0024
20.5400 13.6632 -0.0031
20.5600 13.6766 -0.0001
20.5800 13.6899 0.0018
20.6000 13.7032 -0.0062
20.6200 13.7165 0.0030
20.6400 13.7299 -0.0020
20.6600 13.7432 -0.0074
20.6800 13.7565 -0.0035
20.7000 13.7698 0.0021
20.7200 13.7831 -0.0065
20.7400 13.7965 0.0003
20.7600 13.8098 -0.0021
20.7800 13.8231 -0.0082
20.8000 13.8364 0.0041
20.8200 13.8498 -0.0071
20.8400 13.8632 -0.0134
20.8600 13.8765 0.0079
20.8800 13.8898 -0.0086
20.9000 13.9032 -0.0108
20.9200 13.9166 0.0031
20.9400 13.9299 -0.0093
20.9600 13.9432 -0.0123
20.9800 13.9565 0.0048
21.0000 13.9699 -0.0129
21.0200 13.9833 -0.0116
21.0400 13.9966 -0.0007
21.0600 14.0098 -0.0143
21.0800 14.0232 -0.0125
21.1000 14.0365 0.0025
21.1200 14.0498 -0.0224
21.1400 14.0631 -0.0116
21.1600 14.0764 -0.0016
21.1800 14.0898 -0.0187
21.2000 14.1031 -0.0169
21.2200 14.1165 -0.0067
21.2400 14.1298 -0.0189
21.2600 14.1432 -0.0158
21.2800 14.1565 -0.0085
21.3000 14.1699 -0.0199
21.3200 14.1832 -0.0120
21.3400 14.1965 -0.0137
21.3600 14.2099 -0.0164
21.3800 14.2232 -0.0177
21.4000 14.2365 -0.0136
21.4200 14.2498 -0.0189
21.4400 14.2632 -0.0164
21.4600 14.2765 -0.0152
21.4800 14.2898 -0.0176
21.5000 14.3031 -0.0236
21.5200 14.3164 -0.0145
21.5400 14.3297 -0.0200
21.5600 14.3431 -0.0235
21.5800 14.3564 -0.0152
21.6000 14.3698 -0.0191
21.6200 14.3831 -0.0261
21.6400 14.3965 -0.0128
21.6600 14.4099 -0.0247
21.6800 14.4233 -0.0278
21.7000 14.4366 -0.0145
21.7200 14.4499 -0.0205
21.7400 14.4632 -0.0309
21.7600 14.4765 -0.0135
21.7800 14.4898 -0.0231
21.8000 14.5031 -0.0297
21.8200 14.5164 -0.0111
21.8400 14.5298 -0.0271
21.8600 14.5431 -0.0311
21.8800 14.5564 -0.0146
21.9000 14.5698 -0.0259
21.9200 14.5832 -0.0316
21.9400 14.5965 -0.0176
21.9600 14.6098 -0.0211
21.9800 14.6232 -0.0257
22.0000 14.6365 -0.0245
22.0200 14.6499 -0.0244
22.0400 14.6632 -0.0310
22.0600 14.6765 -0.0191
22.0800 14.6899 -0.0250
22.1000 14.7032 -0.0319
22.1200 14.7165 -0.0216
22.1400 14.7298 -0.0250
22.1600 14.7431 -0.0335
22.1800 14.7565 -0.0241
22.2000 14.7698 -0.0259
22.2200 14.7831 -0.0366
22.2400 14.7964 -0.0280
22.2600 14.8098 -0.0256
22.2800 14.8232 -0.0387
22.3000 14.8365 -0.0242
22.3200 14.8498 -0.0284
22.3400 14.8632 -0.0387
22.3600 14.8766 -0.0259
22.3800 14.8899 -0.0307
22.4000 14.9032 -0.0390
22.4200 14.9165 -0.0269
22.4400 14.9299 -0.0285
22.4600 14.9433 -0.0451
22.4800 14.9566 -0.0296
22.5000 14.9699 -0.0297
22.5200 14.9831 -0.0379
22.5400 14.9965 -0.0329
22.5600 15.0098 -0.0321
22.5800 15.0231 -0.0435
22.6000 15.0364 -0.0317
22.6200 15.0498 -0.0358
22.6400 15.0631 -0.0444
22.6600 15.0765 -0.0301
22.6800 15.0898 -0.0361
22.7000 15.1032 -0.0469
22.7200 15.1165 -0.0297
22.7400 15.1299 -0.0384
22.7600 15.1432 -0.0445
22.7800 15.1565 -0.0357
22.8000 15.1699 -0.0386
22.8200 15.1832 -0.0459
22.8400 15.1965 -0.0405
22.8600 15.2098 -0.0366
22.8800 15.2231 -0.0446
22.9000 15.2365 -0.0428
22.9200 15.2498 -0.0401
22.9400 15.2631 -0.0460
22.9600 15.2765 -0.0411
22.9800 15.2898 -0.0437
23.0000 15.3031 -0.0500
23.0200 15.3165 -0.0398
23.0400 15.3298 -0.0427
23.0600 15.3431 -0.0524
23.0800 15.3565 -0.0427
23.1000 15.3699 -0.0417
23.1200 15.3832 -0.0515
23.1400 15.3965 -0.0411
23.1600 15.4099 -0.0461
23.1800 15.4232 -0.0480
23.2000 15.4366 -0.0451
23.2200 15.4499 -0.0466
23.2400 15.4632 -0.0498
23.2600 15.4765 -0.0394
23.2800 15.4898 -0.0510
23.3000 15.5031 -0.0533
23.3200 15.5164 -0.0393
23.3400 15.5298 -0.0476
23.3600 15.5431 -0.0517
23.3800 15.5565 -0.0457
23.4000 15.5698 -0.0533
23.4200 15.5832 -0.0468
23.4400 15.5965 -0.0498
23.4600 15.6099 -0.0525
23.4800 15.6232 -0.0493
23.5000 15.6365 -0.0478
23.5200 15.6499 -0.0554
23.5400 15.6632 -0.0497
23.5600 15.6766 -0.0488
23.5800 15.6899 -0.0603
23.6000 15.7031 -0.0510
23.6200 15.7165 -0.0497
23.6400 15.7298 -0.0564
23.6600 15.7432 -0.0529
23.6800 15.7565 -0.0513
23.7000 15.7698 -0.0561
23.7200 15.7831 -0.0528
23.7400 15.7965 -0.0588
23.7600 15.8098 -0.0573
23.7800 15.8231 -0.0537
23.8000 15.8365 -0.0608
23.8200 15.8499 -0.0615
23.8400 15.8632 -0.0531
23.8600 15.8766 -0.0642
23.8800 15.8899 -0.0556
23.9000 15.9032 -0.0579
23.9200 15.9165 -0.0675
23.9400 15.9298 -0.0533
23.9600 15.9431 -0.0578
23.9800 15.9565 -0.0671
24.0000 15.9698 -0.0561
24.0200 15.9831 -0.0628
24.0400 15.9964 -0.0655
24.0600 16.0098 -0.0541
24.0800 16.0232 -0.0632
24.1000 16.0365 -0.0688
24.1200 16.0498 -0.0606
24.1400 16.0632 -0.0604
24.1600 16.0765 -0.0740
24.1800 16.0899 -0.0600
24.2000 16.1032 -0.0637
24.2200 16.1165 -0.0741
24.2400 16.1298 -0.0587
24.2600 16.1432 -0.0640
24.2800 16.1565 -0.0768
24.3000 16.1699 -0.0629
24.3200 16.1832 -0.0654
24.3400 16.1965 -0.0759
24.3600 16.2099 -0.0671
24.3800 16.2232 -0.0641
24.4000 16.2365 -0.0740
24.4200 16.2498 -0.0641
24.4400 16.2631 -0.0733
24.4600 16.2765 -0.0737
24.4800 16.2898 -0.0630
24.5000 16.3031 -0.0703
24.5200 16.3165 -0.0802
24.5400 16.3299 -0.0664
24.5600 16.3432 -0.0712
24.5800 16.3565 -0.0824
24.6000 16.3699 -0.0671
24.6200 16.3832 -0.0704
24.6400 16.3966 -0.0848
24.6600 16.4099 -0.0634
24.6800 16.4232 -0.0687
24.7000 16.4365 -0.0845
24.7200 16.4499 -0.0666
24.7400 16.4632 -0.0779
24.7600 16.4765 -0.0817
24.7800 16.4898 -0.0663
24.8000 16.5031 -0.0783
24.8200 16.5165 -0.0869
24.8400 16.5298 -0.0679
24.8600 16.5431 -0.0804
24.8800 16.5565 -0.0826
24.9000 16.5699 -0.0696
24.9200 16.5832 -0.0812
24.9400 16.5966 -0.0785
24.9600 16.6099 -0.0736
24.9800 16.6232 -0.0874
25.0000 16.6366 -0.0745
25.0200 16.6499 -0.0814
25.0400 16.6632 -0.0831
25.0600 16.6765 -0.0762
25.0800 16.6898 -0.0842
25.1000 16.7031 -0.0828
25.1200 16.7164 -0.0780
25.1400 16.7298 -0.0868
25.1600 16.7431 -0.0802
25.1800 16.7565 -0.0801
25.2000 16.7698 -0.0928
25.2200 16.7831 -0.0776
25.2400 16.7965 -0.0877
25.2600 16.8098 -0.0948
25.2800 16.8232 -0.0746
25.3000 16.8365 -0.0899
25.3200 16.8499 -0.0933
25.3400 16.8632 -0.0724
25.3600 16.8766 -0.0975
25.3800 16.8899 -0.0903
25.4000 16.9032 -0.0787
25.4200 16.9165 -0.0967
25.4400 16.9298 -0.0903
25.4600 16.9432 -0.0763
25.4800 16.9564 -0.1017
25.5000 16.9697 -0.0892
25.5200 16.9831 -0.0801
25.5400 16.9964 -0.1032
25.5600 17.0098 -0.0875
25.5800 17.0231 -0.0847
25.6000 17.0365 -0.1056
25.6200 17.0499 -0.0866
25.6400 17.0632 -0.0889
25.6600 17.0765 -0.1022
25.6800 17.0899 -0.0905
25.7000 17.1032 -0.0880
25.7200 17.1166 -0.1091
25.7400 17.1299 -0.0929
25.7600 17.1432 -0.0909
25.7800 17.1565 -0.1086
25.8000 17.1699 -0.0934
25.8200 17.1832 -0.0965
25.8400 17.1965 -0.1041
25.8600 17.2098 -0.0927
25.8800 17.2231 -0.0986
25.9000 17.2365 -0.1035
25.9200 17.2498 -0.0963
25.9400 17.2631 -0.0987
25.9600 17.2765 -0.1006
25.9800 17.2899 -0.1027
26.0000 17.3032 -0.1001
26.0200 17.3165 -0.1036
26.0400 17.3299 -0.1024
26.0600 17.3432 -0.1021
26.0800 17.3566 -0.1082
26.1000 17.3699 -0.1047
26.1200 17.3832 -0.0959
26.1400 17.3965 -0.1077
26.1600 17.4098 -0.1079
26.1800 17.4231 -0.0990
26.2000 17.4364 -0.1069
26.2200 17.4498 -0.1103
26.2400 17.4631 -0.0957
26.2600 17.4765 -0.1101
26.2800 17.4898 -0.1076
26.3000 17.5032 -0.0965
26.3200 17.5165 -0.1088
26.3400 17.5298 -0.1135
26.3600 17.5432 -0.0971
26.3800 17.5565 -0.1127
26.4000 17.5698 -0.1130
26.4200 17.5832 -0.0978
26.4400 17.5965 -0.1151
26.4600 17.6099 -0.1108
26.4800 17.6232 -0.0996
26.5000 17.6365 -0.1153
26.5200 17.6499 -0.1153
26.5400 17.6632 -0.1000
26.5600 17.6765 -0.1160
26.5800 17.6898 -0.1103
26.6000 17.7031 -0.1084
26.6200 17.7164 -0.1130
26.6400 17.7298 -0.1147
26.6600 17.7431 -0.1077
26.6800 17.7565 -0.1191
26.7000 17.7699 -0.1113
26.7200 17.7832 -0.1113
26.7400 17.7966 -0.1193
26.7600 17.8099 -0.1127
26.7800 17.8232 -0.1107
26.8000 17.8366 -0.1219
26.8200 17.8499 -0.1177
26.8400 17.8632 -0.1125
26.8600 17.8765 -0.1198
26.8800 17.8898 -0.1226
26.9000 17.9031 -0.1142
26.9200 17.9164 -0.1190
26.9400 17.9297 -0.1245
26.9600 17.9431 -0.1142
26.9800 17.9564 -0.1227
27.0000 17.9698 -0.1237
27.0200 17.9831 -0.1145
27.0400 17.9965 -0.1180
27.0600 18.0099 -0.1273
27.0800 18.0232 -0.1181
27.1000 18.0366 -0.1218
27.1200 18.0499 -0.1271
27.1400 18.0632 -0.1180
27.1600 18.0766 -0.1213
27.1800 18.0899 -0.1278
27.2000 18.1032 -0.1162
27.2200 18.1165 -0.1281
27.2400 18.1298 -0.1256
27.2600 18.1432 -0.1221
27.2800 18.1565 -0.1235
27.3000 18.1698 -0.1305
27.3200 18.1831 -0.1247
27.3400 18.1965 -0.1277
27.3600 18.2098 -0.1313
27.3800 18.2232 -0.1275
27.4000 18.2365 -0.1293
27.4200 18.2499 -0.1296
27.4400 18.2632 -0.1320
27.4600 18.2765 -0.1314
27.4800 18.2899 -0.1284
27.5000 18.3032 -0.1360
27.5200 18.3166 -0.1290
27.5400 18.3299 -0.1344
27.5600 18.3432 -0.1347
27.5800 18.3565 -0.1292
27.6000 18.3699 -0.1378
27.6200 18.3832 -0.1368
27.6400 18.3965 -0.1336
27.6600 18.4098 -0.1396
27.6800 18.4231 -0.1386
27.7000 18.4365 -0.1345
27.7200 18.4498 -0.1451
27.7400 18.4631 -0.1363
27.7600 18.4765 -0.1407
27.7800 18.4899 -0.1469
27.8000 18.5032 -0.1422
27.8200 18.5166 -0.1385
27.8400 18.5299 -0.1483
27.8600 18.5432 -0.1382
27.8800 18.5565 -0.1459
27.9000 18.5699 -0.1511
27.9200 18.5832 -0.1362
27.9400 18.5965 -0.1445
27.9600 18.6098 -0.1521
27.9800 18.6232 -0.1418
28.0000 18.6365 -0.1417
28.0200 18.6498 -0.1506
28.0400 18.6631 -0.1462
28.0600 18.6765 -0.1477
28.0800 18.6898 -0.1523
28.1000 18.7031 -0.1466
28.1200 18.7165 -0.1493
28.1400 18.7298 -0.1504
28.1600 18.7432 -0.1477
28.1800 18.7566 -0.1501
28.2000 18.7699 -0.1496
28.2200 18.7832 -0.1469
28.2400 18.7966 -0.1525
28.2600 18.8099 -0.1548
28.2800 18.8232 -0.1517
28.3000 18.8365 -0.1535
28.3200 18.8498 -0.1456
28.3400 18.8632 -0.1565
28.3600 18.8765 -0.1546
28.3800 18.8898 -0.1483
28.4000 18.9031 -0.1575
28.4200 18.9164 -0.1556
28.4400 18.9298 -0.1510
28.4600 18.9432 -0.1604
28.4800 18.9565 -0.1549
28.5000 18.9698 -0.1563
28.5200 18.9832 -0.1618
28.5400 18.9965 -0.1559
28.5600 19.0098 -0.1579
28.5800 19.0232 -0.1612
28.6000 19.0365 -0.1557
28.6200 19.0499 -0.1612
28.6400 19.0632 -0.1663
28.6600 19.0765 -0.1538
28.6800 19.0898 -0.1621
28.7000 19.1032 -0.1728
28.7200 19.1165 -0.1576
28.7400 19.1298 -0.1604
28.7600 19.1431 -0.1747
28.7800 19.1564 -0.1595
28.8000 19.1698 -0.1603
28.8200 19.1831 -0.1751
28.8400 19.1965 -0.1646
28.8600 19.2099 -0.1645
28.8800 19.2232 -0.1786
28.9000 19.2366 -0.1682
28.9200 19.2499 -0.1674
28.9400 19.2632 -0.1798
28.9600 19.2766 -0.1671
28.9800 19.2899 -0.1677
29.0000 19.3032 -0.1859
29.0200 19.3165 -0.1642
29.0400 19.3298 -0.1757
29.0600 19.3431 -0.1884
29.0800 19.3565 -0.1689
29.1000 19.3698 -0.1778
29.1200 19.3831 -0.1903
29.1400 19.3965 -0.1677
29.1600 19.4099 -0.1797
29.1800 19.4232 -0.1927
29.2000 19.4365 -0.1703
29.2200 19.4499 -0.1786
29.2400 19.4632 -0.1924
29.2600 19.4766 -0.1760
29.2800 19.4899 -0.1806
29.3000 19.5032 -0.1895
29.3200 19.5165 -0.1814
29.3400 19.5299 -0.1858
29.3600 19.5432 -0.1899
29.3800 19.5565 -0.1826
29.4000 19.5698 -0.1895
29.4200 19.5832 -0.1909
29.4400 19.5965 -0.1809
29.4600 19.6098 -0.1942
29.4800 19.6231 -0.1887
29.5000 19.6365 -0.1849
29.5200 19.6498 -0.1939
29.5400 19.6632 -0.1925
29.5600 19.6765 -0.1872
29.5800 19.6898 -0.1947
29.6000 19.7032 -0.1940
29.6200 19.7165 -0.1965
29.6400 19.7298 -0.1948
29.6600 19.7432 -0.1921
29.6800 19.7565 -0.1933
29.7000 19.7699 -0.1991
29.7200 19.7832 -0.1938
29.7400 19.7965 -0.1943
29.7600 19.8098 -0.1972
29.7800 19.8232 -0.1997
29.8000 19.8365 -0.1981
29.8200 19.8498 -0.1930
29.8400 19.8631 -0.2029
29.8600 19.8764 -0.1993
29.8800 19.8898 -0.1964
29.9000 19.9031 -0.2049
29.9200 19.9165 -0.2025
29.9400 19.9298 -0.1984
29.9600 19.9432 -0.2099
29.9800 19.9566 -0.1995
30.0000 19.9699 -0.2004
30.0200 19.9832 -0.2058
30.0400 19.9966 -0.2011
30.0600 20.0099 -0.2040
30.0800 20.0232 -0.2093
30.1000 20.0365 -0.1997
30.1200 20.0498 -0.2049
30.1400 20.0632 -0.2112
30.1600 20.0765 -0.2051
30.1800 20.0898 -0.2040
30.2000 20.1031 -0.2102
30.2200 20.1165 -0.2077
30.2400 20.1298 -0.2107
30.2600 20.1431 -0.2125
30.2800 20.1565 -0.2094
30.3000 20.1698 -0.2117
30.3200 20.1832 -0.2129
30.3400 20.1965 -0.2107
30.3600 20.2099 -0.2126
30.3800 20.2232 -0.2170
30.4000 20.2365 -0.2130
30.4200 20.2499 -0.2166
30.4400 20.2632 -0.2221
30.4600 20.2765 -0.2184
30.4800 20.2898 -0.2189
30.5000 20.3032 -0.2228
30.5200 20.3165 -0.2206
30.5400 20.3298 -0.2258
30.5600 20.3431 -0.2269
30.5800 20.3564 -0.2269
30.6000 20.3698 -0.2264
30.6200 20.3831 -0.2300
30.6400 20.3965 -0.2257
30.6600 20.4099 -0.2242
30.6800 20.4232 -0.2310
30.7000 20.4366 -0.2424
30.7200 20.4499 -0.2081
30.7400 20.4632 -0.1531
30.7600 20.4765 -0.0914
30.7800 20.4899 -0.0268
30.8000 20.5032 -0.0015
30.8200 20.5165 0.0196
30.8400 20.5298 0.0751
30.8600 20.5432 0.1198
30.8800 20.5565 0.1732
30.9000 20.5698 0.2407
30.9200 20.5831 0.2857
30.9400 20.5964 0.3376
30.9600 20.6098 0.3919
30.9800 20.6231 0.4248
31.0000 20.6365 0.4623
31.0200 20.6498 0.5210
31.0400 20.6632 0.5427
31.0600 20.6766 0.5786
31.0800 20.6899 0.6072
31.1000 20.7032 0.6009
31.1200 20.7166 0.5988
31.1400 20.7299 0.6087
31.1600 20.7432 0.5998
31.1800 20.7565 0.6014
31.2000 20.7698 0.6080
31.2200 20.7831 0.6021
31.2400 20.7965 0.5967
31.2600 20.8098 0.6082
31.2800 20.8231 0.5996
31.3000 20.8365 0.5951
31.3200 20.8499 0.6072
31.3400 20.8632 0.5979
31.3600 20.8765 0.5938
31.3800 20.8899 0.6072
31.4000 20.9032 0.5947
31.4200 20.9166 0.5892
31.4400 20.9299 0.6025
31.4600 20.9432 0.5960
31.4800 20.9565 0.5834
31.5000 20.9699 0.6002
31.5200 20.9832 0.5954
31.5400 20.9965 0.5798
31.5600 21.0098 0.6002
31.5800 21.0232 0.5887
31.6000 21.0365 0.5803
31.6200 21.0498 0.5947
31.6400 21.0631 0.5881
31.6600 21.0765 0.5767
31.6800 21.0898 0.5943
31.7000 21.1031 0.5846
31.7200 21.1165 0.5781
31.7400 21.1298 0.5891
31.7600 21.1432 0.5829
31.7800 21.1565 0.5706
31.8000 21.1699 0.5874
31.8200 21.1832 0.5798
31.8400 21.1965 0.5713
31.8600 21.2099 0.5843
31.8800 21.2232 0.5778
31.9000 21.2365 0.5667
31.9200 21.2498 0.5852
31.9400 21.2632 0.5726
31.9600 21.2765 0.5626
31.9800 21.2898 0.5843
32.0000 21.3031 0.5719
32.0200 21.3164 0.5582
32.0400 21.3298 0.5824
32.0600 21.3431 0.5714
32.0800 21.3565 0.5591
32.1000 21.3698 0.5753
32.1200 21.3832 0.5646
32.1400 21.3965 0.5651
32.1600 21.4099 0.5708
32.1800 21.4232 0.5649
32.2000 21.4365 0.5567
32.2200 21.4499 0.5735
32.2400 21.4632 0.5589
32.2600 21.4765 0.5576
32.2800 21.4898 0.5676
32.3000 21.5031 0.5565
32.3200 21.5165 0.5528
32.3400 21.5298 0.5602
32.3600 21.5431 0.5575
32.3800 21.5564 0.5555
32.4000 21.5698 0.5530
32.4200 21.5832 0.5555
32.4400 21.5965 0.5475
32.4600 21.6098 0.5517
32.4800 21.6232 0.5489
32.5000 21.6365 0.5430
32.5200 21.6499 0.5418
32.5400 21.6632 0.5432
32.5600 21.6765 0.5436
32.5800 21.6899 0.5395
32.6000 21.7032 0.5441
32.6200 21.7165 0.5341
32.6400 21.7298 0.5367
32.6600 21.7432 0.5405
32.6800 21.7565 0.5321
32.7000 21.7698 0.5314
32.7200 21.7831 0.5383
32.7400 21.7964 0.5312
32.7600 21.8098 0.5286
32.7800 21.8231 0.5331
32.8000 21.8365 0.5301
32.8200 21.8498 0.5250
32.8400 21.8632 0.5355
32.8600 21.8766 0.5228
32.8800 21.8899 0.5215
32.9000 21.9032 0.5322
32.9200 21.9165 0.5247
32.9400 21.9299 0.5179
32.9600 21.9432 0.5275
32.9800 21.9565 0.5195
33.0000 21.9698 0.5192
33.0200 21.9832 0.5195
33.0400 21.9965 0.5192
33.0600 22.0099 0.5168
33.0800 22.0232 0.5185
33.1000 22.0365 0.5174
33.1200 22.0498 0.5155
33.1400 22.0631 0.5191
33.1600 22.0765 0.5148
33.1800 22.0898 0.5132
33.2000 22.1032 0.5106
33.2200 22.1166 0.5179
33.2400 22.1299 0.5060
33.2600 22.1432 0.5087
33.2800 22.1565 0.5159
33.3000 22.1699 0.5012
33.3200 22.1832 0.5081
33.3400 22.1965 0.5137
33.3600 22.2098 0.4980
33.3800 22.2231 0.5120
33.4000 22.2365 0.5058
33.4200 22.2498 0.4950
33.4400 22.2631 0.5073
33.4600 22.2764 0.5078
33.4800 22.2898 0.4895
33.5000 22.3032 0.5025
33.5200 22.3165 0.5049
33.5400 22.3298 0.4903
33.5600 22.3432 0.5018
33.5800 22.3565 0.5003
33.6000 22.3699 0.4831
33.6200 22.3832 0.5001
33.6400 22.3965 0.4922
33.6600 22.4098 0.4832
33.6800 22.4232 0.4949
33.7000 22.4365 0.4856
33.7200 22.4499 0.4804
33.7400 22.4632 0.4949
33.7600 22.4766 0.4882
33.7800 22.4899 0.4757
33.8000 22.5031 0.4919
33.8200 22.5164 0.4853
33.8400 22.5298 0.4798
33.8600 22.5431 0.4796
33.8800 22.5564 0.4834
33.9000 22.5698 0.4745
33.9200 22.5832 0.4792
33.9400 22.5966 0.4795
33.9600 22.6099 0.4726
33.9800 22.6232 0.4778
34.0000 22.6366 0.4823
34.0200 22.6499 0.4702
34.0400 22.6633 0.4787
34.0600 22.6766 0.4748
34.0800 22.6899 0.4669
34.1000 22.7031 0.4760
34.1200 22.7165 0.4768
34.1400 22.7298 0.4602
34.1600 22.7431 0.4700
34.1800 22.7564 0.4722
34.2000 22.7698 0.4604
34.2200 22.7831 0.4702
34.2400 22.7965 0.4662
34.2600 22.8098 0.4527
34.2800 22.8232 0.4692
34.3000 22.8366 0.4618
34.3200 22.8499 0.4478
34.3400 22.8632 0.4647
34.3600 22.8766 0.4599
34.3800 22.8899 0.4462
34.4000 22.9032 0.4596
34.4200 22.9165 0.4561
34.4400 22.9298 0.4501
34.4600 22.9432 0.4627
34.4800 22.9565 0.4497
34.5000 22.9698 0.4492
34.5200 22.9831 0.4538
34.5400 22.9964 0.4530
34.5600 23.0098 0.4477
34.5800 23.0231 0.4513
34.6000 23.0365 0.4489
34.6200 23.0498 0.4463
34.6400 23.0631 0.4463
34.6600 23.0765 0.4465
34.6800 23.0899 0.4448
34.7000 23.1032 0.4420
34.7200 23.1165 0.4476
34.7400 23.1299 0.4408
34.7600 23.1432 0.4330
34.7800 23.1565 0.4485
34.8000 23.1698 0.4397
34.8200 23.1832 0.4347
34.8400 23.1965 0.4453
34.8600 23.2099 0.4310
34.8800 23.2231 0.4330
34.9000 23.2364 0.4473
34.9200 23.2498 0.4289
34.9400 23.2631 0.4270
34.9600 23.2765 0.4395
34.9800 23.2898 0.4262
35.0000 23.3032 0.4277
35.0200 23.3166 0.4341
35.0400 23.3299 0.4235
35.0600 23.3432 0.4232
35.0800 23.3565 0.4332
35.1000 23.3699 0.4177
35.1200 23.3832 0.4212
35.1400 23.3965 0.4265
35.1600 23.4098 0.4191
35.1800 23.4231 0.4193
35.2000 23.4365 0.4270
35.2200 23.4498 0.4128
35.2400 23.4631 0.4163
35.2600 23.4765 0.4217
35.2800 23.4898 0.4150
35.3000 23.5031 0.4119
35.3200 23.5165 0.4187
35.3400 23.5298 0.4139
35.3600 23.5431 0.4100
35.3800 23.5565 0.4167
35.4000 23.5699 0.4115
35.4200 23.5832 0.4078
35.4400 23.5965 0.4146
35.4600 23.6099 0.4134
35.4800 23.6233 0.4085
35.5000 23.6366 0.4136
35.5200 23.6499 0.4099
35.5400 23.6632 0.4084
35.5600 23.6765 0.4098
35.5800 23.6898 0.4066
35.6000 23.7031 0.4064
35.6200 23.7164 0.4114
35.6400 23.7298 0.4063
35.6600 23.7431 0.3997
35.6800 23.7565 0.4043
35.7000 23.7698 0.4020
35.7200 23.7832 0.3947
35.7400 23.7965 0.4089
35.7600 23.8099 0.3952
35.7800 23.8232 0.3968
35.8000 23.8365 0.4063
35.8200 23.8499 0.3929
35.8400 23.8632 0.3907
35.8600 23.8765 0.4027
35.8800 23.8899 0.3895
35.9000 23.9032 0.3904
35.9200 23.9165 0.3987
35.9400 23.9298 0.3906
35.9600 23.9431 0.3909
35.9800 23.9564 0.3922
36.0000 23.9697 0.3854
36.0200 23.9831 0.3875
36.0400 23.9964 0.3895
36.0600 24.0098 0.3829
36.0800 24.0231 0.3805
36.1000 24.0365 0.3829
36.1200 24.0499 0.3798
36.1400 24.0633 0.3787
36.1600 24.0766 0.3802
36.1800 24.0899 0.3786
36.2000 24.1032 0.3753
36.2200 24.1165 0.3775
36.2400 24.1298 0.3781
36.2600 24.1431 0.3681
36.2800 24.1565 0.3796
36.3000 24.1698 0.3710
36.3200 24.1831 0.3651
36.3400 24.1964 0.3787
36.3600 24.2098 0.3710
36.3800 24.2232 0.3592
36.4000 24.2365 0.3761
36.4200 24.2498 0.3691
36.4400 24.2632 0.3578
36.4600 24.2765 0.3707
36.4800 24.2899 0.3652
36.5000 24.3032 0.3527
36.5200 24.3165 0.3691
36.5400 24.3298 0.3596
36.5600 24.3432 0.3539
36.5800 24.3565 0.3661
36.6000 24.3698 0.3544
36.6200 24.3831 0.3534
36.6400 24.3965 0.3601
36.6600 24.4098 0.3535
36.6800 24.4231 0.3485
36.7000 24.4364 0.3592
36.7200 24.4498 0.3528
36.7400 24.4632 0.3465
36.7600 24.4765 0.3566
36.7800 24.4898 0.3489
36.8000 24.5032 0.3448
36.8200 24.5165 0.3571
36.8400 24.5299 0.3407
36.8600 24.5432 0.3442
36.8800 24.5565 0.3494
36.9000 24.5699 0.3480
36.9200 24.5832 0.3416
36.9400 24.5966 0.3436
36.9600 24.6099 0.3456
36.9800 24.6232 0.3407
37.0000 24.6365 0.3419
37.0200 24.6498 0.3461
37.0400 24.6631 0.3373
37.0600 24.6764 0.3404
37.0800 24.6898 0.3431
37.1000 24.7031 0.3319
37.1200 24.7165 0.3392
37.1400 24.7298 0.3460
37.1600 24.7431 0.3283
37.1800 24.7565 0.3386
37.2000 24.7699 0.3404
37.2200 24.7832 0.3258
37.2400 24.7966 0.3428
37.2600 24.8099 0.3353
37.2800 24.8232 0.3239
37.3000 24.8365 0.3384
37.3200 24.8498 0.3283
37.3400 24.8631 0.3242
37.3600 24.8765 0.3428
37.3800 24.8899 0.3250
37.4000 24.9032 0.3216
37.4200 24.9165 0.3382
37.4400 24.9298 0.3212
37.4600 24.9431 0.3230
37.4800 24.9565 0.3368
37.5000 24.9698 0.3134
37.5200 24.9831 0.3234
37.5400 24.9965 0.3290
37.5600 25.0099 0.3132
37.5800 25.0232 0.3220
37.6000 25.0365 0.3308
37.6200 25.0498 0.3114
37.6400 25.0632 0.3218
37.6600 25.0766 0.3245
37.6800 25.0899 0.3124
37.7000 25.1032 0.3197
37.7200 25.1165 0.3179
37.7400 25.1298 0.3124
37.7600 25.1432 0.3169
37.7800 25.1564 0.3101
37.8000 25.1697 0.3132
37.8200 25.1831 0.3133
37.8400 25.1965 0.3077
37.8600 25.2098 0.3111
37.8800 25.2232 0.3123
37.9000 25.2365 0.3069
37.9200 25.2499 0.3096
37.9400 25.2632 0.3096
37.9600 25.2765 0.3065
37.9800 25.2899 0.3101
38.0000 25.3032 0.3027
38.0200 25.3166 0.3030
38.0400 25.3299 0.3094
38.0600 25.3432 0.3036
38.0800 25.3565 0.2998
38.1000 25.3698 0.3067
38.1200 25.3832 0.2973
38.1400 25.3964 0.3003
38.1600 25.4098 0.3028
38.1800 25.4231 0.2969
38.2000 25.4364 0.2950
38.2200 25.4498 0.3053
38.2400 25.4631 0.2947
38.2600 25.4765 0.2978
38.2800 25.4899 0.3006
38.3000 25.5032 0.2927
38.3200 25.5165 0.2952
38.3400 25.5299 0.2977
38.3600 25.5432 0.2905
38.3800 25.5566 0.2926
38.4000 25.5698 0.2952
38.4200 25.5831 0.2942
38.4400 25.5965 0.2928
38.4600 25.6098 0.2905
38.4800 25.6231 0.2921
38.5000 25.6364 0.2890
38.5200 25.6498 0.2905
38.5400 25.6632 0.2924
38.5600 25.6765 0.2867
38.5800 25.6899 0.2820
38.6000 25.7032 0.2907
38.6200 25.7165 0.2828
38.6400 25.7299 0.2833
38.6600 25.7432 0.2906
38.6800 25.7565 0.2838
38.7000 25.7698 0.2803
38.7200 25.7832 0.2896
38.7400 25.7965 0.2798
38.7600 25.8099 0.2802
38.7800 25.8232 0.2877
38.8000 25.8365 0.2759
38.8200 25.8499 0.2792
38.8400 25.8632 0.2857
38.8600 25.8765 0.2732
38.8800 25.8898 0.2778
38.9000 25.9031 0.2842
38.9200 25.9165 0.2694
38.9400 25.9298 0.2727
38.9600 25.9431 0.2764
38.9800 25.9565 0.2676
39.0000 25.9698 0.2706
39.0200 25.9832 0.2706
39.0400 25.9965 0.2632
39.0600 26.0098 0.2747
39.0800 26.0232 0.2694
39.1000 26.0365 0.2640
39.1200 26.0499 0.2695
39.1400 26.0632 0.2625
39.1600 26.0765 0.2633
39.1800 26.0899 0.2710
39.2000 26.1032 0.2601
39.2200 26.1165 0.2572
39.2400 26.1298 0.2668
39.2600 26.1431 0.2600
39.2800 26.1564 0.2599
39.3000 26.1698 0.2610
39.3200 26.1831 0.2591
39.3400 26.1965 0.2645
39.3600 26.2099 0.2540
39.3800 26.2232 0.2553
39.4000 26.2366 0.2578
39.4200 26.2499 0.2552
39.4400 26.2632 0.2561
39.4600 26.2766 0.2564
39.4800 26.2898 0.2489
39.5000 26.3031 0.2603
39.5200 26.3165 0.2553
39.5400 26.3298 0.2455
39.5600 26.3432 0.2578
39.5800 26.3564 0.2495
39.6000 26.3698 0.2436
39.6200 26.3831 0.2591
39.6400 26.3965 0.2435
39.6600 26.4098 0.2425
39.6800 26.4232 0.2545
39.7000 26.4365 0.2406
39.7200 26.4499 0.2399
39.7400 26.4632 0.2527
39.7600 26.4765 0.2390
39.7800 26.4899 0.2362
39.8000 26.5032 0.2498
39.8200 26.5166 0.2340
39.8400 26.5299 0.2391
39.8600 26.5432 0.2463
39.8800 26.5565 0.2361
39.9000 26.5698 0.2306
39.9200 26.5831 0.2472
39.9400 26.5964 0.2315
39.9600 26.6097 0.2276
39.9800 26.6231 0.2437
40.0000 26.6364 0.2279
40.0200 26.6498 0.2257
40.0400 26.6631 0.2424
40.0600 26.6765 0.2261
40.0800 26.6899 0.2246
40.1000 26.7032 0.2352
40.1200 26.7165 0.2247
40.1400 26.7298 0.2212
40.1600 26.7432 0.2388
40.1800 26.7565 0.2227
40.2000 26.7699 0.2179
40.2200 26.7832 0.2339
40.2400 26.7965 0.2168
40.2600 26.8098 0.2184
40.2800 26.8232 0.2308
40.3000 26.8365 0.2179
40.3200 26.8498 0.2147
40.3400 26.8631 0.2250
40.3600 26.8765 0.2133
40.3800 26.8898 0.2067
40.4000 26.9031 0.2225
40.4200 26.9165 0.2127
40.4400 26.9299 0.1995
40.4600 26.9432 0.2189
40.4800 26.9565 0.2079
40.5000 26.9698 0.2020
40.5200 26.9832 0.2142
40.5400 26.9966 0.2047
40.5600 27.0099 0.1967
40.5800 27.0232 0.2149
40.6000 27.0365 0.2026
40.6200 27.0498 0.1922
40.6400 27.0632 0.2112
40.6600 27.0765 0.1978
40.6800 27.0898 0.1900
40.7000 27.1031 0.2078
40.7200 27.1165 0.1960
40.7400 27.1298 0.1889
40.7600 27.1432 0.2057
40.7800 27.1565 0.1926
40.8000 27.1698 0.1892
40.8200 27.1832 0.2012
40.8400 27.1965 0.1941
40.8600 27.2098 0.1843
40.8800 27.2232 0.2021
40.9000 27.2365 0.1874
40.9200 27.2499 0.1796
40.9400 27.2632 0.2013
40.9600 27.2765 0.1886
40.9800 27.2899 0.1761
41.0000 27.3032 0.2003
41.0200 27.3165 0.1846
41.0400 27.3298 0.1783
41.0600 27.3431 0.1959
41.0800 27.3565 0.1879
41.1000 27.3698 0.1754
41.1200 27.3831 0.1931
41.1400 27.3965 0.1830
41.1600 27.4099 0.1765
41.1800 27.4233 0.1882
41.2000 27.4366 0.1783
41.2200 27.4499 0.1760
41.2400 27.4632 0.1865
41.2600 27.4766 0.1765
41.2800 27.4899 0.1740
41.3000 27.5032 0.1829
41.3200 27.5165 0.1764
41.3400 27.5298 0.1684
41.3600 27.5432 0.1825
41.3800 27.5565 0.1779
41.4000 27.5698 0.1734
41.4200 27.5831 0.1835
41.4400 27.5964 0.1746
41.4600 27.6098 0.1735
41.4800 27.6231 0.1782
41.5000 27.6365 0.1804
41.5200 27.6499 0.1711
41.5400 27.6632 0.1783
41.5600 27.6766 0.1781
41.5800 27.6899 0.1726
41.6000 27.7032 0.1732
41.6200 27.7166 0.1776
41.6400 27.7299 0.1692
41.6600 27.7432 0.1762
41.6800 27.7565 0.1701
41.7000 27.7698 0.1750
41.7200 27.7832 0.1716
41.7400 27.7965 0.1692
41.7600 27.8098 0.1717
41.7800 27.8231 0.1752
41.8000 27.8365 0.1660
41.8200 27.8498 0.1657
41.8400 27.8632 0.1710
41.8600 27.8765 0.1719
41.8800 27.8899 0.1641
41.9000 27.9032 0.1677
41.9200 27.9165 0.1703
41.9400 27.9299 0.1589
41.9600 27.9432 0.1678
41.9800 27.9566 0.1651
42.0000 27.9699 0.1551
42.0200 27.9832 0.1651
42.0400 27.9965 0.1666
42.0600 28.0098 0.1536
42.0800 28.0232 0.1663
42.1000 28.0365 0.1623
42.1200 28.0498 0.1513
42.1400 28.0631 0.1625
42.1600 28.0765 0.1571
42.1800 28.0898 0.1511
42.2000 28.1031 0.1603
42.2200 28.1165 0.1553
42.2400 28.1299 0.1514
42.2600 28.1433 0.1553
42.2800 28.1566 0.1526
42.3000 28.1699 0.1444
42.3200 28.1832 0.1561
42.3400 28.1965 0.1504
42.3600 28.2099 0.1460
42.3800 28.2231 0.1462
42.4000 28.2364 0.1470
42.4200 28.2498 0.1448
42.4400 28.2632 0.1395
42.4600 28.2765 0.1424
42.4800 28.2898 0.1446
42.5000 28.3031 0.1389
42.5200 28.3165 0.1382
42.5400 28.3298 0.1416
42.5600 28.3431 0.1390
42.5800 28.3565 0.1395
42.6000 28.3698 0.1388
42.6200 28.3832 0.1346
42.6400 28.3965 0.1354
42.6600 28.4099 0.1409
42.6800 28.4232 0.1320
42.7000 28.4366 0.1368
42.7200 28.4499 0.1274
42.7400 28.4632 0.1315
42.7600 28.4765 0.1368
42.7800 28.4898 0.1290
42.8000 28.5032 0.1273
42.8200 28.5165 0.1361
42.8400 28.5298 0.1212
42.8600 28.5431 0.1312
42.8800 28.5565 0.1335
42.9000 28.5698 0.1214
42.9200 28.5831 0.1266
42.9400 28.5965 0.1365
42.9600 28.6098 0.1190
42.9800 28.6232 0.1241
43.0000 28.6365 0.1322
43.0200 28.6498 0.1156
43.0400 28.6632 0.1249
43.0600 28.6765 0.1294
43.0800 28.6899 0.1140
43.1000 28.7032 0.1235
43.1200 28.7165 0.1295
43.1400 28.7298 0.1125
43.1600 28.7432 0.1269
43.1800 28.7565 0.1229
43.2000 28.7698 0.1108
43.2200 28.7831 0.1271
43.2400 28.7964 0.1179
43.2600 28.8098 0.1093
43.2800 28.8231 0.1269
43.3000 28.8364 0.1157
43.3200 28.8498 0.1130
43.3400 28.8632 0.1221
43.3600 28.8766 0.1103
43.3800 28.8899 0.1108
43.4000 28.9033 0.1219
43.4200 28.9166 0.1038
43.4400 28.9299 0.1108
43.4600 28.9432 0.1173
43.4800 28.9565 0.1071
43.5000 28.9698 0.1107
43.5200 28.9831 0.1169
43.5400 28.9964 0.1013
43.5600 29.0098 0.1130
43.5800 29.0231 0.1093
43.6000 29.0365 0.1009
43.6200 29.0498 0.1164
43.6400 29.0632 0.1057
43.6600 29.0765 0.1056
43.6800 29.0899 0.1150
43.7000 29.1033 0.1012
43.7200 29.1166 0.1064
43.7400 29.1299 0.1125
43.7600 29.1432 0.0982
43.7800 29.1565 0.1102
43.8000 29.1699 0.1063
43.8200 29.1832 0.0975
43.8400 29.1965 0.1097
43.8600 29.2098 0.1043
43.8800 29.2231 0.0985
43.9000 29.2365 0.1105
43.9200 29.2498 0.0990
43.9400 29.2631 0.1021
43.9600 29.2764 0.1049
43.9800 29.2898 0.0980
44.0000 29.3031 0.1036
44.0200 29.3165 0.1016
44.0400 29.3298 0.0972
44.0600 29.3432 0.1044
44.0800 29.3566 0.0953
44.1000 29.3699 0.1008
44.1200 29.3832 0.1050
44.1400 29.3965 0.0924
44.1600 29.4099 0.0971
44.1800 29.4232 0.1051
44.2000 29.4365 0.0893
44.2200 29.4498 0.0995
44.2400 29.4632 0.1002
44.2600 29.4765 0.0847
44.2800 29.4898 0.1008
44.3000 29.5031 0.0942
44.3200 29.5164 0.0841
44.3400 29.5298 0.0983
44.3600 29.5431 0.0918
44.3800 29.5565 0.0822
44.4000 29.5698 0.0986
44.4200 29.5832 0.0909
44.4400 29.5966 0.0809
44.4600 29.6099 0.0945
44.4800 29.6232 0.0894
44.5000 29.6365 0.0789
44.5200 29.6499 0.0926
44.5400 29.6632 0.0826
44.5600 29.6765 0.0794
44.5800 29.6898 0.0889
44.6000 29.7032 0.0811
44.6200 29.7165 0.0758
44.6400 29.7298 0.0836
44.6600 29.7431 0.0754
44.6800 29.7564 0.0748
44.7000 29.7698 0.0759
44.7200 29.7831 0.0725
44.7400 29.7965 0.0696
44.7600 29.8098 0.0712
44.7800 29.8232 0.0686
44.8000 29.8365 0.0675
44.8200 29.8499 0.0693
44.8400 29.8632 0.0693
44.8600 29.8765 0.0604
44.8800 29.8899 0.0652
44.9000 29.9032 0.0612
44.9200 29.9165 0.0588
44.9400 29.9298 0.0632
44.9600 29.9432 0.0599
44.9800 29.9565 0.0583
45.0000 29.9698 0.0568
45.0200 29.9831 0.0620
45.0400 29.9964 0.0516
45.0600 30.0098 0.0605
45.0800 30.0231 0.0540
45.1000 30.0365 0.0497
45.1200 30.0499 0.0607
45.1400 30.0632 0.0547
45.1600 30.0766 0.0423
45.1800 30.0899 0.0562
45.2000 30.1032 0.0494
45.2200 30.1165 0.0500
45.2400 30.1299 0.0540
45.2600 30.1432 0.0455
45.2800 30.1565 0.0464
45.3000 30.1698 0.0550
45.3200 30.1831 0.0482
45.3400 30.1965 0.0438
45.3600 30.2098 0.0502
45.3800 30.2231 0.0459
45.4000 30.2364 0.0419
45.4200 30.2498 0.0495
45.4400 30.2631 0.0452
45.4600 30.2765 0.0392
45.4800 30.2898 0.0484
45.5000 30.3032 0.0427
45.5200 30.3166 0.0372
45.5400 30.3299 0.0455
45.5600 30.3432 0.0402
45.5800 30.3565 0.0390
45.6000 30.3699 0.0456
45.6200 30.3832 0.0389
45.6400 30.3965 0.0369
45.6600 30.4098 0.0437
45.6800 30.4231 0.0399
45.7000 30.4365 0.0304
45.7200 30.4498 0.0415
45.7400 30.4631 0.0400
45.7600 30.4765 0.0315
45.7800 30.4898 0.0360
45.8000 30.5032 0.0373
45.8200 30.5165 0.0274
45.8400 30.5298 0.0394
45.8600 30.5432 0.0364
45.8800 30.5565 0.0201
45.9000 30.5699 0.0377
45.9200 30.5832 0.0368
45.9400 30.5965 0.0239
45.9600 30.6098 0.0393
45.9800 30.6232 0.0275
46.0000 30.6365 0.0193
46.0200 30.6499 0.0373
46.0400 30.6632 0.0208
46.0600 30.6766 0.0182
46.0800 30.6899 0.0311
46.1000 30.7031 0.0188
46.1200 30.7165 0.0170
46.1400 30.7298 0.0324
46.1600 30.7431 0.0156
46.1800 30.7565 0.0173
46.2000 30.7698 0.0286
46.2200 30.7832 0.0146
46.2400 30.7965 0.0183
46.2600 30.8099 0.0210
46.2800 30.8232 0.0145
46.3000 30.8365 0.0253
46.3200 30.8499 0.0119
46.3400 30.8632 0.0142
46.3600 30.8765 0.0220
46.3800 30.8899 0.0115
46.4000 30.9032 0.0123
46.4200 30.9166 0.0187
46.4400 30.9299 0.0078
46.4600 30.9432 0.0120
46.4800 30.9565 0.0167
46.5000 30.9698 0.0050
46.5200 30.9831 0.0152
46.5400 30.9965 0.0102
46.5600 31.0098 0.0062
46.5800 31.0232 0.0172
46.6000 31.0365 0.0046
46.6200 31.0499 0.0079
46.6400 31.0632 0.0163
46.6600 31.0765 0.0039
46.6800 31.0899 0.0051
46.7000 31.1032 0.0150
46.7200 31.1165 0.0017
46.7400 31.1298 0.0078
46.7600 31.1432 0.0133
46.7800 31.1565 -0.0029
46.8000 31.1698 0.0132
46.8200 31.1831 0.0074
46.8400 31.1964 -0.0021
46.8600 31.2098 0.0117
46.8800 31.2232 0.0033
46.9000 31.2365 -0.0044
46.9200 31.2498 0.0151
46.9400 31.2632 0.0006
46.9600 31.2765 -0.0057
46.9800 31.2899 0.0130
47.0000 31.3032 0.0018
47.0200 31.3165 -0.0079
47.0400 31.3299 0.0107
47.0600 31.3432 -0.0035
47.0800 31.3565 -0.0059
47.1000 31.3698 0.0120
47.1200 31.3832 -0.0042
47.1400 31.3965 -0.0046
47.1600 31.4098 0.0025
47.1800 31.4231 -0.0057
47.2000 31.4364 -0.0034
47.2200 31.4498 0.0027
47.2400 31.4631 -0.0087
47.2600 31.4765 -0.0052
47.2800 31.4898 0.0011
47.3000 31.5032 -0.0084
47.3200 31.5166 -0.0110
47.3400 31.5299 -0.0038
47.3600 31.5432 -0.0060
47.3800 31.5565 -0.0057
47.4000 31.5699 -0.0138
47.4200 31.5832 -0.0062
47.4400 31.5965 -0.0094
47.4600 31.6098 -0.0133
47.4800 31.6231 -0.0093
47.5000 31.6365 -0.0139
47.5200 31.6498 -0.0165
47.5400 31.6631 -0.0098
47.5600 31.6765 -0.0176
47.5800 31.6898 -0.0183
47.6000 31.7031 -0.0107
47.6200 31.7165 -0.0190
47.6400 31.7298 -0.0192
47.6600 31.7432 -0.0131
47.6800 31.7566 -0.0208
47.7000 31.7699 -0.0173
47.7200 31.7832 -0.0149
47.7400 31.7965 -0.0255
47.7600 31.8099 -0.0153
47.7800 31.8232 -0.0199
47.8000 31.8365 -0.0195
47.8200 31.8498 -0.0177
47.8400 31.8631 -0.0242
47.8600 31.8765 -0.0187
47.8800 31.8898 -0.0190
47.9000 31.9031 -0.0263
47.9200 31.9164 -0.0188
47.9400 31.9298 -0.0225
47.9600 31.9432 -0.0307
47.9800 31.9565 -0.0232
48.0000 31.9698 -0.0252
48.0200 31.9831 -0.0279
48.0400 31.9965 -0.0184
48.0600 32.0098 -0.0313
48.0800 32.0232 -0.0306
48.1000 32.0365 -0.0205
48.1200 32.0498 -0.0312
48.1400 32.0632 -0.0289
48.1600 32.0765 -0.0231
48.1800 32.0899 -0.0381
48.2000 32.1032 -0.0313
48.2200 32.1166 -0.0305
48.2400 32.1299 -0.0395
48.2600 32.1431 -0.0279
48.2800 32.1564 -0.0318
48.3000 32.1698 -0.0400
48.3200 32.1831 -0.0309
48.3400 32.1964 -0.0357
48.3600 32.2098 -0.0426
48.3800 32.2231 -0.0324
48.4000 32.2365 -0.0422
48.4200 32.2499 -0.0450
48.4400 32.2632 -0.0363
48.4600 32.2765 -0.0418
48.4800 32.2899 -0.0435
48.5000 32.3033 -0.0395
48.5200 32.3166 -0.0518
48.5400 32.3299 -0.0449
48.5600 32.3432 -0.0410
48.5800 32.3565 -0.0512
48.6000 32.3698 -0.0460
48.6200 32.3831 -0.0449
48.6400 32.3964 -0.0512
48.6600 32.4098 -0.0419
48.6800 32.4231 -0.0530
48.7000 32.4365 -0.0540
48.7200 32.4498 -0.0481
48.7400 32.4632 -0.0550
48.7600 32.4765 -0.0533
48.7800 32.4899 -0.0523
48.8000 32.5032 -0.0608
48.8200 32.5166 -0.0544
48.8400 32.5299 -0.0520
48.8600 32.5433 -0.0628
48.8800 32.5565 -0.0545
48.9000 32.5698 -0.0602
48.9200 32.5831 -0.0623
48.9400 32.5965 -0.0533
48.9600 32.6098 -0.0596
48.9800 32.6231 -0.0668
49.0000 32.6365 -0.0542
49.0200 32.6498 -0.0642
49.0400 32.6631 -0.0673
49.0600 32.6765 -0.0591
49.0800 32.6898 -0.0594
49.1000 32.7032 -0.0647
49.1200 32.7165 -0.0571
49.1400 32.7299 -0.0723
49.1600 32.7432 -0.0599
49.1800 32.7565 -0.0580
49.2000 32.7699 -0.0745
49.2200 32.7832 -0.0609
49.2400 32.7965 -0.0614
49.2600 32.8098 -0.0773
49.2800 32.8232 -0.0662
49.3000 32.8365 -0.0654
49.3200 32.8498 -0.0754
49.3400 32.8631 -0.0636
49.3600 32.8764 -0.0695
49.3800 32.8898 -0.0745
49.4000 32.9031 -0.0667
49.4200 32.9165 -0.0747
49.4400 32.9298 -0.0714
49.4600 32.9432 -0.0677
49.4800 32.9566 -0.0771
49.5000 32.9699 -0.0736
49.5200 32.9832 -0.0744
49.5400 32.9965 -0.0731
49.5600 33.0099 -0.0690
49.5800 33.0232 -0.0729
49.6000 33.0365 -0.0783
49.6200 33.0498 -0.0661
49.6400 33.0631 -0.0776
49.6600 33.0765 -0.0775
49.6800 33.0898 -0.0695
49.7000 33.1031 -0.0803
49.7200 33.1164 -0.0783
49.7400 33.1298 -0.0703
49.7600 33.1431 -0.0801
49.7800 33.1565 -0.0778
49.8000 33.1698 -0.0734
49.8200 33.1831 -0.0812
49.8400 33.1965 -0.0763
49.8600 33.2099 -0.0770
49.8800 33.2232 -0.0828
49.9000 33.2365 -0.0731
49.9200 33.2499 -0.0764
49.9400 33.2633 -0.0857
49.9600 33.2766 -0.0757
49.9800 33.2899 -0.0779
50.0000 33.3032 -0.0845
50.0200 33.3165 -0.0769
50.0400 33.3298 -0.0814
50.0600 33.3432 -0.0931
50.0800 33.3565 -0.0746
50.1000 33.3698 -0.0848
50.1200 33.3831 -0.0893
50.1400 33.3965 -0.0796
50.1600 33.4098 -0.0906
50.1800 33.4231 -0.0962
50.2000 33.4365 -0.0780
50.2200 33.4499 -0.0934
50.2400 33.4632 -0.0986
50.2600 33.4765 -0.0845
50.2800 33.4899 -0.0959
50.3000 33.5032 -0.0996
50.3200 33.5165 -0.0859
50.3400 33.5299 -0.1010
50.3600 33.5432 -0.1009
50.3800 33.5565 -0.0911
50.4000 33.5699 -0.1055
50.4200 33.5832 -0.1023
50.4400 33.5965 -0.0951
50.4600 33.6098 -0.1031
50.4800 33.6231 -0.1062
50.5000 33.6364 -0.1001
50.5200 33.6497 -0.1063
50.5400 33.6631 -0.1038
50.5600 33.6765 -0.1019
50.5800 33.6899 -0.1042
50.6000 33.7032 -0.1057
50.6200 33.7166 -0.1037
50.6400 33.7299 -0.1043
50.6600 33.7432 -0.1075
50.6800 33.7565 -0.1066
50.7000 33.7698 -0.1014
50.7200 33.7831 -0.1138
50.7400 33.7965 -0.0990
50.7600 33.8098 -0.1043
50.7800 33.8231 -0.1108
50.8000 33.8365 -0.1054
50.8200 33.8498 -0.1010
50.8400 33.8632 -0.1160
50.8600 33.8765 -0.1100
50.8800 33.8898 -0.1019
50.9000 33.9032 -0.1163
50.9200 33.9165 -0.1104
50.9400 33.9299 -0.1051
50.9600 33.9432 -0.1224
50.9800 33.9565 -0.1033
51.0000 33.9698 -0.1082
51.0200 33.9832 -0.1214
51.0400 33.9965 -0.1056
51.0600 34.0098 -0.1078
51.0800 34.0231 -0.1190
51.1000 34.0365 -0.1053
51.1200 34.0498 -0.1083
51.1400 34.0631 -0.1257
51.1600 34.0765 -0.1069
51.1800 34.0898 -0.1142
51.2000 34.1031 -0.1204
51.2200 34.1165 -0.1142
51.2400 34.1298 -0.1176
51.2600 34.1432 -0.1203
51.2800 34.1565 -0.1115
51.3000 34.1699 -0.1223
51.3200 34.1832 -0.1260
51.3400 34.1965 -0.1139
51.3600 34.2099 -0.1178
51.3800 34.2232 -0.1271
51.4000 34.2366 -0.1160
51.4200 34.2499 -0.1245
51.4400 34.2632 -0.1246
51.4600 34.2765 -0.1224
51.4800 34.2899 -0.1266
51.5000 34.3032 -0.1242
51.5200 34.3164 -0.1236
51.5400 34.3298 -0.1273
51.5600 34.3431 -0.1313
51.5800 34.3565 -0.1276
51.6000 34.3698 -0.1291
51.6200 34.3831 -0.1359
51.6400 34.3965 -0.1307
51.6600 34.4099 -0.1294
51.6800 34.4232 -0.1382
51.7000 34.4366 -0.1356
51.7200 34.4499 -0.1345
51.7400 34.4632 -0.1348
51.7600 34.4766 -0.1348
51.7800 34.4898 -0.1328
51.8000 34.5031 -0.1383
51.8200 34.5165 -0.1303
51.8400 34.5298 -0.1380
51.8600 34.5432 -0.1407
51.8800 34.5565 -0.1339
51.9000 34.5698 -0.1374
51.9200 34.5831 -0.1423
51.9400 34.5965 -0.1380
51.9600 34.6098 -0.1433
51.9800 34.6231 -0.1379
52.0000 34.6365 -0.1392
52.0200 34.6498 -0.1448
52.0400 34.6632 -0.1419
52.0600 34.6765 -0.1374
52.0800 34.6898 -0.1493
52.1000 34.7032 -0.1429
52.1200 34.7166 -0.1373
52.1400 34.7299 -0.1452
52.1600 34.7432 -0.1461
52.1800 34.7565 -0.1424
52.2000 34.7698 -0.1429
52.2200 34.7831 -0.1477
52.2400 34.7964 -0.1441
52.2600 34.8098 -0.1490
52.2800 34.8231 -0.1442
52.3000 34.8365 -0.1440
52.3200 34.8498 -0.1518
52.3400 34.8632 -0.1462
52.3600 34.8765 -0.1410
52.3800 34.8899 -0.1541
52.4000 34.9032 -0.1433
52.4200 34.9165 -0.1465
52.4400 34.9298 -0.1500
52.4600 34.9432 -0.1451
52.4800 34.9566 -0.1474
52.5000 34.9699 -0.1515
52.5200 34.9832 -0.1443
52.5400 34.9965 -0.1513
52.5600 35.0098 -0.1492
52.5800 35.0232 -0.1489
52.6000 35.0365 -0.1540
52.6200 35.0498 -0.1491
52.6400 35.0631 -0.1521
52.6600 35.0765 -0.1609
52.6800 35.0898 -0.1482
52.7000 35.1031 -0.1570
52.7200 35.1165 -0.1605
52.7400 35.1299 -0.1521
52.7600 35.1432 -0.1655
52.7800 35.1565 -0.1625
52.8000 35.1699 -0.1568
52.8200 35.1832 -0.1672
52.8400 35.1966 -0.1643
52.8600 35.2098 -0.1599
52.8800 35.2231 -0.1665
52.9000 35.2364 -0.1632
52.9200 35.2498 -0.1683
52.9400 35.2631 -0.1707
52.9600 35.2764 -0.1683
52.9800 35.2898 -0.1678
53.0000 35.3032 -0.1674
53.0200 35.3165 -0.1710
53.0400 35.3299 -0.1763
53.0600 35.3432 -0.1676
53.0800 35.3565 -0.1753
53.1000 35.3699 -0.1756
53.1200 35.3832 -0.1740
53.1400 35.3965 -0.1744
53.1600 35.4098 -0.1806
53.1800 35.4232 -0.1724
53.2000 35.4365 -0.1776
53.2200 35.4499 -0.1833
53.2400 35.4632 -0.1754
53.2600 35.4765 -0.1770
53.2800 35.4899 -0.1854
53.3000 35.5032 -0.1768
53.3200 35.5165 -0.1771
53.3400 35.5298 -0.1881
53.3600 35.5431 -0.1766
53.3800 35.5565 -0.1775
53.4000 35.5698 -0.1893
53.4200 35.5831 -0.1798
53.4400 35.5965 -0.1808
53.4600 35.6098 -0.1894
53.4800 35.6232 -0.1821
53.5000 35.6365 -0.1862
53.5200 35.6498 -0.1843
53.5400 35.6632 -0.1832
53.5600 35.6766 -0.1849
53.5800 35.6899 -0.1908
53.6000 35.7032 -0.1845
53.6200 35.7165 -0.1891
53.6400 35.7299 -0.1911
53.6600 35.7432 -0.1892
53.6800 35.7565 -0.1860
53.7000 35.7698 -0.1947
53.7200 35.7831 -0.1897
53.7400 35.7965 -0.1891
53.7600 35.8098 -0.1936
53.7800 35.8231 -0.1936
53.8000 35.8365 -0.1922
53.8200 35.8499 -0.1952
53.8400 35.8632 -0.1963
53.8600 35.8765 -0.1959
53.8800 35.8899 -0.1997
53.9000 35.9032 -0.1998
53.9200 35.9166 -0.1947
53.9400 35.9299 -0.2007
53.9600 35.9431 -0.2025
53.9800 35.9565 -0.1982
54.0000 35.9698 -0.1992
54.0200 35.9832 -0.2033
54.0400 35.9965 -0.2038
54.0600 36.0098 -0.2007
54.0800 36.0231 -0.2056
54.1000 36.0365 -0.2031
54.1200 36.0498 -0.2072
54.1400 36.0632 -0.2024
54.1600 36.0765 -0.2058
54.1800 36.0898 -0.2083
54.2000 36.1032 -0.2054
54.2200 36.1165 -0.2058
54.2400 36.1299 -0.2155
54.2600 36.1432 -0.2117
54.2800 36.1566 -0.2049
54.3000 36.1699 -0.2141
54.3200 36.1832 -0.2160
54.3400 36.1965 -0.2076
54.3600 36.2099 -0.2216
54.3800 36.2232 -0.2132
54.4000 36.2365 -0.2133
54.4200 36.2498 -0.2188
54.4400 36.2631 -0.2181
54.4600 36.2765 -0.2206
54.4800 36.2898 -0.2240
54.5000 36.3032 -0.2167
54.5200 36.3165 -0.2174
54.5400 36.3299 -0.2309
54.5600 36.3433 -0.2166
54.5800 36.3566 -0.2244
54.6000 36.3699 -0.2283
54.6200 36.3832 -0.2176
54.6400 36.3966 -0.2252
54.6600 36.4099 -0.2321
54.6800 36.4232 -0.2192
54.7000 36.4365 -0.2328
54.7200 36.4498 -0.2325
54.7400 36.4632 -0.2202
54.7600 36.4765 -0.2366
54.7800 36.4898 -0.2401
54.8000 36.5031 -0.2211
54.8200 36.5165 -0.2380
54.8400 36.5298 -0.2378
54.8600 36.5431 -0.2291
54.8800 36.5565 -0.2406
54.9000 36.5698 -0.2347
54.9200 36.5832 -0.2290
54.9400 36.5965 -0.2441
54.9600 36.6098 -0.2315
54.9800 36.6232 -0.2338
55.0000 36.6366 -0.2411
55.0200 36.6499 -0.2305
55.0400 36.6632 -0.2381
55.0600 36.6765 -0.2366
55.0800 36.6898 -0.2318
55.1000 36.7031 -0.2426
55.1200 36.7164 -0.2388
55.1400 36.7298 -0.2532
55.1600 36.7431 -0.1595
55.1800 36.7565 -0.0707
55.2000 36.7698 -0.0553
55.2200 36.7831 -0.0785
55.2400 36.7965 -0.0698
55.2600 36.8098 -0.0717
55.2800 36.8232 -0.0879
55.3000 36.8365 -0.0662
55.3200 36.8498 -0.0764
55.3400 36.8631 -0.0796
55.3600 36.8765 -0.0658
55.3800 36.8899 -0.0775
55.4000 36.9032 -0.0833
55.4200 36.9165 -0.0630
55.4400 36.9299 -0.0800
55.4600 36.9432 -0.0788
55.4800 36.9565 -0.0662
55.5000 36.9698 -0.0834
55.5200 36.9831 -0.0730
55.5400 36.9964 -0.0716
55.5600 37.0098 -0.0845
55.5800 37.0231 -0.0688
55.6000 37.0365 -0.0740
55.6200 37.0499 -0.0827
55.6400 37.0633 -0.0691
55.6600 37.0766 -0.0800
55.6800 37.0899 -0.0791
55.7000 37.1032 -0.0682
55.7200 37.1166 -0.0820
55.7400 37.1299 -0.0809
55.7600 37.1432 -0.0717
55.7800 37.1565 -0.0817
55.8000 37.1698 -0.0789
55.8200 37.1832 -0.0749
55.8400 37.1965 -0.0824
55.8600 37.2098 -0.0788
55.8800 37.2231 -0.0741
55.9000 37.2364 -0.0804
55.9200 37.2498 -0.0771
55.9400 37.2631 -0.0795
55.9600 37.2765 -0.0784
55.9800 37.2898 -0.0816
56.0000 37.3032 -0.0765
56.0200 37.3166 -0.0798
56.0400 37.3299 -0.0844
56.0600 37.3432 -0.0813
56.0800 37.3566 -0.0777
56.1000 37.3699 -0.0881
56.1200 37.3832 -0.0818
56.1400 37.3965 -0.0780
56.1600 37.4098 -0.0912
56.1800 37.4232 -0.0823
56.2000 37.4365 -0.0790
56.2200 37.4498 -0.0911
56.2400 37.4631 -0.0820
56.2600 37.4765 -0.0798
56.2800 37.4898 -0.0941
56.3000 37.5032 -0.0772
56.3200 37.5165 -0.0838
56.3400 37.5298 -0.0954
56.3600 37.5432 -0.0825
56.3800 37.5565 -0.0897
56.4000 37.5699 -0.0955
56.4200 37.5832 -0.0785
56.4400 37.5965 -0.0944
56.4600 37.6099 -0.0930
56.4800 37.6232 -0.0816
56.5000 37.6365 -0.0951
56.5200 37.6499 -0.0919
56.5400 37.6632 -0.0834
56.5600 37.6765 -0.1038
56.5800 37.6898 -0.0898
56.6000 37.7031 -0.0902
56.6200 37.7164 -0.0995
56.6400 37.7298 -0.0887
56.6600 37.7431 -0.0942
56.6800 37.7565 -0.1026
56.7000 37.7699 -0.0894
56.7200 37.7832 -0.0953
56.7400 37.7966 -0.1028
56.7600 37.8099 -0.0878
56.7800 37.8232 -0.0999
56.8000 37.8366 -0.1035
56.8200 37.8499 -0.0906
56.8400 37.8632 -0.1000
56.8600 37.8765 -0.1011
56.8800 37.8898 -0.0956
56.9000 37.9032 -0.1027
56.9200 37.9165 -0.0943
56.9400 37.9298 -0.0962
56.9600 37.9431 -0.1000
56.9800 37.9565 -0.0966
57.0000 37.9698 -0.0996
57.0200 37.9831 -0.1002
57.0400 37.9965 -0.0933
57.0600 38.0098 -0.1040
57.0800 38.0232 -0.0997
57.1000 38.0366 -0.1001
57.1200 38.0499 -0.1051
57.1400 38.0632 -0.0959
57.1600 38.0766 -0.0970
57.1800 38.0899 -0.1123
57.2000 38.1032 -0.0968
57.2200 38.1165 -0.0987
57.2400 38.1298 -0.1115
57.2600 38.1431 -0.0962
57.2800 38.1565 -0.1071
57.3000 38.1698 -0.1085
57.3200 38.1831 -0.0970
57.3400 38.1964 -0.1062
57.3600 38.2098 -0.1073
57.3800 38.2231 -0.0948
57.4000 38.2365 -0.1111
57.4200 38.2498 -0.1104
57.4400 38.2632 -0.0954
57.4600 38.2766 -0.1105
57.4800 38.2899 -0.1159
57.5000 38.3032 -0.0988
57.5200 38.3165 -0.1130
57.5400 38.3299 -0.1065
57.5600 38.3432 -0.1029
57.5800 38.3565 -0.1126
57.6000 38.3698 -0.1077
57.6200 38.3832 -0.1061
57.6400 38.3965 -0.1156
57.6600 38.4098 -0.1057
57.6800 38.4231 -0.1087
57.7000 38.4364 -0.1167
57.7200 38.4498 -0.1088
57.7400 38.4631 -0.1122
57.7600 38.4764 -0.1173
57.7800 38.4898 -0.1079
57.8000 38.5032 -0.1200
57.8200 38.5166 -0.1189
57.8400 38.5299 -0.1137
57.8600 38.5432 -0.1175
57.8800 38.5566 -0.1134
57.9000 38.5699 -0.1149
57.9200 38.5832 -0.1177
57.9400 38.5965 -0.1169
57.9600 38.6098 -0.1170
57.9800 38.6231 -0.1206
58.0000 38.6365 -0.1107
58.0200 38.6498 -0.1236
58.0400 38.6631 -0.1212
58.0600 38.6765 -0.1145
58.0800 38.6898 -0.1266
58.1000 38.7032 -0.1223
58.1200 38.7165 -0.1180
58.1400 38.7299 -0.1273
58.1600 38.7432 -0.1206
58.1800 38.7566 -0.1198
58.2000 38.7699 -0.1241
58.2200 38.7832 -0.1239
58.2400 38.7965 -0.1230
58.2600 38.8099 -0.1314
58.2800 38.8232 -0.1189
58.3000 38.8365 -0.1291
58.3200 38.8498 -0.1305
58.3400 38.8632 -0.1176
58.3600 38.8765 -0.1324
58.3800 38.8898 -0.1247
58.4000 38.9031 -0.1245
58.4200 38.9165 -0.1370
58.4400 38.9298 -0.1253
58.4600 38.9432 -0.1288
58.4800 38.9565 -0.1379
58.5000 38.9699 -0.1213
58.5200 38.9832 -0.1321
58.5400 38.9966 -0.1344
58.5600 39.0099 -0.1258
58.5800 39.0232 -0.1333
58.6000 39.0365 -0.1392
58.6200 39.0499 -0.1307
58.6400 39.0632 -0.1361
58.6600 39.0765 -0.1389
58.6800 39.0898 -0.1298
58.7000 39.1032 -0.1350
58.7200 39.1165 -0.1409
58.7400 39.1298 -0.1310
58.7600 39.1431 -0.1338
58.7800 39.1564 -0.1426
58.8000 39.1698 -0.1369
58.8200 39.1831 -0.1366
58.8400 39.1965 -0.1444
58.8600 39.2098 -0.1328
58.8800 39.2232 -0.1418
58.9000 39.2366 -0.1451
58.9200 39.2499 -0.1368
58.9400 39.2632 -0.1405
58.9600 39.2765 -0.1461
58.9800 39.2899 -0.1416
59.0000 39.3032 -0.1427
59.0200 39.3165 -0.1470
59.0400 39.3298 -0.1430
59.0600 39.3432 -0.1433
59.0800 39.3565 -0.1486
59.1000 39.3698 -0.1464
59.1200 39.3831 -0.1485
59.1400 39.3965 -0.1494
59.1600 39.4098 -0.1425
59.1800 39.4231 -0.1529
59.2000 39.4365 -0.1517
59.2200 39.4498 -0.1482
59.2400 39.4631 -0.1484
59.2600 39.4765 -0.1526
59.2800 39.4899 -0.1500
59.3000 39.5032 -0.1537
59.3200 39.5165 -0.1551
59.3400 39.5299 -0.1545
59.3600 39.5432 -0.1516
59.3800 39.5565 -0.1529
59.4000 39.5698 -0.1567
59.4200 39.5831 -0.1555
59.4400 39.5965 -0.1524
59.4600 39.6098 -0.1555
59.4800 39.6231 -0.1569
59.5000 39.6364 -0.1595
59.5200 39.6498 -0.1561
59.5400 39.6631 -0.1624
59.5600 39.6765 -0.1602
59.5800 39.6898 -0.1559
59.6000 39.7032 -0.1616
59.6200 39.7166 -0.1593
59.6400 39.7299 -0.1641
59.6600 39.7432 -0.1584
59.6800 39.7565 -0.1597
59.7000 39.7699 -0.1652
59.7200 39.7832 -0.1587
59.7400 39.7965 -0.1668
59.7600 39.8098 -0.1666
59.7800 39.8232 -0.1581
59.8000 39.8365 -0.1660
59.8200 39.8498 -0.1643
59.8400 39.8631 -0.1657
59.8600 39.8765 -0.1670
59.8800 39.8898 -0.1685
59.9000 39.9031 -0.1622
59.9200 39.9164 -0.1735
59.9400 39.9298 -0.1683
59.9600 39.9432 -0.1640
59.9800 39.9566 -0.1749
60.0000 39.9699 -0.1684
60.0200 39.9832 -0.1715
60.0400 39.9965 -0.1857
60.0460 40.0004 -0.1956
