Raw Data
Time Displacement Force
(s) (mm) (N)
0.0000 0.0000 0.4178
0.0200 0.0001 0.4441
0.0400 0.0021 0.4929
0.0600 0.0097 0.5292
0.0800 0.0215 0.4962
0.1000 0.0338 0.4913
0.1200 0.0465 0.5160
0.1400 0.0600 0.4806
0.1600 0.0742 0.4528
0.1800 0.0884 0.4643
0.2000 0.1024 0.4626
0.2200 0.1159 0.4512
0.2400 0.1293 0.4662
0.2600 0.1426 0.4522
0.2800 0.1559 0.4500
0.3000 0.1693 0.4633
0.3200 0.1827 0.4507
0.3400 0.1960 0.4571
0.3600 0.2094 0.4641
0.3800 0.2227 0.4600
0.4000 0.2360 0.4575
0.4200 0.2493 0.4577
0.4400 0.2626 0.4552
0.4600 0.2760 0.4309
0.4800 0.2893 0.4555
0.5000 0.3027 0.4566
0.5200 0.3160 0.4392
0.5400 0.3293 0.4337
0.5600 0.3426 0.4350
0.5800 0.3560 0.4408
0.6000 0.3694 0.4545
0.6200 0.3827 0.4593
0.6400 0.3960 0.4283
0.6600 0.4094 0.4161
0.6800 0.4228 0.4472
0.7000 0.4361 0.4469
0.7200 0.4494 0.4462
0.7400 0.4627 0.4542
0.7600 0.4761 0.4032
0.7800 0.4894 0.4098
0.8000 0.5027 0.4743
0.8200 0.5160 0.4561
0.8400 0.5294 0.4109
0.8600 0.5427 0.4256
0.8800 0.5560 0.4142
0.9000 0.5692 0.4317
0.9200 0.5826 0.4593
0.9400 0.5959 0.4174
0.9600 0.6093 0.4148
0.9800 0.6227 0.4314
1.0000 0.6360 0.4069
1.0200 0.6494 0.4329
1.0400 0.6627 0.4307
1.0600 0.6761 0.4139
1.0800 0.6894 0.4290
1.1000 0.7027 0.4233
1.1200 0.7160 0.4047
1.1400 0.7294 0.4271
1.1600 0.7427 0.4337
1.1800 0.7560 0.4241
1.2000 0.7694 0.4283
1.2200 0.7827 0.4059
1.2400 0.7960 0.4109
1.2600 0.8093 0.4319
1.2800 0.8226 0.4281
1.3000 0.8360 0.4251
1.3200 0.8493 0.4052
1.3400 0.8627 0.3975
1.3600 0.8760 0.4200
1.3800 0.8894 0.4302
1.4000 0.9027 0.4263
1.4200 0.9160 0.4028
1.4400 0.9294 0.4020
1.4600 0.9427 0.4130
1.4800 0.9561 0.4221
1.5000 0.9694 0.4132
1.5200 0.9827 0.4108
1.5400 0.9960 0.3990
1.5600 1.0093 0.4071
1.5800 1.0227 0.4297
1.6000 1.0360 0.4091
1.6200 1.0493 0.4048
1.6400 1.0626 0.4104
1.6600 1.0760 0.3918
1.6800 1.0893 0.4094
1.7000 1.1027 0.4111
1.7200 1.1160 0.3962
1.7400 1.1294 0.4028
1.7600 1.1428 0.3999
1.7800 1.1561 0.3891
1.8000 1.1694 0.4134
1.8200 1.1827 0.4079
1.8400 1.1961 0.3846
1.8600 1.2094 0.4020
1.8800 1.2227 0.3940
1.9000 1.2360 0.3919
1.9200 1.2493 0.4137
1.9400 1.2627 0.3889
1.9600 1.2760 0.3812
1.9800 1.2893 0.3979
2.0000 1.3026 0.3943
2.0200 1.3160 0.3937
2.0400 1.3293 0.3945
2.0600 1.3427 0.3858
2.0800 1.3560 0.3784
2.1000 1.3694 0.3921
2.1200 1.3828 0.3872
2.1400 1.3961 0.3855
2.1600 1.4094 0.3782
2.1800 1.4227 0.3760
2.2000 1.4361 0.3809
2.2200 1.4494 0.3883
2.2400 1.4627 0.3886
2.2600 1.4760 0.3816
2.2800 1.4893 0.3738
2.3000 1.5026 0.3821
2.3200 1.5160 0.3814
2.3400 1.5293 0.3810
2.3600 1.5426 0.3827
2.3800 1.5560 0.3715
2.4000 1.5694 0.3719
2.4200 1.5827 0.3775
2.4400 1.5960 0.3745
2.4600 1.6094 0.3763
2.4800 1.6227 0.3819
2.5000 1.6360 0.3669
2.5200 1.6493 0.3800
2.5400 1.6627 0.3742
2.5600 1.6760 0.3700
2.5800 1.6894 0.3712
2.6000 1.7027 0.3743
2.6200 1.7161 0.3709
2.6400 1.7294 0.3707
2.6600 1.7427 0.3656
2.6800 1.7561 0.3681
2.7000 1.7694 0.3723
2.7200 1.7827 0.3628
2.7400 1.7960 0.3619
2.7600 1.8093 0.3712
2.7800 1.8226 0.3589
2.8000 1.8360 0.3666
2.8200 1.8493 0.3679
2.8400 1.8627 0.3594
2.8600 1.8761 0.3615
2.8800 1.8894 0.3573
2.9000 1.9027 0.3613
2.9200 1.9161 0.3614
2.9400 1.9294 0.3565
2.9600 1.9427 0.3609
2.9800 1.9560 0.3589
3.0000 1.9694 0.3536
3.0200 1.9827 0.3566
3.0400 1.9961 0.3570
3.0600 2.0094 0.3552
3.0800 2.0226 0.3556
3.1000 2.0360 0.3576
3.1200 2.0493 0.3482
3.1400 2.0627 0.3521
3.1600 2.0760 0.3593
3.1800 2.0894 0.3545
3.2000 2.1027 0.3427
3.2200 2.1161 0.3564
3.2400 2.1294 0.3546
3.2600 2.1428 0.3420
3.2800 2.1561 0.3532
3.3000 2.1694 0.3544
3.3200 2.1827 0.3444
3.3400 2.1960 0.3538
3.3600 2.2093 0.3491
3.3800 2.2227 0.3445
3.4000 2.2360 0.3471
3.4200 2.2493 0.3527
3.4400 2.2627 0.3416
3.4600 2.2760 0.3426
3.4800 2.2894 0.3444
3.5000 2.3027 0.3436
3.5200 2.3160 0.3469
3.5400 2.3294 0.3392
3.5600 2.3427 0.3432
3.5800 2.3561 0.3413
3.6000 2.3694 0.3334
3.6200 2.3827 0.3418
3.6400 2.3961 0.3502
3.6600 2.4095 0.3343
3.6800 2.4228 0.3339
3.7000 2.4361 0.3481
3.7200 2.4494 0.3361
3.7400 2.4627 0.3383
3.7600 2.4760 0.3462
3.7800 2.4893 0.3291
3.8000 2.5026 0.3430
3.8200 2.5159 0.3416
3.8400 2.5293 0.3242
3.8600 2.5426 0.3410
3.8800 2.5560 0.3492
3.9000 2.5694 0.3237
3.9200 2.5827 0.3378
3.9400 2.5961 0.3372
3.9600 2.6094 0.3168
3.9800 2.6227 0.3469
4.0000 2.6361 0.3417
4.0200 2.6494 0.3072
4.0400 2.6627 0.3377
4.0600 2.6760 0.3395
4.0800 2.6893 0.3240
4.1000 2.7027 0.3362
4.1200 2.7160 0.3245
4.1400 2.7293 0.3171
4.1600 2.7426 0.3344
4.1800 2.7560 0.3297
4.2000 2.7693 0.3175
4.2200 2.7826 0.3350
4.2400 2.7960 0.3161
4.2600 2.8093 0.3132
4.2800 2.8227 0.3345
4.3000 2.8361 0.3358
4.3200 2.8494 0.3146
4.3400 2.8627 0.3096
4.3600 2.8761 0.3219
4.3800 2.8894 0.3319
4.4000 2.9027 0.3188
4.4200 2.9160 0.3182
4.4400 2.9293 0.3181
4.4600 2.9427 0.3159
4.4800 2.9560 0.3195
4.5000 2.9693 0.3329
4.5200 2.9826 0.3194
4.5400 2.9960 0.3083
4.5600 3.0094 0.3188
4.5800 3.0227 0.3136
4.6000 3.0360 0.3232
4.6200 3.0493 0.3182
4.6400 3.0627 0.3051
4.6600 3.0760 0.3217
4.6800 3.0894 0.3138
4.7000 3.1027 0.3070
4.7200 3.1160 0.3267
4.7400 3.1294 0.3079
4.7600 3.1428 0.3011
4.7800 3.1561 0.3294
4.8000 3.1694 0.2993
4.8200 3.1827 0.2900
4.8400 3.1961 0.3446
4.8600 3.2094 0.3099
4.8800 3.2227 0.2792
4.9000 3.2360 0.3129
4.9200 3.2493 0.3190
4.9400 3.2626 0.3094
4.9600 3.2760 0.3093
4.9800 3.2893 0.3011
5.0000 3.3027 0.3026
5.0200 3.3161 0.3015
5.0400 3.3295 0.3050
5.0600 3.3428 0.3207
5.0800 3.3561 0.3169
5.1000 3.3694 0.2748
5.1200 3.3827 0.2862
5.1400 3.3960 0.3215
5.1600 3.4093 0.3232
5.1800 3.4227 0.2991
5.2000 3.4360 0.2827
5.2200 3.4493 0.2880
5.2400 3.4626 0.3052
5.2600 3.4760 0.3244
5.2800 3.4893 0.2992
5.3000 3.5026 0.2834
5.3200 3.5160 0.2968
5.3400 3.5293 0.2931
5.3600 3.5427 0.2995
5.3800 3.5561 0.3167
5.4000 3.5694 0.2927
5.4200 3.5828 0.2730
5.4400 3.5961 0.2991
5.4600 3.6094 0.2997
5.4800 3.6228 0.2903
5.5000 3.6360 0.3071
5.5200 3.6493 0.2868
5.5400 3.6627 0.2791
5.5600 3.6760 0.2993
5.5800 3.6893 0.2897
5.6000 3.7026 0.2961
5.6200 3.7160 0.3017
5.6400 3.7293 0.2738
5.6600 3.7427 0.2762
5.6800 3.7560 0.2947
5.7000 3.7693 0.3008
5.7200 3.7827 0.2969
5.7400 3.7961 0.2707
5.7600 3.8094 0.2652
5.7800 3.8227 0.3093
5.8000 3.8361 0.2955
5.8200 3.8494 0.2777
5.8400 3.8628 0.2890
5.8600 3.8761 0.2704
5.8800 3.8894 0.2804
5.9000 3.9027 0.2986
5.9200 3.9161 0.2858
5.9400 3.9294 0.2773
5.9600 3.9426 0.2738
5.9800 3.9560 0.2691
6.0000 3.9693 0.3002
6.0200 3.9827 0.2880
6.0400 3.9960 0.2680
6.0600 4.0094 0.2783
6.0800 4.0227 0.2641
6.1000 4.0361 0.2795
6.1200 4.0494 0.2987
6.1400 4.0627 0.2693
6.1600 4.0761 0.2640
6.1800 4.0894 0.2764
6.2000 4.1027 0.2785
6.2200 4.1160 0.2786
6.2400 4.1293 0.2842
6.2600 4.1427 0.2645
6.2800 4.1560 0.2677
6.3000 4.1694 0.2774
6.3200 4.1827 0.2750
6.3400 4.1960 0.2851
6.3600 4.2093 0.2677
6.3800 4.2227 0.2647
6.4000 4.2360 0.2797
6.4200 4.2493 0.2727
6.4400 4.2627 0.2737
6.4600 4.2761 0.2763
6.4800 4.2894 0.2623
6.5000 4.3027 0.2623
6.5200 4.3161 0.2832
6.5400 4.3294 0.2749
6.5600 4.3428 0.2581
6.5800 4.3561 0.2712
6.6000 4.3694 0.2760
6.6200 4.3827 0.2644
6.6400 4.3960 0.2696
6.6600 4.4093 0.2719
6.6800 4.4227 0.2568
6.7000 4.4360 0.2673
6.7200 4.4493 0.2748
6.7400 4.4627 0.2582
6.7600 4.4760 0.2669
6.7800 4.4893 0.2709
6.8000 4.5027 0.2552
6.8200 4.5161 0.2681
6.8400 4.5294 0.2648
6.8600 4.5427 0.2597
6.8800 4.5560 0.2606
6.9000 4.5694 0.2635
6.9200 4.5827 0.2616
6.9400 4.5960 0.2645
6.9600 4.6094 0.2605
6.9800 4.6227 0.2573
7.0000 4.6360 0.2621
7.0200 4.6493 0.2572
7.0400 4.6626 0.2564
7.0600 4.6759 0.2612
7.0800 4.6893 0.2591
7.1000 4.7026 0.2501
7.1200 4.7160 0.2606
7.1400 4.7293 0.2582
7.1600 4.7427 0.2468
7.1800 4.7561 0.2547
7.2000 4.7695 0.2611
7.2200 4.7828 0.2462
7.2400 4.7961 0.2540
7.2600 4.8095 0.2524
7.2800 4.8228 0.2482
7.3000 4.8361 0.2489
7.3200 4.8493 0.2611
7.3400 4.8626 0.2523
7.3600 4.8760 0.2453
7.3800 4.8893 0.2506
7.4000 4.9026 0.2478
7.4200 4.9160 0.2511
7.4400 4.9293 0.2554
7.4600 4.9427 0.2451
7.4800 4.9561 0.2381
7.5000 4.9694 0.2497
7.5200 4.9827 0.2471
7.5400 4.9961 0.2436
7.5600 5.0094 0.2502
7.5800 5.0227 0.2370
7.6000 5.0361 0.2429
7.6200 5.0494 0.2525
7.6400 5.0627 0.2404
7.6600 5.0760 0.2457
7.6800 5.0893 0.2450
7.7000 5.1026 0.2373
7.7200 5.1160 0.2475
7.7400 5.1293 0.2457
7.7600 5.1427 0.2298
7.7800 5.1560 0.2485
7.8000 5.1693 0.2400
7.8200 5.1827 0.2293
7.8400 5.1960 0.2507
7.8600 5.2093 0.2387
7.8800 5.2227 0.2230
7.9000 5.2361 0.2497
7.9200 5.2494 0.2319
7.9400 5.2627 0.2289
7.9600 5.2760 0.2475
7.9800 5.2894 0.2318
8.0000 5.3028 0.2291
8.0200 5.3161 0.2440
8.0400 5.3294 0.2240
8.0600 5.3427 0.2371
8.0800 5.3560 0.2435
8.1000 5.3694 0.2184
8.1200 5.3826 0.2370
8.1400 5.3960 0.2366
8.1600 5.4093 0.2194
8.1800 5.4227 0.2362
8.2000 5.4360 0.2315
8.2200 5.4493 0.2228
8.2400 5.4627 0.2387
8.2600 5.4761 0.2287
8.2800 5.4894 0.2218
8.3000 5.5028 0.2344
8.3200 5.5161 0.2300
8.3400 5.5294 0.2172
8.3600 5.5427 0.2328
8.3800 5.5560 0.2272
8.4000 5.5693 0.2232
8.4200 5.5827 0.2275
8.4400 5.5960 0.2233
8.4600 5.6094 0.2238
8.4800 5.6227 0.2274
8.5000 5.6360 0.2259
8.5200 5.6493 0.2242
8.5400 5.6627 0.2265
8.5600 5.6760 0.2240
8.5800 5.6894 0.2190
8.6000 5.7027 0.2278
8.6200 5.7161 0.2238
8.6400 5.7294 0.2225
8.6600 5.7427 0.2229
8.6800 5.7560 0.2226
8.7000 5.7694 0.2251
8.7200 5.7828 0.2192
8.7400 5.7961 0.2193
8.7600 5.8094 0.2232
8.7800 5.8227 0.2217
8.8000 5.8360 0.2178
8.8200 5.8493 0.2230
8.8400 5.8626 0.2229
8.8600 5.8760 0.2165
8.8800 5.8893 0.2180
8.9000 5.9027 0.2255
8.9200 5.9160 0.2151
8.9400 5.9294 0.2201
8.9600 5.9427 0.2223
8.9800 5.9561 0.2140
9.0000 5.9694 0.2135
9.0200 5.9827 0.2287
9.0400 5.9960 0.2085
9.0600 6.0094 0.2138
9.0800 6.0227 0.2203
9.1000 6.0361 0.2085
9.1200 6.0494 0.2147
9.1400 6.0627 0.2229
9.1600 6.0760 0.2067
9.1800 6.0893 0.2113
9.2000 6.1026 0.2186
9.2200 6.1160 0.2118
9.2400 6.1293 0.2192
9.2600 6.1426 0.2100
9.2800 6.1560 0.2077
9.3000 6.1693 0.2151
9.3200 6.1827 0.2131
9.3400 6.1961 0.2061
9.3600 6.2094 0.2062
9.3800 6.2228 0.2120
9.4000 6.2361 0.2073
9.4200 6.2494 0.2081
9.4400 6.2627 0.2150
9.4600 6.2760 0.2017
9.4800 6.2893 0.2047
9.5000 6.3026 0.2094
9.5200 6.3160 0.2044
9.5400 6.3293 0.2029
9.5600 6.3426 0.2117
9.5800 6.3560 0.1997
9.6000 6.3693 0.1989
9.6200 6.3827 0.2077
9.6400 6.3961 0.1970
9.6600 6.4094 0.1946
9.6800 6.4227 0.2106
9.7000 6.4361 0.1972
9.7200 6.4494 0.1924
9.7400 6.4627 0.2040
9.7600 6.4760 0.2024
9.7800 6.4894 0.1902
9.8000 6.5027 0.2062
9.8200 6.5161 0.1945
9.8400 6.5294 0.1930
9.8600 6.5427 0.2113
9.8800 6.5561 0.1873
9.9000 6.5694 0.1887
9.9200 6.5827 0.2049
9.9400 6.5960 0.1874
9.9600 6.6093 0.1933
9.9800 6.6227 0.2067
10.0000 6.6360 0.1805
10.0200 6.6493 0.1923
10.0400 6.6626 0.2109
10.0600 6.6760 0.1836
10.0800 6.6894 0.1877
10.1000 6.7027 0.2060
10.1200 6.7160 0.1790
10.1400 6.7294 0.1960
10.1600 6.7427 0.1986
10.1800 6.7561 0.1784
10.2000 6.7694 0.1920
10.2200 6.7827 0.2003
10.2400 6.7960 0.1822
10.2600 6.8094 0.1893
10.2800 6.8227 0.1965
10.3000 6.8360 0.1844
10.3200 6.8493 0.1911
10.3400 6.8627 0.1945
10.3600 6.8760 0.1830
10.3800 6.8893 0.1918
10.4000 6.9027 0.1891
10.4200 6.9160 0.1824
10.4400 6.9294 0.1865
10.4600 6.9427 0.1954
10.4800 6.9561 0.1860
10.5000 6.9694 0.1763
10.5200 6.9827 0.1896
10.5400 6.9961 0.1840
10.5600 7.0094 0.1791
10.5800 7.0227 0.1912
10.6000 7.0360 0.1867
10.6200 7.0494 0.1719
10.6400 7.0627 0.1817
10.6600 7.0760 0.1835
10.6800 7.0893 0.1840
10.7000 7.1027 0.1897
10.7200 7.1160 0.1758
10.7400 7.1293 0.1748
10.7600 7.1427 0.1890
10.7800 7.1560 0.1763
10.8000 7.1694 0.1770
10.8200 7.1827 0.1839
10.8400 7.1961 0.1721
10.8600 7.2094 0.1745
10.8800 7.2228 0.1886
10.9000 7.2361 0.1750
10.9200 7.2494 0.1702
10.9400 7.2627 0.1804
10.9600 7.2760 0.1777
10.9800 7.2894 0.1711
11.0000 7.3027 0.1799
11.0200 7.3160 0.1718
11.0400 7.3293 0.1705
11.0600 7.3426 0.1773
11.0800 7.3560 0.1702
11.1000 7.3693 0.1729
11.1200 7.3827 0.1736
11.1400 7.3961 0.1720
11.1600 7.4094 0.1701
11.1800 7.4228 0.1700
11.2000 7.4361 0.1720
11.2200 7.4494 0.1727
11.2400 7.4627 0.1597
11.2600 7.4761 0.1701
11.2800 7.4894 0.1733
11.3000 7.5027 0.1669
11.3200 7.5160 0.1633
11.3400 7.5294 0.1679
11.3600 7.5427 0.1645
11.3800 7.5560 0.1698
11.4000 7.5693 0.1644
11.4200 7.5827 0.1686
11.4400 7.5960 0.1638
11.4600 7.6093 0.1660
11.4800 7.6227 0.1701
11.5000 7.6360 0.1651
11.5200 7.6494 0.1551
11.5400 7.6628 0.1669
11.5600 7.6761 0.1653
11.5800 7.6894 0.1587
11.6000 7.7027 0.1674
11.6200 7.7161 0.1603
11.6400 7.7294 0.1548
11.6600 7.7427 0.1676
11.6800 7.7560 0.1586
11.7000 7.7693 0.1520
11.7200 7.7827 0.1683
11.7400 7.7960 0.1545
11.7600 7.8093 0.1544
11.7800 7.8227 0.1635
11.8000 7.8360 0.1522
11.8200 7.8493 0.1542
11.8400 7.8627 0.1630
11.8600 7.8760 0.1461
11.8800 7.8894 0.1557
11.9000 7.9027 0.1602
11.9200 7.9160 0.1432
11.9400 7.9293 0.1543
11.9600 7.9427 0.1618
11.9800 7.9561 0.1447
12.0000 7.9694 0.1549
12.0200 7.9827 0.1598
12.0400 7.9961 0.1507
12.0600 8.0094 0.1532
12.0800 8.0227 0.1547
12.1000 8.0360 0.1485
12.1200 8.0493 0.1498
12.1400 8.0626 0.1480
12.1600 8.0759 0.1482
12.1800 8.0893 0.1495
12.2000 8.1026 0.1501
12.2200 8.1160 0.1463
12.2400 8.1294 0.1467
12.2600 8.1428 0.1506
12.2800 8.1561 0.1416
12.3000 8.1694 0.1498
12.3200 8.1828 0.1499
12.3400 8.1961 0.1422
12.3600 8.2094 0.1454
12.3800 8.2227 0.1514
12.4000 8.2360 0.1368
12.4200 8.2493 0.1472
12.4400 8.2627 0.1459
12.4600 8.2760 0.1413
12.4800 8.2893 0.1461
12.5000 8.3026 0.1452
12.5200 8.3160 0.1371
12.5400 8.3293 0.1456
12.5600 8.3427 0.1438
12.5800 8.3560 0.1410
12.6000 8.3694 0.1391
12.6200 8.3828 0.1400
12.6400 8.3961 0.1386
12.6600 8.4094 0.1360
12.6800 8.4228 0.1402
12.7000 8.4361 0.1432
12.7200 8.4494 0.1314
12.7400 8.4627 0.1378
12.7600 8.4760 0.1474
12.7800 8.4893 0.1335
12.8000 8.5027 0.1351
12.8200 8.5160 0.1366
12.8400 8.5293 0.1342
12.8600 8.5426 0.1369
12.8800 8.5560 0.1354
12.9000 8.5694 0.1288
12.9200 8.5827 0.1401
12.9400 8.5960 0.1325
12.9600 8.6094 0.1310
12.9800 8.6228 0.1446
13.0000 8.6361 0.1310
13.0200 8.6494 0.1236
13.0400 8.6627 0.1426
13.0600 8.6761 0.1231
13.0800 8.6894 0.1304
13.1000 8.7027 0.1380
13.1200 8.7160 0.1270
13.1400 8.7294 0.1296
13.1600 8.7427 0.1354
13.1800 8.7560 0.1254
13.2000 8.7693 0.1352
13.2200 8.7826 0.1306
13.2400 8.7960 0.1205
13.2600 8.8094 0.1344
13.2800 8.8227 0.1276
13.3000 8.8360 0.1194
13.3200 8.8494 0.1321
13.3400 8.8628 0.1239
13.3600 8.8761 0.1238
13.3800 8.8894 0.1295
13.4000 8.9027 0.1232
13.4200 8.9161 0.1270
13.4400 8.9294 0.1246
13.4600 8.9427 0.1248
13.4800 8.9560 0.1269
13.5000 8.9693 0.1278
13.5200 8.9827 0.1178
13.5400 8.9960 0.1218
13.5600 9.0093 0.1257
13.5800 9.0227 0.1222
13.6000 9.0360 0.1224
13.6200 9.0493 0.1190
13.6400 9.0626 0.1246
13.6600 9.0760 0.1198
13.6800 9.0894 0.1188
13.7000 9.1027 0.1265
13.7200 9.1161 0.1126
13.7400 9.1294 0.1211
13.7600 9.1427 0.1230
13.7800 9.1561 0.1127
13.8000 9.1694 0.1179
13.8200 9.1827 0.1204
13.8400 9.1960 0.1079
13.8600 9.2093 0.1188
13.8800 9.2227 0.1196
13.9000 9.2360 0.1069
13.9200 9.2493 0.1238
13.9400 9.2626 0.1163
13.9600 9.2760 0.1042
13.9800 9.2893 0.1198
14.0000 9.3027 0.1112
14.0200 9.3160 0.1062
14.0400 9.3294 0.1210
14.0600 9.3427 0.1092
14.0800 9.3561 0.1035
14.1000 9.3694 0.1233
14.1200 9.3827 0.1138
14.1400 9.3961 0.0991
14.1600 9.4094 0.1205
14.1800 9.4227 0.1095
14.2000 9.4360 0.1052
14.2200 9.4494 0.1161
14.2400 9.4627 0.1068
14.2600 9.4760 0.1037
14.2800 9.4893 0.1194
14.3000 9.5026 0.1077
14.3200 9.5160 0.1070
14.3400 9.5293 0.1123
14.3600 9.5426 0.1036
14.3800 9.5560 0.1060
14.4000 9.5694 0.1148
14.4200 9.5828 0.1004
14.4400 9.5961 0.1035
14.4600 9.6094 0.1089
14.4800 9.6228 0.0987
14.5000 9.6361 0.1099
14.5200 9.6494 0.1069
14.5400 9.6627 0.0992
14.5600 9.6760 0.1069
14.5800 9.6893 0.1046
14.6000 9.7026 0.0983
14.6200 9.7160 0.1052
14.6400 9.7293 0.1040
14.6600 9.7427 0.0982
14.6800 9.7560 0.0982
14.7000 9.7694 0.1042
14.7200 9.7827 0.0932
14.7400 9.7960 0.1005
14.7600 9.8094 0.1064
14.7800 9.8228 0.0937
14.8000 9.8361 0.0948
14.8200 9.8494 0.1059
14.8400 9.8627 0.0947
14.8600 9.8761 0.0945
14.8800 9.8894 0.1013
14.9000 9.9027 0.0918
14.9200 9.9160 0.0931
14.9400 9.9293 0.1047
14.9600 9.9427 0.0899
14.9800 9.9560 0.0933
15.0000 9.9693 0.1005
15.0200 9.9826 0.0910
15.0400 9.9960 0.0965
15.0600 10.0093 0.0984
15.0800 10.0227 0.0871
15.1000 10.0360 0.0916
15.1200 10.0494 0.1004
15.1400 10.0628 0.0875
15.1600 10.0761 0.0952
15.1800 10.0894 0.0975
15.2000 10.1027 0.0829
15.2200 10.1161 0.0951
15.2400 10.1294 0.0933
15.2600 10.1427 0.0834
15.2800 10.1560 0.0952
15.3000 10.1694 0.0937
15.3200 10.1827 0.0879
15.3400 10.1960 0.0867
15.3600 10.2093 0.0947
15.3800 10.2226 0.0856
15.4000 10.2360 0.0893
15.4200 10.2493 0.0907
15.4400 10.2627 0.0854
15.4600 10.2760 0.0872
15.4800 10.2894 0.0847
15.5000 10.3028 0.0835
15.5200 10.3161 0.0862
15.5400 10.3294 0.0816
15.5600 10.3428 0.0861
15.5800 10.3561 0.0837
15.6000 10.3694 0.0857
15.6200 10.3827 0.0846
15.6400 10.3960 0.0815
15.6600 10.4093 0.0874
15.6800 10.4227 0.0804
15.7000 10.4360 0.0764
15.7200 10.4493 0.0835
15.7400 10.4626 0.0816
15.7600 10.4760 0.0696
15.7800 10.4893 0.0878
15.8000 10.5027 0.0791
15.8200 10.5160 0.0715
15.8400 10.5293 0.0854
15.8600 10.5427 0.0707
15.8800 10.5560 0.0704
15.9000 10.5694 0.0858
15.9200 10.5827 0.0715
15.9400 10.5961 0.0707
15.9600 10.6094 0.0808
15.9800 10.6227 0.0711
16.0000 10.6360 0.0712
16.0200 10.6494 0.0849
16.0400 10.6627 0.0659
16.0600 10.6760 0.0760
16.0800 10.6893 0.0838
16.1000 10.7026 0.0624
16.1200 10.7160 0.0745
16.1400 10.7293 0.0772
16.1600 10.7427 0.0656
16.1800 10.7560 0.0749
16.2000 10.7694 0.0726
16.2200 10.7828 0.0661
16.2400 10.7961 0.0728
16.2600 10.8094 0.0764
16.2800 10.8227 0.0643
16.3000 10.8361 0.0708
16.3200 10.8494 0.0760
16.3400 10.8627 0.0628
16.3600 10.8760 0.0733
16.3800 10.8893 0.0704
16.4000 10.9027 0.0675
16.4200 10.9160 0.0691
16.4400 10.9293 0.0708
16.4600 10.9426 0.0699
16.4800 10.9560 0.0662
16.5000 10.9693 0.0667
16.5200 10.9827 0.0664
16.5400 10.9960 0.0657
16.5600 11.0094 0.0684
16.5800 11.0227 0.0632
16.6000 11.0361 0.0637
16.6200 11.0494 0.0677
16.6400 11.0627 0.0647
16.6600 11.0761 0.0634
16.6800 11.0894 0.0689
16.7000 11.1027 0.0576
16.7200 11.1160 0.0639
16.7400 11.1293 0.0694
16.7600 11.1426 0.0600
16.7800 11.1560 0.0600
16.8000 11.1693 0.0686
16.8200 11.1826 0.0564
16.8400 11.1960 0.0599
16.8600 11.2094 0.0667
16.8800 11.2227 0.0541
16.9000 11.2360 0.0614
16.9200 11.2494 0.0589
16.9400 11.2627 0.0559
16.9600 11.2761 0.0616
16.9800 11.2894 0.0600
17.0000 11.3027 0.0534
17.0200 11.3160 0.0599
17.0400 11.3294 0.0559
17.0600 11.3427 0.0537
17.0800 11.3561 0.0538
17.1000 11.3694 0.0599
17.1200 11.3827 0.0582
17.1400 11.3961 0.0483
17.1600 11.4093 0.0548
17.1800 11.4227 0.0569
17.2000 11.4360 0.0476
17.2200 11.4493 0.0554
17.2400 11.4627 0.0546
17.2600 11.4760 0.0479
17.2800 11.4893 0.0606
17.3000 11.5027 0.0534
17.3200 11.5161 0.0450
17.3400 11.5294 0.0571
17.3600 11.5427 0.0492
17.3800 11.5561 0.0468
17.4000 11.5694 0.0561
17.4200 11.5827 0.0471
17.4400 11.5960 0.0462
17.4600 11.6094 0.0524
17.4800 11.6227 0.0448
17.5000 11.6361 0.0496
17.5200 11.6494 0.0542
17.5400 11.6627 0.0420
17.5600 11.6760 0.0526
17.5800 11.6893 0.0471
17.6000 11.7027 0.0419
17.6200 11.7160 0.0501
17.6400 11.7293 0.0459
17.6600 11.7427 0.0375
17.6800 11.7561 0.0491
17.7000 11.7694 0.0417
17.7200 11.7827 0.0390
17.7400 11.7961 0.0514
17.7600 11.8094 0.0432
17.7800 11.8227 0.0412
17.8000 11.8360 0.0496
17.8200 11.8493 0.0358
17.8400 11.8627 0.0410
17.8600 11.8760 0.0430
17.8800 11.8893 0.0364
17.9000 11.9026 0.0440
17.9200 11.9160 0.0417
17.9400 11.9294 0.0352
17.9600 11.9427 0.0438
17.9800 11.9560 0.0434
18.0000 11.9694 0.0354
18.0200 11.9827 0.0440
18.0400 11.9960 0.0373
18.0600 12.0094 0.0372
18.0800 12.0227 0.0462
18.1000 12.0361 0.0382
18.1200 12.0494 0.0328
18.1400 12.0628 0.0446
18.1600 12.0761 0.0324
18.1800 12.0894 0.0378
18.2000 12.1027 0.0412
18.2200 12.1160 0.0335
18.2400 12.1293 0.0360
18.2600 12.1426 0.0412
18.2800 12.1560 0.0345
18.3000 12.1693 0.0390
18.3200 12.1827 0.0343
18.3400 12.1960 0.0378
18.3600 12.2094 0.0397
18.3800 12.2227 0.0339
18.4000 12.2361 0.0348
18.4200 12.2494 0.0390
18.4400 12.2627 0.0327
18.4600 12.2761 0.0343
18.4800 12.2894 0.0354
18.5000 12.3027 0.0340
18.5200 12.3160 0.0309
18.5400 12.3293 0.0344
18.5600 12.3427 0.0362
18.5800 12.3560 0.0263
18.6000 12.3694 0.0338
18.6200 12.3827 0.0318
18.6400 12.3960 0.0292
18.6600 12.4093 0.0356
18.6800 12.4227 0.0342
18.7000 12.4360 0.0254
18.7200 12.4493 0.0327
18.7400 12.4627 0.0294
18.7600 12.4761 0.0240
18.7800 12.4894 0.0320
18.8000 12.5027 0.0305
18.8200 12.5161 0.0234
18.8400 12.5294 0.0286
18.8600 12.5428 0.0240
18.8800 12.5560 0.0324
18.9000 12.5693 0.0320
18.9200 12.5827 0.0237
18.9400 12.5960 0.0308
18.9600 12.6093 0.0268
18.9800 12.6226 0.0219
19.0000 12.6360 0.0352
19.0200 12.6493 0.0252
19.0400 12.6627 0.0212
19.0600 12.6760 0.0298
19.0800 12.6893 0.0208
19.1000 12.7027 0.0223
19.1200 12.7160 0.0309
19.1400 12.7294 0.0210
19.1600 12.7427 0.0176
19.1800 12.7560 0.0309
19.2000 12.7694 0.0186
19.2200 12.7827 0.0194
19.2400 12.7961 0.0273
19.2600 12.8094 0.0163
19.2800 12.8227 0.0183
19.3000 12.8361 0.0319
19.3200 12.8494 0.0169
19.3400 12.8627 0.0210
19.3600 12.8760 0.0301
19.3800 12.8893 0.0127
19.4000 12.9026 0.0196
19.4200 12.9160 0.0314
19.4400 12.9293 0.0075
19.4600 12.9427 0.0170
19.4800 12.9561 0.0304
19.5000 12.9694 0.0124
19.5200 12.9828 0.0184
19.5400 12.9961 0.0312
19.5600 13.0095 0.0063
19.5800 13.0228 0.0138
19.6000 13.0361 0.0285
19.6200 13.0494 0.0125
19.6400 13.0627 0.0190
19.6600 13.0760 0.0198
19.6800 13.0893 0.0071
19.7000 13.1026 0.0198
19.7200 13.1159 0.0215
19.7400 13.1293 0.0078
19.7600 13.1427 0.0221
19.7800 13.1560 0.0167
19.8000 13.1693 0.0084
19.8200 13.1827 0.0174
19.8400 13.1961 0.0182
19.8600 13.2094 0.0075
19.8800 13.2227 0.0122
19.9000 13.2361 0.0162
19.9200 13.2494 0.0100
19.9400 13.2628 0.0091
19.9600 13.2761 0.0182
19.9800 13.2894 0.0076
20.0000 13.3027 0.0146
20.0200 13.3160 0.0162
20.0400 13.3293 0.0082
20.0600 13.3426 0.0066
20.0800 13.3560 0.0161
20.1000 13.3693 -0.0025
20.1200 13.3827 0.0054
20.1400 13.3960 0.0163
20.1600 13.4094 -0.0027
20.1800 13.4227 0.0023
20.2000 13.4361 0.0151
20.2200 13.4494 -0.0036
20.2400 13.4627 0.0077
20.2600 13.4760 0.0132
20.2800 13.4894 -0.0071
20.3000 13.5027 0.0086
20.3200 13.5161 0.0097
20.3400 13.5294 -0.0030
20.3600 13.5427 0.0069
20.3800 13.5560 0.0040
20.4000 13.5694 -0.0086
20.4200 13.5826 0.0133
20.4400 13.5960 0.0031
20.4600 13.6093 -0.0072
20.4800 13.6227 0.0062
20.5000 13.6360 0.0019
20.5200 13.6493 -0.0078
20.5400 13.6627 0.0081
20.5600 13.6761 -0.0033
20.5800 13.6894 -0.0058
20.6000 13.7028 -0.0009
20.6200 13.7161 0.0012
20.6400 13.7294 -0.0070
20.6600 13.7427 0.0033
20.6800 13.7560 -0.0043
20.7000 13.7693 -0.0082
20.7200 13.7826 0.0016
20.7400 13.7960 -0.0013
20.7600 13.8094 -0.0038
20.7800 13.8227 -0.0017
20.8000 13.8360 -0.0021
20.8200 13.8493 -0.0102
20.8400 13.8627 -0.0045
20.8600 13.8760 0.0019
20.8800 13.8893 -0.0061
20.9000 13.9027 -0.0054
20.9200 13.9161 -0.0016
20.9400 13.9294 -0.0105
20.9600 13.9427 -0.0090
20.9800 13.9561 -0.0027
21.0000 13.9694 -0.0092
21.0200 13.9828 -0.0142
21.0400 13.9961 -0.0036
21.0600 14.0094 -0.0152
21.0800 14.0227 -0.0067
21.1000 14.0360 -0.0058
21.1200 14.0494 -0.0148
21.1400 14.0627 -0.0104
21.1600 14.0760 -0.0081
21.1800 14.0893 -0.0143
21.2000 14.1027 -0.0119
21.2200 14.1160 -0.0072
21.2400 14.1293 -0.0118
21.2600 14.1427 -0.0123
21.2800 14.1561 -0.0130
21.3000 14.1694 -0.0175
21.3200 14.1827 -0.0100
21.3400 14.1961 -0.0146
21.3600 14.2094 -0.0214
21.3800 14.2228 -0.0150
21.4000 14.2361 -0.0165
21.4200 14.2494 -0.0197
21.4400 14.2627 -0.0119
21.4600 14.2760 -0.0131
21.4800 14.2894 -0.0196
21.5000 14.3027 -0.0213
21.5200 14.3159 -0.0135
21.5400 14.3293 -0.0166
21.5600 14.3426 -0.0212
21.5800 14.3559 -0.0174
21.6000 14.3693 -0.0219
21.6200 14.3827 -0.0167
21.6400 14.3961 -0.0235
21.6600 14.4095 -0.0224
21.6800 14.4228 -0.0199
21.7000 14.4361 -0.0200
21.7200 14.4494 -0.0258
21.7400 14.4628 -0.0198
21.7600 14.4761 -0.0238
21.7800 14.4893 -0.0215
21.8000 14.5026 -0.0273
21.8200 14.5160 -0.0239
21.8400 14.5293 -0.0163
21.8600 14.5426 -0.0227
21.8800 14.5560 -0.0314
21.9000 14.5693 -0.0155
21.9200 14.5827 -0.0249
21.9400 14.5960 -0.0318
21.9600 14.6094 -0.0182
21.9800 14.6227 -0.0253
22.0000 14.6361 -0.0312
22.0200 14.6494 -0.0186
22.0400 14.6627 -0.0306
22.0600 14.6760 -0.0303
22.0800 14.6894 -0.0154
22.1000 14.7027 -0.0325
22.1200 14.7161 -0.0308
22.1400 14.7294 -0.0224
22.1600 14.7427 -0.0308
22.1800 14.7560 -0.0307
22.2000 14.7694 -0.0245
22.2200 14.7827 -0.0370
22.2400 14.7960 -0.0246
22.2600 14.8093 -0.0301
22.2800 14.8227 -0.0371
22.3000 14.8360 -0.0246
22.3200 14.8494 -0.0316
22.3400 14.8627 -0.0374
22.3600 14.8761 -0.0233
22.3800 14.8894 -0.0373
22.4000 14.9027 -0.0369
22.4200 14.9161 -0.0296
22.4400 14.9294 -0.0388
22.4600 14.9428 -0.0352
22.4800 14.9561 -0.0280
22.5000 14.9694 -0.0423
22.5200 14.9827 -0.0316
22.5400 14.9960 -0.0315
22.5600 15.0094 -0.0416
22.5800 15.0226 -0.0312
22.6000 15.0359 -0.0329
22.6200 15.0493 -0.0397
22.6400 15.0627 -0.0379
22.6600 15.0760 -0.0371
22.6800 15.0893 -0.0399
22.7000 15.1027 -0.0389
22.7200 15.1161 -0.0369
22.7400 15.1294 -0.0398
22.7600 15.1428 -0.0391
22.7800 15.1561 -0.0390
22.8000 15.1694 -0.0407
22.8200 15.1827 -0.0410
22.8400 15.1960 -0.0418
22.8600 15.2093 -0.0407
22.8800 15.2227 -0.0429
22.9000 15.2360 -0.0385
22.9200 15.2494 -0.0488
22.9400 15.2627 -0.0419
22.9600 15.2760 -0.0427
22.9800 15.2893 -0.0463
23.0000 15.3027 -0.0446
23.0200 15.3160 -0.0444
23.0400 15.3293 -0.0434
23.0600 15.3427 -0.0477
23.0800 15.3560 -0.0499
23.1000 15.3694 -0.0486
23.1200 15.3827 -0.0441
23.1400 15.3960 -0.0462
23.1600 15.4094 -0.0514
23.1800 15.4228 -0.0473
23.2000 15.4361 -0.0512
23.2200 15.4494 -0.0480
23.2400 15.4627 -0.0425
23.2600 15.4760 -0.0534
23.2800 15.4893 -0.0461
23.3000 15.5027 -0.0461
23.3200 15.5159 -0.0545
23.3400 15.5293 -0.0499
23.3600 15.5426 -0.0467
23.3800 15.5560 -0.0582
23.4000 15.5693 -0.0463
23.4200 15.5827 -0.0502
23.4400 15.5961 -0.0573
23.4600 15.6094 -0.0460
23.4800 15.6228 -0.0525
23.5000 15.6361 -0.0535
23.5200 15.6494 -0.0459
23.5400 15.6628 -0.0570
23.5600 15.6761 -0.0547
23.5800 15.6894 -0.0507
23.6000 15.7027 -0.0517
23.6200 15.7160 -0.0514
23.6400 15.7294 -0.0576
23.6600 15.7427 -0.0570
23.6800 15.7560 -0.0524
23.7000 15.7693 -0.0577
23.7200 15.7826 -0.0521
23.7400 15.7960 -0.0516
23.7600 15.8093 -0.0627
23.7800 15.8227 -0.0495
23.8000 15.8361 -0.0573
23.8200 15.8494 -0.0627
23.8400 15.8628 -0.0534
23.8600 15.8761 -0.0599
23.8800 15.8894 -0.0639
23.9000 15.9027 -0.0499
23.9200 15.9160 -0.0652
23.9400 15.9293 -0.0622
23.9600 15.9426 -0.0562
23.9800 15.9560 -0.0656
24.0000 15.9693 -0.0647
24.0200 15.9827 -0.0531
24.0400 15.9960 -0.0702
24.0600 16.0093 -0.0645
24.0800 16.0227 -0.0562
24.1000 16.0360 -0.0661
24.1200 16.0494 -0.0636
24.1400 16.0627 -0.0585
24.1600 16.0761 -0.0689
24.1800 16.0894 -0.0666
24.2000 16.1027 -0.0630
24.2200 16.1160 -0.0699
24.2400 16.1293 -0.0600
24.2600 16.1427 -0.0659
24.2800 16.1561 -0.0710
24.3000 16.1694 -0.0627
24.3200 16.1827 -0.0667
24.3400 16.1961 -0.0688
24.3600 16.2094 -0.0673
24.3800 16.2227 -0.0725
24.4000 16.2360 -0.0698
24.4200 16.2493 -0.0693
24.4400 16.2627 -0.0656
24.4600 16.2760 -0.0696
24.4800 16.2893 -0.0739
24.5000 16.3027 -0.0689
24.5200 16.3160 -0.0681
24.5400 16.3294 -0.0755
24.5600 16.3427 -0.0677
24.5800 16.3561 -0.0720
24.6000 16.3694 -0.0772
24.6200 16.3827 -0.0658
24.6400 16.3961 -0.0771
24.6600 16.4094 -0.0776
24.6800 16.4227 -0.0608
24.7000 16.4361 -0.0836
24.7200 16.4494 -0.0751
24.7400 16.4627 -0.0641
24.7600 16.4760 -0.0879
24.7800 16.4893 -0.0757
24.8000 16.5026 -0.0642
24.8200 16.5160 -0.0905
24.8400 16.5293 -0.0727
24.8600 16.5427 -0.0654
24.8800 16.5560 -0.0996
24.9000 16.5694 -0.0748
24.9200 16.5828 -0.0696
24.9400 16.5961 -0.0995
24.9600 16.6094 -0.0674
24.9800 16.6228 -0.0747
25.0000 16.6361 -0.0989
25.0200 16.6494 -0.0649
25.0400 16.6627 -0.0842
25.0600 16.6760 -0.0911
25.0800 16.6893 -0.0704
25.1000 16.7027 -0.0819
25.1200 16.7160 -0.0914
25.1400 16.7293 -0.0705
25.1600 16.7427 -0.0861
25.1800 16.7560 -0.0881
25.2000 16.7693 -0.0737
25.2200 16.7827 -0.0909
25.2400 16.7960 -0.0822
25.2600 16.8094 -0.0786
25.2800 16.8227 -0.0899
25.3000 16.8361 -0.0808
25.3200 16.8494 -0.0833
25.3400 16.8628 -0.0865
25.3600 16.8761 -0.0847
25.3800 16.8894 -0.0901
25.4000 16.9027 -0.0831
25.4200 16.9160 -0.0827
25.4400 16.9294 -0.0921
25.4600 16.9427 -0.0808
25.4800 16.9560 -0.0876
25.5000 16.9693 -0.0980
25.5200 16.9826 -0.0754
25.5400 16.9960 -0.0955
25.5600 17.0093 -0.0972
25.5800 17.0226 -0.0774
25.6000 17.0360 -0.0971
25.6200 17.0494 -0.1003
25.6400 17.0628 -0.0743
25.6600 17.0761 -0.1010
25.6800 17.0894 -0.0940
25.7000 17.1027 -0.0790
25.7200 17.1161 -0.1013
25.7400 17.1294 -0.0937
25.7600 17.1427 -0.0827
25.7800 17.1560 -0.1055
25.8000 17.1694 -0.0884
25.8200 17.1827 -0.0903
25.8400 17.1960 -0.1064
25.8600 17.2093 -0.0869
25.8800 17.2227 -0.0933
25.9000 17.2360 -0.1031
25.9200 17.2493 -0.0915
25.9400 17.2627 -0.0983
25.9600 17.2760 -0.1004
25.9800 17.2894 -0.0916
26.0000 17.3028 -0.1020
26.0200 17.3161 -0.0976
26.0400 17.3294 -0.0934
26.0600 17.3428 -0.1020
26.0800 17.3561 -0.1005
26.1000 17.3694 -0.1020
26.1200 17.3827 -0.1034
26.1400 17.3960 -0.0893
26.1600 17.4093 -0.1083
26.1800 17.4227 -0.0984
26.2000 17.4360 -0.0938
26.2200 17.4493 -0.1104
26.2400 17.4627 -0.1007
26.2600 17.4760 -0.0968
26.2800 17.4894 -0.1171
26.3000 17.5027 -0.0947
26.3200 17.5160 -0.1043
26.3400 17.5294 -0.1170
26.3600 17.5427 -0.0922
26.3800 17.5560 -0.1067
26.4000 17.5693 -0.1145
26.4200 17.5827 -0.0907
26.4400 17.5961 -0.1150
26.4600 17.6094 -0.1124
26.4800 17.6227 -0.0906
26.5000 17.6360 -0.1145
26.5200 17.6494 -0.1117
26.5400 17.6627 -0.0961
26.5600 17.6760 -0.1188
26.5800 17.6893 -0.1054
26.6000 17.7026 -0.0993
26.6200 17.7160 -0.1189
26.6400 17.7293 -0.1065
26.6600 17.7426 -0.1080
26.6800 17.7560 -0.1163
26.7000 17.7694 -0.1109
26.7200 17.7828 -0.1156
26.7400 17.7961 -0.1168
26.7600 17.8094 -0.1095
26.7800 17.8228 -0.1177
26.8000 17.8361 -0.1075
26.8200 17.8494 -0.1172
26.8400 17.8627 -0.1176
26.8600 17.8760 -0.1130
26.8800 17.8893 -0.1182
26.9000 17.9027 -0.1212
26.9200 17.9160 -0.1120
26.9400 17.9293 -0.1217
26.9600 17.9426 -0.1190
26.9800 17.9560 -0.1147
27.0000 17.9693 -0.1273
27.0200 17.9826 -0.1176
27.0400 17.9960 -0.1150
27.0600 18.0094 -0.1301
27.0800 18.0228 -0.1167
27.1000 18.0361 -0.1239
27.1200 18.0494 -0.1280
27.1400 18.0627 -0.1199
27.1600 18.0761 -0.1258
27.1800 18.0894 -0.1257
27.2000 18.1027 -0.1241
27.2200 18.1160 -0.1241
27.2400 18.1294 -0.1323
27.2600 18.1427 -0.1225
27.2800 18.1560 -0.1307
27.3000 18.1693 -0.1303
27.3200 18.1826 -0.1250
27.3400 18.1960 -0.1287
27.3600 18.2093 -0.1336
27.3800 18.2227 -0.1260
27.4000 18.2360 -0.1298
27.4200 18.2494 -0.1316
27.4400 18.2627 -0.1292
27.4600 18.2761 -0.1295
27.4800 18.2894 -0.1359
27.5000 18.3027 -0.1290
27.5200 18.3161 -0.1371
27.5400 18.3294 -0.1322
27.5600 18.3427 -0.1328
27.5800 18.3561 -0.1390
27.6000 18.3694 -0.1359
27.6200 18.3827 -0.1309
27.6400 18.3960 -0.1374
27.6600 18.4093 -0.1384
27.6800 18.4226 -0.1346
27.7000 18.4360 -0.1417
27.7200 18.4493 -0.1373
27.7400 18.4627 -0.1363
27.7600 18.4760 -0.1385
27.7800 18.4894 -0.1373
27.8000 18.5028 -0.1433
27.8200 18.5161 -0.1416
27.8400 18.5294 -0.1388
27.8600 18.5427 -0.1430
27.8800 18.5561 -0.1387
27.9000 18.5694 -0.1446
27.9200 18.5827 -0.1483
27.9400 18.5960 -0.1396
27.9600 18.6093 -0.1432
27.9800 18.6227 -0.1553
28.0000 18.6360 -0.1386
28.0200 18.6493 -0.1469
28.0400 18.6627 -0.1533
28.0600 18.6760 -0.1374
28.0800 18.6893 -0.1493
28.1000 18.7027 -0.1543
28.1200 18.7160 -0.1433
28.1400 18.7294 -0.1507
28.1600 18.7428 -0.1542
28.1800 18.7561 -0.1480
28.2000 18.7694 -0.1522
28.2200 18.7827 -0.1508
28.2400 18.7961 -0.1493
28.2600 18.8094 -0.1576
28.2800 18.8227 -0.1512
28.3000 18.8360 -0.1466
28.3200 18.8494 -0.1635
28.3400 18.8627 -0.1527
28.3600 18.8760 -0.1452
28.3800 18.8893 -0.1609
28.4000 18.9026 -0.1553
28.4200 18.9160 -0.1511
28.4400 18.9293 -0.1653
28.4600 18.9427 -0.1539
28.4800 18.9560 -0.1535
28.5000 18.9694 -0.1636
28.5200 18.9827 -0.1589
28.5400 18.9961 -0.1605
28.5600 19.0094 -0.1606
28.5800 19.0227 -0.1521
28.6000 19.0361 -0.1686
28.6200 19.0494 -0.1590
28.6400 19.0627 -0.1557
28.6600 19.0760 -0.1702
28.6800 19.0894 -0.1629
28.7000 19.1027 -0.1620
28.7200 19.1160 -0.1692
28.7400 19.1293 -0.1579
28.7600 19.1426 -0.1648
28.7800 19.1559 -0.1742
28.8000 19.1693 -0.1576
28.8200 19.1826 -0.1688
28.8400 19.1960 -0.1729
28.8600 19.2094 -0.1553
28.8800 19.2228 -0.1749
28.9000 19.2361 -0.1750
28.9200 19.2494 -0.1527
28.9400 19.2628 -0.1793
28.9600 19.2761 -0.1724
28.9800 19.2894 -0.1555
29.0000 19.3027 -0.1859
29.0200 19.3160 -0.1683
29.0400 19.3293 -0.1558
29.0600 19.3427 -0.1921
29.0800 19.3560 -0.1672
29.1000 19.3693 -0.1651
29.1200 19.3827 -0.1887
29.1400 19.3960 -0.1665
29.1600 19.4094 -0.1685
29.1800 19.4227 -0.1860
29.2000 19.4360 -0.1643
29.2200 19.4494 -0.1795
29.2400 19.4628 -0.1877
29.2600 19.4761 -0.1668
29.2800 19.4894 -0.1808
29.3000 19.5027 -0.1914
29.3200 19.5160 -0.1637
29.3400 19.5294 -0.1869
29.3600 19.5427 -0.1955
29.3800 19.5560 -0.1716
29.4000 19.5693 -0.1917
29.4200 19.5827 -0.1894
29.4400 19.5960 -0.1689
29.4600 19.6093 -0.1945
29.4800 19.6226 -0.2031
29.5000 19.6360 -0.1683
29.5200 19.6494 -0.1961
29.5400 19.6627 -0.1971
29.5600 19.6760 -0.1794
29.5800 19.6894 -0.1972
29.6000 19.7027 -0.1911
29.6200 19.7161 -0.1698
29.6400 19.7294 -0.2107
29.6600 19.7427 -0.1969
29.6800 19.7560 -0.1699
29.7000 19.7694 -0.2064
29.7200 19.7827 -0.1983
29.7400 19.7960 -0.1787
29.7600 19.8094 -0.2114
29.7800 19.8227 -0.1922
29.8000 19.8360 -0.1887
29.8200 19.8493 -0.2131
29.8400 19.8626 -0.1815
29.8600 19.8760 -0.1944
29.8800 19.8893 -0.2260
29.9000 19.9027 -0.1795
29.9200 19.9160 -0.1933
29.9400 19.9294 -0.2222
29.9600 19.9428 -0.1928
29.9800 19.9561 -0.2025
30.0000 19.9694 -0.2088
30.0200 19.9828 -0.1884
30.0400 19.9961 -0.2212
30.0600 20.0094 -0.2057
30.0800 20.0227 -0.1822
30.1000 20.0360 -0.2295
30.1200 20.0493 -0.1993
30.1400 20.0627 -0.1891
30.1600 20.0760 -0.2308
30.1800 20.0893 -0.1969
30.2000 20.1027 -0.1940
30.2200 20.1160 -0.2379
30.2400 20.1293 -0.1921
30.2600 20.1427 -0.2035
30.2800 20.1560 -0.2327
30.3000 20.1693 -0.1947
30.3200 20.1827 -0.2159
30.3400 20.1961 -0.2303
30.3600 20.2094 -0.1985
30.3800 20.2227 -0.2224
30.4000 20.2361 -0.2208
30.4200 20.2494 -0.2014
30.4400 20.2627 -0.2390
30.4600 20.2760 -0.2145
30.4800 20.2894 -0.2024
30.5000 20.3027 -0.2455
30.5200 20.3160 -0.2158
30.5400 20.3293 -0.2086
30.5600 20.3426 -0.2485
30.5800 20.3560 -0.2193
30.6000 20.3693 -0.2106
30.6200 20.3827 -0.2492
30.6400 20.3960 -0.2250
30.6600 20.4094 -0.2126
30.6800 20.4228 -0.2519
30.7000 20.4361 -0.2342
30.7200 20.4494 -0.2089
30.7400 20.4627 -0.1669
30.7600 20.4760 -0.0919
30.7800 20.4894 -0.0293
30.8000 20.5027 -0.0055
30.8200 20.5160 0.0221
30.8400 20.5293 0.0644
30.8600 20.5427 0.1154
30.8800 20.5560 0.1632
30.9000 20.5693 0.2199
30.9200 20.5826 0.2814
30.9400 20.5960 0.3315
30.9600 20.6093 0.3725
30.9800 20.6226 0.4144
31.0000 20.6360 0.4594
31.0200 20.6493 0.5004
31.0400 20.6627 0.5367
31.0600 20.6761 0.5798
31.0800 20.6894 0.6039
31.1000 20.7027 0.5936
31.1200 20.7161 0.6119
31.1400 20.7294 0.6078
31.1600 20.7427 0.5875
31.1800 20.7560 0.6056
31.2000 20.7693 0.6097
31.2200 20.7826 0.5954
31.2400 20.7960 0.6083
31.2600 20.8093 0.6035
31.2800 20.8226 0.5952
31.3000 20.8360 0.6054
31.3200 20.8494 0.6059
31.3400 20.8627 0.5896
31.3600 20.8760 0.6093
31.3800 20.8894 0.6025
31.4000 20.9028 0.5874
31.4200 20.9161 0.6020
31.4400 20.9294 0.5984
31.4600 20.9427 0.5892
31.4800 20.9560 0.5983
31.5000 20.9694 0.5920
31.5200 20.9827 0.5865
31.5400 20.9961 0.5953
31.5600 21.0094 0.5934
31.5800 21.0227 0.5812
31.6000 21.0361 0.5875
31.6200 21.0494 0.5903
31.6400 21.0627 0.5827
31.6600 21.0760 0.5788
31.6800 21.0893 0.5837
31.7000 21.1027 0.5840
31.7200 21.1160 0.5738
31.7400 21.1293 0.5785
31.7600 21.1427 0.5828
31.7800 21.1560 0.5788
31.8000 21.1694 0.5722
31.8200 21.1827 0.5757
31.8400 21.1960 0.5767
31.8600 21.2094 0.5786
31.8800 21.2227 0.5659
31.9000 21.2361 0.5681
31.9200 21.2494 0.5816
31.9400 21.2627 0.5699
31.9600 21.2760 0.5575
31.9800 21.2893 0.5803
32.0000 21.3027 0.5679
32.0200 21.3160 0.5551
32.0400 21.3293 0.5678
32.0600 21.3427 0.5642
32.0800 21.3560 0.5658
32.1000 21.3693 0.5669
32.1200 21.3827 0.5624
32.1400 21.3961 0.5601
32.1600 21.4094 0.5606
32.1800 21.4227 0.5682
32.2000 21.4361 0.5584
32.2200 21.4494 0.5557
32.2400 21.4627 0.5665
32.2600 21.4760 0.5549
32.2800 21.4893 0.5520
32.3000 21.5027 0.5548
32.3200 21.5160 0.5569
32.3400 21.5293 0.5441
32.3600 21.5426 0.5520
32.3800 21.5560 0.5535
32.4000 21.5693 0.5444
32.4200 21.5827 0.5490
32.4400 21.5960 0.5472
32.4600 21.6093 0.5420
32.4800 21.6227 0.5527
32.5000 21.6360 0.5431
32.5200 21.6494 0.5373
32.5400 21.6627 0.5482
32.5600 21.6761 0.5391
32.5800 21.6894 0.5339
32.6000 21.7028 0.5460
32.6200 21.7161 0.5328
32.6400 21.7294 0.5319
32.6600 21.7427 0.5381
32.6800 21.7560 0.5326
32.7000 21.7693 0.5278
32.7200 21.7826 0.5359
32.7400 21.7960 0.5253
32.7600 21.8093 0.5236
32.7800 21.8227 0.5327
32.8000 21.8360 0.5213
32.8200 21.8493 0.5279
32.8400 21.8627 0.5241
32.8600 21.8761 0.5142
32.8800 21.8894 0.5225
32.9000 21.9027 0.5171
32.9200 21.9161 0.5131
32.9400 21.9294 0.5242
32.9600 21.9428 0.5141
32.9800 21.9561 0.5121
33.0000 21.9694 0.5135
33.0200 21.9827 0.5167
33.0400 21.9961 0.5127
33.0600 22.0094 0.5093
33.0800 22.0227 0.5122
33.1000 22.0360 0.5114
33.1200 22.0493 0.5014
33.1400 22.0627 0.5183
33.1600 22.0760 0.5077
33.1800 22.0893 0.4907
33.2000 22.1027 0.5116
33.2200 22.1161 0.5108
33.2400 22.1294 0.4962
33.2600 22.1427 0.5137
33.2800 22.1560 0.5051
33.3000 22.1694 0.4960
33.3200 22.1827 0.5162
33.3400 22.1960 0.5024
33.3600 22.2093 0.4915
33.3800 22.2227 0.5122
33.4000 22.2360 0.5006
33.4200 22.2493 0.4897
33.4400 22.2627 0.5035
33.4600 22.2760 0.4988
33.4800 22.2893 0.4933
33.5000 22.3027 0.4937
33.5200 22.3160 0.4982
33.5400 22.3293 0.4938
33.5600 22.3427 0.4948
33.5800 22.3560 0.4895
33.6000 22.3694 0.4884
33.6200 22.3827 0.4947
33.6400 22.3960 0.4914
33.6600 22.4094 0.4752
33.6800 22.4227 0.4918
33.7000 22.4361 0.4947
33.7200 22.4494 0.4713
33.7400 22.4627 0.4875
33.7600 22.4761 0.4869
33.7800 22.4894 0.4701
33.8000 22.5027 0.4870
33.8200 22.5160 0.4789
33.8400 22.5293 0.4741
33.8600 22.5427 0.4894
33.8800 22.5560 0.4738
33.9000 22.5693 0.4732
33.9200 22.5827 0.4878
33.9400 22.5961 0.4713
33.9600 22.6094 0.4663
33.9800 22.6228 0.4838
34.0000 22.6361 0.4726
34.0200 22.6495 0.4702
34.0400 22.6628 0.4740
34.0600 22.6761 0.4714
34.0800 22.6894 0.4674
34.1000 22.7027 0.4687
34.1200 22.7160 0.4668
34.1400 22.7293 0.4690
34.1600 22.7426 0.4628
34.1800 22.7559 0.4684
34.2000 22.7693 0.4645
34.2200 22.7827 0.4583
34.2400 22.7960 0.4660
34.2600 22.8093 0.4669
34.2800 22.8227 0.4576
34.3000 22.8361 0.4583
34.3200 22.8494 0.4608
34.3400 22.8628 0.4617
34.3600 22.8761 0.4626
34.3800 22.8894 0.4548
34.4000 22.9028 0.4547
34.4200 22.9161 0.4587
34.4400 22.9294 0.4488
34.4600 22.9427 0.4586
34.4800 22.9560 0.4569
34.5000 22.9693 0.4427
34.5200 22.9826 0.4474
34.5400 22.9960 0.4545
34.5600 23.0093 0.4441
34.5800 23.0227 0.4493
34.6000 23.0360 0.4521
34.6200 23.0493 0.4352
34.6400 23.0627 0.4547
34.6600 23.0760 0.4428
34.6800 23.0894 0.4311
34.7000 23.1027 0.4496
34.7200 23.1160 0.4461
34.7400 23.1294 0.4298
34.7600 23.1427 0.4438
34.7800 23.1561 0.4422
34.8000 23.1694 0.4268
34.8200 23.1827 0.4418
34.8400 23.1960 0.4385
34.8600 23.2094 0.4225
34.8800 23.2227 0.4376
34.9000 23.2360 0.4284
34.9200 23.2493 0.4304
34.9400 23.2627 0.4309
34.9600 23.2760 0.4285
34.9800 23.2894 0.4252
35.0000 23.3027 0.4264
35.0200 23.3161 0.4249
35.0400 23.3294 0.4213
35.0600 23.3427 0.4202
35.0800 23.3561 0.4238
35.1000 23.3694 0.4238
35.1200 23.3827 0.4116
35.1400 23.3960 0.4234
35.1600 23.4093 0.4223
35.1800 23.4227 0.4127
35.2000 23.4360 0.4259
35.2200 23.4494 0.4153
35.2400 23.4627 0.4095
35.2600 23.4760 0.4317
35.2800 23.4893 0.4085
35.3000 23.5027 0.4095
35.3200 23.5160 0.4256
35.3400 23.5293 0.4068
35.3600 23.5427 0.4083
35.3800 23.5561 0.4229
35.4000 23.5694 0.4013
35.4200 23.5828 0.4083
35.4400 23.5961 0.4219
35.4600 23.6094 0.4057
35.4800 23.6228 0.4049
35.5000 23.6361 0.4160
35.5200 23.6494 0.4008
35.5400 23.6627 0.4067
35.5600 23.6760 0.4115
35.5800 23.6894 0.4002
35.6000 23.7027 0.4046
35.6200 23.7160 0.4072
35.6400 23.7293 0.4030
35.6600 23.7427 0.3951
35.6800 23.7560 0.4058
35.7000 23.7693 0.4012
35.7200 23.7827 0.3978
35.7400 23.7961 0.3988
35.7600 23.8094 0.3955
35.7800 23.8227 0.3934
35.8000 23.8361 0.3957
35.8200 23.8494 0.3991
35.8400 23.8627 0.3851
35.8600 23.8761 0.3939
35.8800 23.8894 0.4003
35.9000 23.9027 0.3826
35.9200 23.9160 0.3941
35.9400 23.9294 0.3931
35.9600 23.9427 0.3838
35.9800 23.9559 0.3906
36.0000 23.9693 0.3928
36.0200 23.9826 0.3779
36.0400 23.9960 0.3889
36.0600 24.0093 0.3874
36.0800 24.0227 0.3768
36.1000 24.0361 0.3880
36.1200 24.0495 0.3765
36.1400 24.0628 0.3723
36.1600 24.0761 0.3859
36.1800 24.0894 0.3804
36.2000 24.1028 0.3710
36.2200 24.1161 0.3845
36.2400 24.1293 0.3733
36.2600 24.1426 0.3707
36.2800 24.1560 0.3811
36.3000 24.1693 0.3696
36.3200 24.1826 0.3727
36.3400 24.1960 0.3759
36.3600 24.2093 0.3700
36.3800 24.2227 0.3726
36.4000 24.2360 0.3656
36.4200 24.2494 0.3736
36.4400 24.2627 0.3689
36.4600 24.2761 0.3616
36.4800 24.2894 0.3612
36.5000 24.3028 0.3692
36.5200 24.3161 0.3574
36.5400 24.3294 0.3598
36.5600 24.3427 0.3705
36.5800 24.3561 0.3561
36.6000 24.3694 0.3568
36.6200 24.3827 0.3663
36.6400 24.3960 0.3552
36.6600 24.4093 0.3540
36.6800 24.4227 0.3575
36.7000 24.4360 0.3510
36.7200 24.4493 0.3563
36.7400 24.4627 0.3573
36.7600 24.4760 0.3443
36.7800 24.4894 0.3537
36.8000 24.5027 0.3579
36.8200 24.5161 0.3421
36.8400 24.5294 0.3530
36.8600 24.5427 0.3499
36.8800 24.5560 0.3431
36.9000 24.5694 0.3505
36.9200 24.5827 0.3459
36.9400 24.5961 0.3394
36.9600 24.6094 0.3548
36.9800 24.6227 0.3450
37.0000 24.6360 0.3378
37.0200 24.6494 0.3467
37.0400 24.6627 0.3446
37.0600 24.6760 0.3387
37.0800 24.6893 0.3473
37.1000 24.7027 0.3401
37.1200 24.7160 0.3371
37.1400 24.7293 0.3435
37.1600 24.7427 0.3395
37.1800 24.7560 0.3388
37.2000 24.7694 0.3441
37.2200 24.7828 0.3334
37.2400 24.7961 0.3324
37.2600 24.8094 0.3436
37.2800 24.8228 0.3309
37.3000 24.8361 0.3275
37.3200 24.8494 0.3419
37.3400 24.8627 0.3297
37.3600 24.8760 0.3241
37.3800 24.8894 0.3421
37.4000 24.9027 0.3301
37.4200 24.9160 0.3226
37.4400 24.9293 0.3369
37.4600 24.9427 0.3258
37.4800 24.9560 0.3205
37.5000 24.9693 0.3386
37.5200 24.9827 0.3199
37.5400 24.9960 0.3218
37.5600 25.0094 0.3370
37.5800 25.0227 0.3209
37.6000 25.0360 0.3179
37.6200 25.0494 0.3376
37.6400 25.0627 0.3170
37.6600 25.0761 0.3144
37.6800 25.0894 0.3308
37.7000 25.1027 0.3142
37.7200 25.1160 0.3168
37.7400 25.1294 0.3277
37.7600 25.1427 0.3092
37.7800 25.1560 0.3101
37.8000 25.1693 0.3263
37.8200 25.1826 0.3072
37.8400 25.1960 0.3069
37.8600 25.2093 0.3199
37.8800 25.2227 0.3064
37.9000 25.2361 0.3033
37.9200 25.2494 0.3173
37.9400 25.2628 0.3021
37.9600 25.2761 0.2997
37.9800 25.2894 0.3149
38.0000 25.3028 0.3083
38.0200 25.3161 0.3008
38.0400 25.3294 0.3151
38.0600 25.3427 0.3028
38.0800 25.3560 0.3019
38.1000 25.3694 0.3090
38.1200 25.3827 0.2978
38.1400 25.3960 0.3011
38.1600 25.4093 0.3098
38.1800 25.4226 0.2953
38.2000 25.4360 0.2987
38.2200 25.4493 0.3047
38.2400 25.4626 0.2942
38.2600 25.4760 0.2955
38.2800 25.4894 0.2977
38.3000 25.5028 0.2898
38.3200 25.5161 0.2936
38.3400 25.5294 0.3010
38.3600 25.5428 0.2904
38.3800 25.5561 0.2887
38.4000 25.5694 0.2979
38.4200 25.5827 0.2923
38.4400 25.5960 0.2859
38.4600 25.6093 0.2949
38.4800 25.6227 0.2878
38.5000 25.6360 0.2789
38.5200 25.6493 0.2932
38.5400 25.6627 0.2922
38.5600 25.6761 0.2738
38.5800 25.6894 0.2968
38.6000 25.7027 0.2892
38.6200 25.7160 0.2725
38.6400 25.7294 0.2898
38.6600 25.7427 0.2827
38.6800 25.7560 0.2728
38.7000 25.7694 0.2918
38.7200 25.7827 0.2836
38.7400 25.7961 0.2698
38.7600 25.8094 0.2916
38.7800 25.8227 0.2861
38.8000 25.8360 0.2640
38.8200 25.8494 0.2910
38.8400 25.8627 0.2788
38.8600 25.8760 0.2663
38.8800 25.8893 0.2862
38.9000 25.9027 0.2741
38.9200 25.9160 0.2645
38.9400 25.9293 0.2817
38.9600 25.9426 0.2737
38.9800 25.9560 0.2673
39.0000 25.9694 0.2811
39.0200 25.9827 0.2667
39.0400 25.9960 0.2676
39.0600 26.0094 0.2774
39.0800 26.0227 0.2642
39.1000 26.0361 0.2644
39.1200 26.0494 0.2752
39.1400 26.0627 0.2662
39.1600 26.0760 0.2695
39.1800 26.0894 0.2676
39.2000 26.1027 0.2633
39.2200 26.1160 0.2663
39.2400 26.1293 0.2674
39.2600 26.1426 0.2628
39.2800 26.1560 0.2619
39.3000 26.1693 0.2595
39.3200 26.1827 0.2599
39.3400 26.1960 0.2622
39.3600 26.2094 0.2551
39.3800 26.2228 0.2629
39.4000 26.2361 0.2570
39.4200 26.2494 0.2475
39.4400 26.2628 0.2664
39.4600 26.2761 0.2552
39.4800 26.2894 0.2489
39.5000 26.3027 0.2628
39.5200 26.3160 0.2515
39.5400 26.3294 0.2520
39.5600 26.3427 0.2620
39.5800 26.3560 0.2460
39.6000 26.3693 0.2532
39.6200 26.3827 0.2627
39.6400 26.3960 0.2398
39.6600 26.4094 0.2521
39.6800 26.4227 0.2581
39.7000 26.4360 0.2414
39.7200 26.4494 0.2472
39.7400 26.4627 0.2540
39.7600 26.4761 0.2385
39.7800 26.4894 0.2410
39.8000 26.5028 0.2466
39.8200 26.5161 0.2422
39.8400 26.5294 0.2451
39.8600 26.5427 0.2469
39.8800 26.5560 0.2357
39.9000 26.5693 0.2433
39.9200 26.5827 0.2355
39.9400 26.5960 0.2349
39.9600 26.6093 0.2435
39.9800 26.6226 0.2372
40.0000 26.6360 0.2313
40.0200 26.6493 0.2322
40.0400 26.6627 0.2370
40.0600 26.6760 0.2339
40.0800 26.6894 0.2348
40.1000 26.7028 0.2326
40.1200 26.7161 0.2269
40.1400 26.7294 0.2267
40.1600 26.7427 0.2346
40.1800 26.7561 0.2328
40.2000 26.7694 0.2269
40.2200 26.7827 0.2245
40.2400 26.7960 0.2304
40.2600 26.8094 0.2197
40.2800 26.8227 0.2247
40.3000 26.8360 0.2280
40.3200 26.8493 0.2202
40.3400 26.8627 0.2180
40.3600 26.8760 0.2233
40.3800 26.8893 0.2154
40.4000 26.9027 0.2200
40.4200 26.9160 0.2169
40.4400 26.9294 0.2134
40.4600 26.9427 0.2149
40.4800 26.9560 0.2139
40.5000 26.9694 0.2109
40.5200 26.9827 0.2108
40.5400 26.9961 0.2109
40.5600 27.0094 0.2081
40.5800 27.0227 0.2104
40.6000 27.0360 0.2131
40.6200 27.0493 0.2023
40.6400 27.0627 0.2113
40.6600 27.0760 0.2065
40.6800 27.0893 0.2017
40.7000 27.1026 0.2071
40.7200 27.1160 0.2031
40.7400 27.1294 0.1991
40.7600 27.1427 0.2022
40.7800 27.1560 0.2032
40.8000 27.1694 0.1902
40.8200 27.1827 0.2038
40.8400 27.1960 0.1997
40.8600 27.2093 0.1950
40.8800 27.2227 0.1970
40.9000 27.2361 0.2004
40.9200 27.2494 0.1909
40.9400 27.2627 0.1972
40.9600 27.2761 0.1971
40.9800 27.2894 0.1887
41.0000 27.3028 0.1965
41.0200 27.3161 0.1894
41.0400 27.3293 0.1853
41.0600 27.3426 0.1960
41.0800 27.3560 0.1870
41.1000 27.3693 0.1857
41.1200 27.3826 0.1825
41.1400 27.3960 0.1912
41.1600 27.4094 0.1855
41.1800 27.4228 0.1796
41.2000 27.4361 0.1894
41.2200 27.4494 0.1884
41.2400 27.4628 0.1811
41.2600 27.4761 0.1836
41.2800 27.4894 0.1868
41.3000 27.5027 0.1806
41.3200 27.5160 0.1838
41.3400 27.5293 0.1798
41.3600 27.5427 0.1796
41.3800 27.5560 0.1823
41.4000 27.5693 0.1791
41.4200 27.5826 0.1769
41.4400 27.5960 0.1810
41.4600 27.6093 0.1789
41.4800 27.6227 0.1829
41.5000 27.6360 0.1785
41.5200 27.6494 0.1827
41.5400 27.6628 0.1766
41.5600 27.6761 0.1798
41.5800 27.6894 0.1764
41.6000 27.7027 0.1778
41.6200 27.7161 0.1821
41.6400 27.7294 0.1778
41.6600 27.7427 0.1760
41.6800 27.7560 0.1828
41.7000 27.7693 0.1779
41.7200 27.7827 0.1756
41.7400 27.7960 0.1784
41.7600 27.8093 0.1754
41.7800 27.8226 0.1745
41.8000 27.8360 0.1795
41.8200 27.8494 0.1750
41.8400 27.8627 0.1741
41.8600 27.8760 0.1814
41.8800 27.8894 0.1721
41.9000 27.9028 0.1737
41.9200 27.9161 0.1789
41.9400 27.9294 0.1675
41.9600 27.9427 0.1705
41.9800 27.9561 0.1758
42.0000 27.9694 0.1644
42.0200 27.9827 0.1712
42.0400 27.9960 0.1744
42.0600 28.0094 0.1633
42.0800 28.0227 0.1644
42.1000 28.0360 0.1724
42.1200 28.0493 0.1578
42.1400 28.0626 0.1647
42.1600 28.0760 0.1684
42.1800 28.0893 0.1515
42.2000 28.1027 0.1611
42.2200 28.1160 0.1678
42.2400 28.1294 0.1482
42.2600 28.1428 0.1584
42.2800 28.1561 0.1604
42.3000 28.1694 0.1483
42.3200 28.1827 0.1589
42.3400 28.1961 0.1574
42.3600 28.2094 0.1426
42.3800 28.2227 0.1485
42.4000 28.2360 0.1503
42.4200 28.2493 0.1404
42.4400 28.2627 0.1479
42.4600 28.2760 0.1443
42.4800 28.2893 0.1394
42.5000 28.3027 0.1451
42.5200 28.3160 0.1434
42.5400 28.3293 0.1374
42.5600 28.3427 0.1360
42.5800 28.3560 0.1380
42.6000 28.3694 0.1419
42.6200 28.3827 0.1322
42.6400 28.3961 0.1388
42.6600 28.4094 0.1380
42.6800 28.4227 0.1269
42.7000 28.4361 0.1290
42.7200 28.4495 0.1358
42.7400 28.4627 0.1243
42.7600 28.4760 0.1329
42.7800 28.4894 0.1361
42.8000 28.5027 0.1209
42.8200 28.5160 0.1332
42.8400 28.5293 0.1318
42.8600 28.5426 0.1187
42.8800 28.5560 0.1316
42.9000 28.5693 0.1289
42.9200 28.5827 0.1170
42.9400 28.5960 0.1316
42.9600 28.6094 0.1296
42.9800 28.6227 0.1126
43.0000 28.6361 0.1255
43.0200 28.6494 0.1284
43.0400 28.6627 0.1096
43.0600 28.6761 0.1287
43.0800 28.6894 0.1245
43.1000 28.7027 0.1123
43.1200 28.7160 0.1310
43.1400 28.7294 0.1279
43.1600 28.7427 0.1048
43.1800 28.7560 0.1268
43.2000 28.7693 0.1208
43.2200 28.7826 0.1074
43.2400 28.7959 0.1280
43.2600 28.8093 0.1211
43.2800 28.8226 0.1042
43.3000 28.8360 0.1238
43.3200 28.8494 0.1146
43.3400 28.8628 0.1041
43.3600 28.8761 0.1207
43.3800 28.8895 0.1142
43.4000 28.9028 0.1051
43.4200 28.9161 0.1156
43.4400 28.9295 0.1118
43.4600 28.9427 0.1099
43.4800 28.9560 0.1175
43.5000 28.9693 0.1078
43.5200 28.9826 0.1067
43.5400 28.9960 0.1095
43.5600 29.0093 0.1135
43.5800 29.0226 0.1045
43.6000 29.0360 0.1098
43.6200 29.0494 0.1097
43.6400 29.0627 0.1069
43.6600 29.0761 0.1051
43.6800 29.0894 0.1123
43.7000 29.1028 0.1002
43.7200 29.1161 0.1052
43.7400 29.1294 0.1066
43.7600 29.1427 0.1005
43.7800 29.1561 0.1058
43.8000 29.1694 0.1053
43.8200 29.1827 0.0985
43.8400 29.1960 0.1065
43.8600 29.2093 0.1037
43.8800 29.2227 0.0978
43.9000 29.2360 0.1051
43.9200 29.2493 0.1082
43.9400 29.2626 0.0922
43.9600 29.2760 0.1043
43.9800 29.2893 0.1021
44.0000 29.3027 0.0918
44.0200 29.3160 0.1089
44.0400 29.3294 0.1031
44.0600 29.3427 0.0914
44.0800 29.3561 0.1076
44.1000 29.3694 0.0971
44.1200 29.3827 0.0875
44.1400 29.3961 0.1079
44.1600 29.4094 0.0896
44.1800 29.4227 0.0920
44.2000 29.4360 0.1041
44.2200 29.4493 0.0922
44.2400 29.4627 0.0900
44.2600 29.4760 0.0993
44.2800 29.4893 0.0852
44.3000 29.5026 0.0935
44.3200 29.5160 0.0991
44.3400 29.5293 0.0758
44.3600 29.5427 0.0953
44.3800 29.5560 0.0965
44.4000 29.5693 0.0749
44.4200 29.5827 0.0998
44.4400 29.5961 0.0845
44.4600 29.6094 0.0745
44.4800 29.6227 0.0943
44.5000 29.6361 0.0826
44.5200 29.6494 0.0775
44.5400 29.6627 0.0941
44.5600 29.6760 0.0768
44.5800 29.6893 0.0790
44.6000 29.7027 0.0870
44.6200 29.7160 0.0708
44.6400 29.7293 0.0805
44.6600 29.7426 0.0838
44.6800 29.7560 0.0691
44.7000 29.7693 0.0836
44.7200 29.7827 0.0789
44.7400 29.7960 0.0635
44.7600 29.8093 0.0836
44.7800 29.8227 0.0722
44.8000 29.8361 0.0666
44.8200 29.8494 0.0748
44.8400 29.8627 0.0716
44.8600 29.8761 0.0692
44.8800 29.8894 0.0748
44.9000 29.9028 0.0623
44.9200 29.9161 0.0704
44.9400 29.9294 0.0715
44.9600 29.9427 0.0612
44.9800 29.9560 0.0653
45.0000 29.9693 0.0679
45.0200 29.9826 0.0617
45.0400 29.9960 0.0670
45.0600 30.0093 0.0617
45.0800 30.0227 0.0600
45.1000 30.0360 0.0598
45.1200 30.0494 0.0622
45.1400 30.0628 0.0609
45.1600 30.0761 0.0539
45.1800 30.0894 0.0587
45.2000 30.1027 0.0617
45.2200 30.1160 0.0515
45.2400 30.1294 0.0524
45.2600 30.1427 0.0595
45.2800 30.1560 0.0472
45.3000 30.1693 0.0529
45.3200 30.1827 0.0586
45.3400 30.1960 0.0444
45.3600 30.2093 0.0471
45.3800 30.2226 0.0583
45.4000 30.2360 0.0393
45.4200 30.2493 0.0474
45.4400 30.2627 0.0514
45.4600 30.2760 0.0358
45.4800 30.2894 0.0437
45.5000 30.3027 0.0488
45.5200 30.3161 0.0341
45.5400 30.3294 0.0424
45.5600 30.3427 0.0441
45.5800 30.3561 0.0354
45.6000 30.3694 0.0448
45.6200 30.3827 0.0393
45.6400 30.3960 0.0315
45.6600 30.4093 0.0478
45.6800 30.4226 0.0368
45.7000 30.4360 0.0280
45.7200 30.4493 0.0420
45.7400 30.4626 0.0377
45.7600 30.4760 0.0285
45.7800 30.4894 0.0373
45.8000 30.5027 0.0362
45.8200 30.5160 0.0245
45.8400 30.5294 0.0355
45.8600 30.5427 0.0317
45.8800 30.5561 0.0264
45.9000 30.5694 0.0296
45.9200 30.5827 0.0307
45.9400 30.5960 0.0235
45.9600 30.6094 0.0294
45.9800 30.6227 0.0240
46.0000 30.6361 0.0256
46.0200 30.6494 0.0226
46.0400 30.6627 0.0281
46.0600 30.6761 0.0197
46.0800 30.6894 0.0163
46.1000 30.7027 0.0241
46.1200 30.7160 0.0238
46.1400 30.7293 0.0171
46.1600 30.7427 0.0227
46.1800 30.7560 0.0194
46.2000 30.7693 0.0114
46.2200 30.7827 0.0224
46.2400 30.7960 0.0196
46.2600 30.8094 0.0061
46.2800 30.8227 0.0247
46.3000 30.8361 0.0157
46.3200 30.8494 0.0064
46.3400 30.8628 0.0243
46.3600 30.8761 0.0109
46.3800 30.8894 0.0115
46.4000 30.9027 0.0257
46.4200 30.9161 0.0070
46.4400 30.9294 0.0032
46.4600 30.9427 0.0265
46.4800 30.9560 0.0028
46.5000 30.9693 0.0054
46.5200 30.9827 0.0248
46.5400 30.9960 0.0011
46.5600 31.0093 0.0063
46.5800 31.0227 0.0242
46.6000 31.0361 -0.0041
46.6200 31.0494 0.0074
46.6400 31.0627 0.0206
46.6600 31.0760 -0.0017
46.6800 31.0894 0.0056
46.7000 31.1027 0.0214
46.7200 31.1160 -0.0043
46.7400 31.1294 0.0074
46.7600 31.1427 0.0162
46.7800 31.1560 -0.0052
46.8000 31.1694 0.0083
46.8200 31.1827 0.0126
46.8400 31.1960 -0.0033
46.8600 31.2093 0.0087
46.8800 31.2227 0.0083
46.9000 31.2360 0.0004
46.9200 31.2493 0.0053
46.9400 31.2627 0.0057
46.9600 31.2761 0.0003
46.9800 31.2894 -0.0015
47.0000 31.3027 0.0089
47.0200 31.3160 0.0010
47.0400 31.3294 -0.0003
47.0600 31.3428 0.0064
47.0800 31.3561 0.0054
47.1000 31.3694 -0.0060
47.1200 31.3827 0.0111
47.1400 31.3960 0.0030
47.1600 31.4093 -0.0084
47.1800 31.4226 0.0104
47.2000 31.4359 -0.0007
47.2200 31.4493 -0.0054
47.2400 31.4627 0.0067
47.2600 31.4760 -0.0028
47.2800 31.4893 -0.0045
47.3000 31.5027 0.0026
47.3200 31.5161 -0.0016
47.3400 31.5294 -0.0094
47.3600 31.5427 0.0042
47.3800 31.5560 -0.0060
47.4000 31.5694 -0.0099
47.4200 31.5827 0.0010
47.4400 31.5960 -0.0125
47.4600 31.6094 -0.0098
47.4800 31.6227 0.0008
47.5000 31.6360 -0.0091
47.5200 31.6494 -0.0116
47.5400 31.6627 -0.0013
47.5600 31.6760 -0.0142
47.5800 31.6893 -0.0148
47.6000 31.7027 -0.0032
47.6200 31.7160 -0.0150
47.6400 31.7293 -0.0140
47.6600 31.7427 -0.0031
47.6800 31.7561 -0.0212
47.7000 31.7694 -0.0099
47.7200 31.7827 -0.0070
47.7400 31.7961 -0.0199
47.7600 31.8094 -0.0156
47.7800 31.8228 -0.0117
47.8000 31.8361 -0.0215
47.8200 31.8493 -0.0145
47.8400 31.8627 -0.0122
47.8600 31.8760 -0.0211
47.8800 31.8893 -0.0168
47.9000 31.9027 -0.0141
47.9200 31.9160 -0.0247
47.9400 31.9293 -0.0191
47.9600 31.9427 -0.0193
47.9800 31.9560 -0.0235
48.0000 31.9693 -0.0229
48.0200 31.9827 -0.0168
48.0400 31.9960 -0.0238
48.0600 32.0094 -0.0308
48.0800 32.0227 -0.0237
48.1000 32.0360 -0.0288
48.1200 32.0494 -0.0274
48.1400 32.0627 -0.0254
48.1600 32.0760 -0.0286
48.1800 32.0894 -0.0328
48.2000 32.1027 -0.0254
48.2200 32.1161 -0.0309
48.2400 32.1294 -0.0337
48.2600 32.1427 -0.0258
48.2800 32.1560 -0.0328
48.3000 32.1693 -0.0392
48.3200 32.1826 -0.0238
48.3400 32.1960 -0.0352
48.3600 32.2093 -0.0337
48.3800 32.2227 -0.0271
48.4000 32.2361 -0.0389
48.4200 32.2494 -0.0376
48.4400 32.2627 -0.0291
48.4600 32.2761 -0.0359
48.4800 32.2894 -0.0368
48.5000 32.3028 -0.0282
48.5200 32.3161 -0.0409
48.5400 32.3294 -0.0388
48.5600 32.3427 -0.0248
48.5800 32.3560 -0.0461
48.6000 32.3693 -0.0403
48.6200 32.3826 -0.0347
48.6400 32.3959 -0.0465
48.6600 32.4093 -0.0355
48.6800 32.4227 -0.0410
48.7000 32.4360 -0.0465
48.7200 32.4493 -0.0437
48.7400 32.4627 -0.0418
48.7600 32.4761 -0.0509
48.7800 32.4894 -0.0429
48.8000 32.5028 -0.0494
48.8200 32.5161 -0.0556
48.8400 32.5294 -0.0499
48.8600 32.5428 -0.0477
48.8800 32.5561 -0.0517
48.9000 32.5694 -0.0514
48.9200 32.5827 -0.0542
48.9400 32.5960 -0.0489
48.9600 32.6094 -0.0578
48.9800 32.6227 -0.0560
49.0000 32.6360 -0.0535
49.0200 32.6493 -0.0526
49.0400 32.6627 -0.0617
49.0600 32.6760 -0.0612
49.0800 32.6893 -0.0531
49.1000 32.7027 -0.0552
49.1200 32.7161 -0.0602
49.1400 32.7294 -0.0603
49.1600 32.7427 -0.0570
49.1800 32.7561 -0.0584
49.2000 32.7694 -0.0593
49.2200 32.7827 -0.0597
49.2400 32.7961 -0.0602
49.2600 32.8094 -0.0608
49.2800 32.8227 -0.0637
49.3000 32.8361 -0.0613
49.3200 32.8494 -0.0606
49.3400 32.8627 -0.0660
49.3600 32.8760 -0.0674
49.3800 32.8893 -0.0601
49.4000 32.9027 -0.0679
49.4200 32.9160 -0.0708
49.4400 32.9293 -0.0588
49.4600 32.9427 -0.0713
49.4800 32.9561 -0.0701
49.5000 32.9694 -0.0625
49.5200 32.9827 -0.0726
49.5400 32.9961 -0.0739
49.5600 33.0094 -0.0610
49.5800 33.0227 -0.0771
49.6000 33.0360 -0.0764
49.6200 33.0493 -0.0595
49.6400 33.0626 -0.0761
49.6600 33.0760 -0.0784
49.6800 33.0894 -0.0615
49.7000 33.1027 -0.0810
49.7200 33.1160 -0.0744
49.7400 33.1293 -0.0609
49.7600 33.1427 -0.0874
49.7800 33.1560 -0.0781
49.8000 33.1693 -0.0668
49.8200 33.1827 -0.0851
49.8400 33.1960 -0.0781
49.8600 33.2094 -0.0684
49.8800 33.2228 -0.0916
49.9000 33.2361 -0.0814
49.9200 33.2494 -0.0707
49.9400 33.2628 -0.0894
49.9600 33.2761 -0.0816
49.9800 33.2894 -0.0748
50.0000 33.3027 -0.0900
50.0200 33.3160 -0.0815
50.0400 33.3294 -0.0750
50.0600 33.3427 -0.0872
50.0800 33.3560 -0.0834
50.1000 33.3693 -0.0826
50.1200 33.3827 -0.0955
50.1400 33.3960 -0.0804
50.1600 33.4093 -0.0805
50.1800 33.4227 -0.0897
50.2000 33.4360 -0.0847
50.2200 33.4494 -0.0859
50.2400 33.4627 -0.0974
50.2600 33.4760 -0.0875
50.2800 33.4894 -0.0836
50.3000 33.5028 -0.0983
50.3200 33.5161 -0.0931
50.3400 33.5294 -0.0854
50.3600 33.5427 -0.1010
50.3800 33.5561 -0.0919
50.4000 33.5694 -0.0890
50.4200 33.5827 -0.1070
50.4400 33.5960 -0.0944
50.4600 33.6093 -0.0907
50.4800 33.6226 -0.1029
50.5000 33.6360 -0.0981
50.5200 33.6493 -0.0945
50.5400 33.6626 -0.1072
50.5600 33.6760 -0.0958
50.5800 33.6894 -0.0960
50.6000 33.7028 -0.1090
50.6200 33.7161 -0.1025
50.6400 33.7294 -0.0950
50.6600 33.7428 -0.1115
50.6800 33.7561 -0.0982
50.7000 33.7694 -0.0960
50.7200 33.7826 -0.1132
50.7400 33.7960 -0.1045
50.7600 33.8093 -0.1002
50.7800 33.8227 -0.1113
50.8000 33.8360 -0.0993
50.8200 33.8493 -0.1042
50.8400 33.8627 -0.1140
50.8600 33.8760 -0.1018
50.8800 33.8894 -0.1032
50.9000 33.9027 -0.1113
50.9200 33.9161 -0.1027
50.9400 33.9294 -0.1042
50.9600 33.9427 -0.1122
50.9800 33.9560 -0.1053
51.0000 33.9694 -0.1049
51.0200 33.9827 -0.1122
51.0400 33.9960 -0.1109
51.0600 34.0093 -0.1052
51.0800 34.0227 -0.1110
51.1000 34.0360 -0.1086
51.1200 34.0493 -0.1089
51.1400 34.0627 -0.1097
51.1600 34.0760 -0.1137
51.1800 34.0893 -0.1045
51.2000 34.1027 -0.1101
51.2200 34.1160 -0.1165
51.2400 34.1294 -0.1067
51.2600 34.1427 -0.1108
51.2800 34.1561 -0.1174
51.3000 34.1694 -0.1074
51.3200 34.1827 -0.1125
51.3400 34.1960 -0.1162
51.3600 34.2094 -0.1122
51.3800 34.2228 -0.1130
51.4000 34.2361 -0.1200
51.4200 34.2494 -0.1141
51.4400 34.2627 -0.1189
51.4600 34.2760 -0.1224
51.4800 34.2894 -0.1125
51.5000 34.3027 -0.1243
51.5200 34.3160 -0.1214
51.5400 34.3293 -0.1131
51.5600 34.3426 -0.1310
51.5800 34.3560 -0.1284
51.6000 34.3693 -0.1133
51.6200 34.3827 -0.1377
51.6400 34.3960 -0.1244
51.6600 34.4094 -0.1201
51.6800 34.4228 -0.1390
51.7000 34.4361 -0.1242
51.7200 34.4494 -0.1233
51.7400 34.4628 -0.1413
51.7600 34.4761 -0.1211
51.7800 34.4894 -0.1250
51.8000 34.5027 -0.1439
51.8200 34.5160 -0.1247
51.8400 34.5294 -0.1262
51.8600 34.5427 -0.1453
51.8800 34.5560 -0.1247
51.9000 34.5693 -0.1346
51.9200 34.5826 -0.1426
51.9400 34.5960 -0.1255
51.9600 34.6093 -0.1392
51.9800 34.6227 -0.1435
52.0000 34.6360 -0.1274
52.0200 34.6494 -0.1440
52.0400 34.6627 -0.1456
52.0600 34.6760 -0.1292
52.0800 34.6894 -0.1436
52.1000 34.7028 -0.1443
52.1200 34.7161 -0.1381
52.1400 34.7294 -0.1430
52.1600 34.7427 -0.1400
52.1800 34.7560 -0.1412
52.2000 34.7694 -0.1450
52.2200 34.7827 -0.1390
52.2400 34.7960 -0.1452
52.2600 34.8093 -0.1438
52.2800 34.8226 -0.1378
52.3000 34.8360 -0.1414
52.3200 34.8493 -0.1486
52.3400 34.8627 -0.1389
52.3600 34.8761 -0.1468
52.3800 34.8894 -0.1419
52.4000 34.9028 -0.1422
52.4200 34.9161 -0.1486
52.4400 34.9294 -0.1434
52.4600 34.9427 -0.1390
52.4800 34.9561 -0.1490
52.5000 34.9694 -0.1435
52.5200 34.9827 -0.1416
52.5400 34.9960 -0.1491
52.5600 35.0094 -0.1426
52.5800 35.0227 -0.1457
52.6000 35.0360 -0.1495
52.6200 35.0493 -0.1417
52.6400 35.0626 -0.1445
52.6600 35.0760 -0.1553
52.6800 35.0893 -0.1451
52.7000 35.1027 -0.1489
52.7200 35.1160 -0.1539
52.7400 35.1294 -0.1492
52.7600 35.1427 -0.1527
52.7800 35.1561 -0.1503
52.8000 35.1694 -0.1474
52.8200 35.1828 -0.1530
52.8400 35.1961 -0.1509
52.8600 35.2094 -0.1540
52.8800 35.2226 -0.1500
52.9000 35.2360 -0.1595
52.9200 35.2493 -0.1537
52.9400 35.2627 -0.1537
52.9600 35.2760 -0.1531
52.9800 35.2893 -0.1582
53.0000 35.3027 -0.1571
53.0200 35.3161 -0.1534
53.0400 35.3294 -0.1631
53.0600 35.3427 -0.1608
53.0800 35.3561 -0.1588
53.1000 35.3694 -0.1633
53.1200 35.3828 -0.1637
53.1400 35.3961 -0.1641
53.1600 35.4094 -0.1625
53.1800 35.4227 -0.1607
53.2000 35.4361 -0.1634
53.2200 35.4494 -0.1671
53.2400 35.4627 -0.1667
53.2600 35.4760 -0.1607
53.2800 35.4894 -0.1694
53.3000 35.5027 -0.1637
53.3200 35.5160 -0.1678
53.3400 35.5293 -0.1693
53.3600 35.5426 -0.1689
53.3800 35.5560 -0.1653
53.4000 35.5693 -0.1708
53.4200 35.5827 -0.1697
53.4400 35.5960 -0.1680
53.4600 35.6094 -0.1746
53.4800 35.6227 -0.1760
53.5000 35.6361 -0.1683
53.5200 35.6494 -0.1738
53.5400 35.6627 -0.1703
53.5600 35.6761 -0.1738
53.5800 35.6894 -0.1822
53.6000 35.7027 -0.1755
53.6200 35.7160 -0.1717
53.6400 35.7294 -0.1826
53.6600 35.7427 -0.1776
53.6800 35.7560 -0.1755
53.7000 35.7693 -0.1876
53.7200 35.7826 -0.1775
53.7400 35.7960 -0.1703
53.7600 35.8093 -0.1900
53.7800 35.8227 -0.1827
53.8000 35.8360 -0.1776
53.8200 35.8494 -0.1957
53.8400 35.8627 -0.1819
53.8600 35.8761 -0.1823
53.8800 35.8894 -0.1993
53.9000 35.9027 -0.1829
53.9200 35.9161 -0.1835
53.9400 35.9294 -0.2026
53.9600 35.9427 -0.1778
53.9800 35.9560 -0.1888
54.0000 35.9693 -0.2022
54.0200 35.9827 -0.1834
54.0400 35.9960 -0.1920
54.0600 36.0093 -0.2027
54.0800 36.0227 -0.1816
54.1000 36.0360 -0.1968
54.1200 36.0494 -0.2073
54.1400 36.0627 -0.1862
54.1600 36.0760 -0.1985
54.1800 36.0894 -0.2034
54.2000 36.1027 -0.1902
54.2200 36.1161 -0.2045
54.2400 36.1294 -0.2085
54.2600 36.1427 -0.1911
54.2800 36.1561 -0.2063
54.3000 36.1694 -0.2065
54.3200 36.1827 -0.1920
54.3400 36.1960 -0.2078
54.3600 36.2094 -0.2080
54.3800 36.2227 -0.1957
54.4000 36.2360 -0.2087
54.4200 36.2493 -0.2065
54.4400 36.2626 -0.2047
54.4600 36.2760 -0.2104
54.4800 36.2893 -0.2089
54.5000 36.3027 -0.2018
54.5200 36.3160 -0.2157
54.5400 36.3294 -0.2105
54.5600 36.3428 -0.2097
54.5800 36.3561 -0.2166
54.6000 36.3694 -0.2135
54.6200 36.3827 -0.2084
54.6400 36.3961 -0.2208
54.6600 36.4094 -0.2146
54.6800 36.4227 -0.2144
54.7000 36.4360 -0.2195
54.7200 36.4494 -0.2116
54.7400 36.4627 -0.2190
54.7600 36.4760 -0.2254
54.7800 36.4893 -0.2141
54.8000 36.5026 -0.2183
54.8200 36.5160 -0.2210
54.8400 36.5293 -0.2216
54.8600 36.5427 -0.2244
54.8800 36.5560 -0.2198
54.9000 36.5694 -0.2228
54.9200 36.5827 -0.2239
54.9400 36.5961 -0.2211
54.9600 36.6094 -0.2259
54.9800 36.6227 -0.2293
55.0000 36.6361 -0.2184
55.0200 36.6494 -0.2305
55.0400 36.6627 -0.2164
55.0600 36.6760 -0.2217
55.0800 36.6893 -0.2313
55.1000 36.7027 -0.2226
55.1200 36.7160 -0.2218
55.1400 36.7293 -0.2328
55.1600 36.7426 -0.2197
55.1800 36.7560 -0.2245
55.2000 36.7693 -0.2372
55.2200 36.7827 -0.2248
55.2400 36.7960 -0.2249
55.2600 36.8094 -0.2376
55.2800 36.8227 -0.2223
55.3000 36.8360 -0.2337
55.3200 36.8493 -0.2343
55.3400 36.8627 -0.2268
55.3600 36.8761 -0.2358
55.3800 36.8894 -0.2357
55.4000 36.9027 -0.2316
55.4200 36.9160 -0.2370
55.4400 36.9294 -0.2382
55.4600 36.9427 -0.2313
55.4800 36.9561 -0.2415
55.5000 36.9693 -0.2382
55.5200 36.9826 -0.2463
55.5400 36.9960 -0.2558
55.5600 37.0093 -0.1047
55.5800 37.0226 -0.0643
55.6000 37.0360 -0.0677
55.6200 37.0494 -0.0825
55.6400 37.0628 -0.0818
55.6600 37.0761 -0.0811
55.6800 37.0894 -0.0889
55.7000 37.1028 -0.0802
55.7200 37.1161 -0.0780
55.7400 37.1294 -0.0889
55.7600 37.1427 -0.0859
55.7800 37.1560 -0.0764
55.8000 37.1693 -0.0880
55.8200 37.1827 -0.0795
55.8400 37.1960 -0.0799
55.8600 37.2093 -0.0891
55.8800 37.2226 -0.0782
55.9000 37.2360 -0.0813
55.9200 37.2493 -0.0912
55.9400 37.2627 -0.0808
55.9600 37.2760 -0.0792
55.9800 37.2894 -0.0923
56.0000 37.3028 -0.0831
56.0200 37.3161 -0.0820
56.0400 37.3294 -0.0879
56.0600 37.3427 -0.0796
56.0800 37.3561 -0.0861
56.1000 37.3694 -0.0906
56.1200 37.3827 -0.0754
56.1400 37.3960 -0.0889
56.1600 37.4094 -0.0881
56.1800 37.4227 -0.0775
56.2000 37.4360 -0.0915
56.2200 37.4493 -0.0911
56.2400 37.4626 -0.0739
56.2600 37.4760 -0.0949
56.2800 37.4893 -0.0864
56.3000 37.5027 -0.0839
56.3200 37.5160 -0.0944
56.3400 37.5294 -0.0887
56.3600 37.5427 -0.0844
56.3800 37.5561 -0.0923
56.4000 37.5694 -0.0896
56.4200 37.5827 -0.0863
56.4400 37.5961 -0.0918
56.4600 37.6094 -0.0885
56.4800 37.6227 -0.0917
56.5000 37.6360 -0.0881
56.5200 37.6494 -0.0888
56.5400 37.6627 -0.0952
56.5600 37.6760 -0.0885
56.5800 37.6893 -0.0922
56.6000 37.7026 -0.0939
56.6200 37.7160 -0.0888
56.6400 37.7293 -0.0974
56.6600 37.7427 -0.0971
56.6800 37.7560 -0.0932
56.7000 37.7694 -0.0953
56.7200 37.7828 -0.0994
56.7400 37.7961 -0.0871
56.7600 37.8094 -0.1048
56.7800 37.8227 -0.0914
56.8000 37.8361 -0.0947
56.8200 37.8494 -0.1042
56.8400 37.8627 -0.0943
56.8600 37.8760 -0.0970
56.8800 37.8893 -0.1043
56.9000 37.9027 -0.0882
56.9200 37.9160 -0.0997
56.9400 37.9293 -0.1072
56.9600 37.9426 -0.0931
56.9800 37.9560 -0.0998
57.0000 37.9693 -0.1056
57.0200 37.9827 -0.0910
57.0400 37.9960 -0.1063
57.0600 38.0094 -0.1086
57.0800 38.0228 -0.0927
57.1000 38.0361 -0.1102
57.1200 38.0494 -0.1060
57.1400 38.0627 -0.0967
57.1600 38.0761 -0.1092
57.1800 38.0895 -0.1098
57.2000 38.1028 -0.0943
57.2200 38.1160 -0.1079
57.2400 38.1293 -0.1041
57.2600 38.1427 -0.1003
57.2800 38.1560 -0.1108
57.3000 38.1693 -0.1061
57.3200 38.1826 -0.1020
57.3400 38.1960 -0.1058
57.3600 38.2093 -0.1071
57.3800 38.2227 -0.1088
57.4000 38.2360 -0.1041
57.4200 38.2493 -0.1112
57.4400 38.2627 -0.1034
57.4600 38.2761 -0.1108
57.4800 38.2894 -0.1131
57.5000 38.3027 -0.1078
57.5200 38.3161 -0.1063
57.5400 38.3294 -0.1133
57.5600 38.3427 -0.1108
57.5800 38.3560 -0.1100
57.6000 38.3694 -0.1160
57.6200 38.3827 -0.1085
57.6400 38.3960 -0.1106
57.6600 38.4093 -0.1173
57.6800 38.4226 -0.1104
57.7000 38.4359 -0.1134
57.7200 38.4493 -0.1227
57.7400 38.4626 -0.1112
57.7600 38.4760 -0.1190
57.7800 38.4893 -0.1198
57.8000 38.5027 -0.1154
57.8200 38.5161 -0.1169
57.8400 38.5294 -0.1230
57.8600 38.5428 -0.1146
57.8800 38.5561 -0.1188
57.9000 38.5694 -0.1204
57.9200 38.5827 -0.1183
57.9400 38.5960 -0.1231
57.9600 38.6093 -0.1216
57.9800 38.6227 -0.1137
58.0000 38.6360 -0.1259
58.0200 38.6493 -0.1211
58.0400 38.6626 -0.1184
58.0600 38.6760 -0.1270
58.0800 38.6894 -0.1248
58.1000 38.7027 -0.1191
58.1200 38.7160 -0.1300
58.1400 38.7294 -0.1255
58.1600 38.7428 -0.1195
58.1800 38.7561 -0.1272
58.2000 38.7694 -0.1221
58.2200 38.7827 -0.1227
58.2400 38.7960 -0.1297
58.2600 38.8094 -0.1266
58.2800 38.8227 -0.1251
58.3000 38.8360 -0.1297
58.3200 38.8493 -0.1235
58.3400 38.8627 -0.1273
58.3600 38.8760 -0.1300
58.3800 38.8893 -0.1275
58.4000 38.9026 -0.1304
58.4200 38.9160 -0.1308
58.4400 38.9294 -0.1258
58.4600 38.9427 -0.1365
58.4800 38.9560 -0.1336
58.5000 38.9694 -0.1282
58.5200 38.9828 -0.1377
58.5400 38.9961 -0.1338
58.5600 39.0094 -0.1291
58.5800 39.0227 -0.1413
58.6000 39.0361 -0.1342
58.6200 39.0494 -0.1319
58.6400 39.0628 -0.1447
58.6600 39.0760 -0.1346
58.6800 39.0893 -0.1297
58.7000 39.1027 -0.1509
58.7200 39.1160 -0.1322
58.7400 39.1293 -0.1311
58.7600 39.1426 -0.1477
58.7800 39.1560 -0.1336
58.8000 39.1693 -0.1395
58.8200 39.1827 -0.1445
58.8400 39.1960 -0.1400
58.8600 39.2093 -0.1422
58.8800 39.2227 -0.1467
58.9000 39.2361 -0.1395
58.9200 39.2494 -0.1465
58.9400 39.2627 -0.1484
58.9600 39.2761 -0.1379
58.9800 39.2894 -0.1484
59.0000 39.3027 -0.1474
59.0200 39.3160 -0.1437
59.0400 39.3293 -0.1533
59.0600 39.3427 -0.1414
59.0800 39.3560 -0.1483
59.1000 39.3693 -0.1495
59.1200 39.3826 -0.1473
59.1400 39.3960 -0.1472
59.1600 39.4093 -0.1507
59.1800 39.4227 -0.1508
59.2000 39.4360 -0.1455
59.2200 39.4493 -0.1490
59.2400 39.4627 -0.1532
59.2600 39.4760 -0.1461
59.2800 39.4894 -0.1543
59.3000 39.5027 -0.1529
59.3200 39.5161 -0.1526
59.3400 39.5294 -0.1528
59.3600 39.5428 -0.1537
59.3800 39.5560 -0.1558
59.4000 39.5694 -0.1538
59.4200 39.5827 -0.1524
59.4400 39.5960 -0.1562
59.4600 39.6093 -0.1645
59.4800 39.6226 -0.1477
59.5000 39.6360 -0.1582
59.5200 39.6493 -0.1568
59.5400 39.6627 -0.1562
59.5600 39.6760 -0.1606
59.5800 39.6894 -0.1602
59.6000 39.7027 -0.1579
59.6200 39.7161 -0.1651
59.6400 39.7294 -0.1637
59.6600 39.7427 -0.1557
59.6800 39.7561 -0.1645
59.7000 39.7694 -0.1672
59.7200 39.7828 -0.1530
59.7400 39.7961 -0.1706
59.7600 39.8093 -0.1640
59.7800 39.8227 -0.1570
59.8000 39.8360 -0.1741
59.8200 39.8494 -0.1642
59.8400 39.8627 -0.1585
59.8600 39.8760 -0.1743
59.8800 39.8893 -0.1685
59.9000 39.9026 -0.1610
59.9200 39.9160 -0.1775
59.9400 39.9293 -0.1674
59.9600 39.9427 -0.1607
59.9800 39.9561 -0.1818
60.0000 39.9694 -0.1655
60.0200 39.9827 -0.1649
60.0400 39.9960 -0.1865
60.0470 40.0006 -0.1976
