Raw Data
Time Displacement Force
(s) (mm) (N)
0.0000 0.0000 0.0091
0.0200 0.0001 -0.0039
0.0400 0.0009 0.0314
0.0600 0.0044 0.0482
0.0800 0.0100 -0.0111
0.1000 0.0158 -0.0056
0.1200 0.0218 0.0366
0.1400 0.0286 -0.0038
0.1600 0.0359 0.0010
0.1800 0.0433 0.0156
0.2000 0.0504 -0.0088
0.2200 0.0573 0.0017
0.2400 0.0640 0.0170
0.2600 0.0706 -0.0010
0.2800 0.0773 0.0128
0.3000 0.0840 0.0165
0.3200 0.0906 -0.0010
0.3400 0.0973 0.0172
0.3600 0.1040 0.0159
0.3800 0.1107 0.0053
0.4000 0.1174 0.0182
0.4200 0.1241 0.0165
0.4400 0.1308 0.0084
0.4600 0.1375 0.0187
0.4800 0.1441 0.0152
0.5000 0.1507 0.0143
0.5200 0.1573 0.0187
0.5400 0.1640 0.0164
0.5600 0.1708 0.0204
0.5800 0.1775 0.0226
0.6000 0.1841 0.0188
0.6200 0.1908 0.0235
0.6400 0.1975 0.0243
0.6600 0.2041 0.0181
0.6800 0.2107 0.0271
0.7000 0.2173 0.0278
0.7200 0.2240 0.0228
0.7400 0.2307 0.0320
0.7600 0.2374 0.0272
0.7800 0.2441 0.0248
0.8000 0.2508 0.0332
0.8200 0.2574 0.0287
0.8400 0.2641 0.0286
0.8600 0.2707 0.0329
0.8800 0.2773 0.0307
0.9000 0.2840 0.0334
0.9200 0.2907 0.0371
0.9400 0.2974 0.0306
0.9600 0.3041 0.0369
0.9800 0.3107 0.0362
1.0000 0.3174 0.0323
1.0200 0.3240 0.0377
1.0400 0.3306 0.0397
1.0600 0.3373 0.0295
1.0800 0.3440 0.0411
1.1000 0.3507 0.0390
1.1200 0.3574 0.0310
1.1400 0.3641 0.0398
1.1600 0.3708 0.0370
1.1800 0.3775 0.0365
1.2000 0.3841 0.0345
1.2200 0.3907 0.0348
1.2400 0.3974 0.0362
1.2600 0.4041 0.0397
1.2800 0.4108 0.0304
1.3000 0.4174 0.0387
1.3200 0.4241 0.0431
1.3400 0.4308 0.0299
1.3600 0.4375 0.0352
1.3800 0.4441 0.0415
1.4000 0.4507 0.0322
1.4200 0.4573 0.0433
1.4400 0.4640 0.0366
1.4600 0.4707 0.0385
1.4800 0.4774 0.0387
1.5000 0.4841 0.0322
1.5200 0.4908 0.0337
1.5400 0.4974 0.0399
1.5600 0.5041 0.0293
1.5800 0.5107 0.0323
1.6000 0.5173 0.0433
1.6200 0.5240 0.0292
1.6400 0.5307 0.0398
1.6600 0.5374 0.0372
1.6800 0.5441 0.0299
1.7000 0.5508 0.0426
1.7200 0.5574 0.0335
1.7400 0.5641 0.0289
1.7600 0.5707 0.0429
1.7800 0.5774 0.0316
1.8000 0.5840 0.0306
1.8200 0.5907 0.0404
1.8400 0.5974 0.0274
1.8600 0.6041 0.0349
1.8800 0.6108 0.0422
1.9000 0.6175 0.0228
1.9200 0.6241 0.0366
1.9400 0.6307 0.0370
1.9600 0.6373 0.0259
1.9800 0.6440 0.0478
2.0000 0.6507 0.0324
2.0200 0.6574 0.0223
2.0400 0.6641 0.0438
2.0600 0.6708 0.0249
2.0800 0.6775 0.0277
2.1000 0.6841 0.0458
2.1200 0.6907 0.0218
2.1400 0.6973 0.0347
2.1600 0.7040 0.0360
2.1800 0.7107 0.0233
2.2000 0.7174 0.0362
2.2200 0.7241 0.0375
2.2400 0.7308 0.0155
2.2600 0.7375 0.0428
2.2800 0.7441 0.0378
2.3000 0.7507 0.0157
2.3200 0.7573 0.0495
2.3400 0.7640 0.0342
2.3600 0.7707 0.0156
2.3800 0.7774 0.0503
2.4000 0.7841 0.0273
2.4200 0.7908 0.0217
2.4400 0.7975 0.0514
2.4600 0.8041 0.0207
2.4800 0.8107 0.0294
2.5000 0.8173 0.0514
2.5200 0.8240 0.0180
2.5400 0.8307 0.0372
2.5600 0.8375 0.0461
2.5800 0.8441 0.0135
2.6000 0.8508 0.0435
2.6200 0.8575 0.0400
2.6400 0.8641 0.0150
2.6600 0.8707 0.0476
2.6800 0.8774 0.0385
2.7000 0.8840 0.0164
2.7200 0.8907 0.0488
2.7400 0.8974 0.0324
2.7600 0.9041 0.0195
2.7800 0.9108 0.0488
2.8000 0.9175 0.0282
2.8200 0.9241 0.0256
2.8400 0.9307 0.0458
2.8600 0.9373 0.0231
2.8800 0.9440 0.0316
2.9000 0.9507 0.0479
2.9200 0.9574 0.0274
2.9400 0.9641 0.0320
2.9600 0.9708 0.0413
2.9800 0.9775 0.0271
3.0000 0.9841 0.0322
3.0200 0.9907 0.0428
3.0400 0.9973 0.0283
3.0600 1.0040 0.0352
3.0800 1.0107 0.0341
3.1000 1.0174 0.0307
3.1200 1.0241 0.0339
3.1400 1.0307 0.0359
3.1600 1.0374 0.0321
3.1800 1.0441 0.0361
3.2000 1.0507 0.0318
3.2200 1.0573 0.0361
3.2400 1.0640 0.0359
3.2600 1.0707 0.0287
3.2800 1.0774 0.0351
3.3000 1.0841 0.0356
3.3200 1.0908 0.0352
3.3400 1.0975 0.0372
3.3600 1.1042 0.0295
3.3800 1.1108 0.0275
3.4000 1.1174 0.0418
3.4200 1.1240 0.0309
3.4400 1.1307 0.0279
3.4600 1.1374 0.0407
3.4800 1.1441 0.0319
3.5000 1.1508 0.0298
3.5200 1.1575 0.0420
3.5400 1.1641 0.0243
3.5600 1.1707 0.0339
3.5800 1.1773 0.0428
3.6000 1.1840 0.0247
3.6200 1.1907 0.0370
3.6400 1.1974 0.0410
3.6600 1.2041 0.0248
3.6800 1.2108 0.0374
3.7000 1.2174 0.0435
3.7200 1.2241 0.0241
3.7400 1.2307 0.0340
3.7600 1.2373 0.0419
3.7800 1.2440 0.0298
3.8000 1.2507 0.0345
3.8200 1.2574 0.0374
3.8400 1.2641 0.0310
3.8600 1.2707 0.0404
3.8800 1.2774 0.0358
3.9000 1.2841 0.0290
3.9200 1.2908 0.0379
3.9400 1.2974 0.0404
3.9600 1.3040 0.0295
3.9800 1.3107 0.0407
4.0000 1.3174 0.0395
4.0200 1.3241 0.0287
4.0400 1.3308 0.0381
4.0600 1.3375 0.0423
4.0800 1.3441 0.0318
4.1000 1.3507 0.0413
4.1200 1.3573 0.0406
4.1400 1.3640 0.0295
4.1600 1.3707 0.0441
4.1800 1.3774 0.0381
4.2000 1.3841 0.0303
4.2200 1.3908 0.0420
4.2400 1.3975 0.0411
4.2600 1.4042 0.0313
4.2800 1.4108 0.0448
4.3000 1.4174 0.0363
4.3200 1.4240 0.0387
4.3400 1.4307 0.0426
4.3600 1.4374 0.0346
4.3800 1.4441 0.0395
4.4000 1.4508 0.0438
4.4200 1.4574 0.0341
4.4400 1.4641 0.0381
4.4600 1.4707 0.0400
4.4800 1.4773 0.0427
4.5000 1.4840 0.0401
4.5200 1.4907 0.0369
4.5400 1.4974 0.0423
4.5600 1.5041 0.0421
4.5800 1.5108 0.0349
4.6000 1.5175 0.0438
4.6200 1.5241 0.0450
4.6400 1.5307 0.0359
4.6600 1.5373 0.0497
4.6800 1.5440 0.0391
4.7000 1.5507 0.0404
4.7200 1.5574 0.0452
4.7400 1.5642 0.0359
4.7600 1.5708 0.0392
4.7800 1.5775 0.0473
4.8000 1.5841 0.0330
4.8200 1.5908 0.0451
4.8400 1.5974 0.0446
4.8600 1.6040 0.0282
4.8800 1.6107 0.0468
4.9000 1.6174 0.0462
4.9200 1.6241 0.0336
4.9400 1.6308 0.0480
4.9600 1.6375 0.0396
4.9800 1.6442 0.0325
5.0000 1.6508 0.0469
5.0200 1.6574 0.0381
5.0400 1.6640 0.0368
5.0600 1.6707 0.0471
5.0800 1.6774 0.0376
5.1000 1.6841 0.0334
5.1200 1.6908 0.0475
5.1400 1.6975 0.0377
5.1600 1.7041 0.0359
5.1800 1.7108 0.0472
5.2000 1.7173 0.0368
5.2200 1.7239 0.0393
5.2400 1.7306 0.0483
5.2600 1.7374 0.0382
5.2800 1.7441 0.0412
5.3000 1.7508 0.0421
5.3200 1.7574 0.0384
5.3400 1.7641 0.0408
5.3600 1.7708 0.0405
5.3800 1.7774 0.0390
5.4000 1.7840 0.0443
5.4200 1.7907 0.0384
5.4400 1.7974 0.0382
5.4600 1.8041 0.0446
5.4800 1.8108 0.0366
5.5000 1.8175 0.0428
5.5200 1.8242 0.0413
5.5400 1.8308 0.0326
5.5600 1.8374 0.0446
5.5800 1.8440 0.0477
5.6000 1.8507 0.0316
5.6200 1.8574 0.0436
5.6400 1.8641 0.0430
5.6600 1.8708 0.0305
5.6800 1.8775 0.0446
5.7000 1.8841 0.0428
5.7200 1.8908 0.0320
5.7400 1.8974 0.0453
5.7600 1.9040 0.0378
5.7800 1.9107 0.0350
5.8000 1.9174 0.0458
5.8200 1.9241 0.0369
5.8400 1.9307 0.0375
5.8600 1.9374 0.0399
5.8800 1.9441 0.0330
5.9000 1.9507 0.0387
5.9200 1.9574 0.0431
5.9400 1.9640 0.0338
5.9600 1.9707 0.0431
5.9800 1.9774 0.0378
6.0000 1.9841 0.0336
6.0200 1.9907 0.0441
6.0400 1.9974 0.0326
6.0600 2.0041 0.0359
6.0800 2.0108 0.0426
6.1000 2.0174 0.0350
6.1200 2.0240 0.0436
6.1400 2.0307 0.0402
6.1600 2.0374 0.0307
6.1800 2.0441 0.0417
6.2000 2.0508 0.0402
6.2200 2.0575 0.0305
6.2400 2.0641 0.0413
6.2600 2.0708 0.0388
6.2800 2.0774 0.0260
6.3000 2.0840 0.0477
6.3200 2.0907 0.0358
6.3400 2.0974 0.0307
6.3600 2.1041 0.0473
6.3800 2.1108 0.0325
6.4000 2.1175 0.0346
6.4200 2.1242 0.0497
6.4400 2.1308 0.0287
6.4600 2.1374 0.0352
6.4800 2.1440 0.0472
6.5000 2.1507 0.0296
6.5200 2.1574 0.0329
6.5400 2.1641 0.0500
6.5600 2.1708 0.0264
6.5800 2.1774 0.0341
6.6000 2.1841 0.0467
6.6200 2.1908 0.0290
6.6400 2.1974 0.0360
6.6600 2.2040 0.0435
6.6800 2.2106 0.0351
6.7000 2.2173 0.0361
6.7200 2.2241 0.0436
6.7400 2.2308 0.0309
6.7600 2.2374 0.0389
6.7800 2.2441 0.0442
6.8000 2.2507 0.0294
6.8200 2.2574 0.0406
6.8400 2.2640 0.0424
6.8600 2.2707 0.0284
6.8800 2.2774 0.0393
6.9000 2.2841 0.0394
6.9200 2.2908 0.0362
6.9400 2.2975 0.0371
6.9600 2.3041 0.0381
6.9800 2.3108 0.0340
7.0000 2.3174 0.0406
7.0200 2.3240 0.0359
7.0400 2.3307 0.0371
7.0600 2.3374 0.0376
7.0800 2.3441 0.0365
7.1000 2.3508 0.0394
7.1200 2.3575 0.0351
7.1400 2.3642 0.0420
7.1600 2.3708 0.0378
7.1800 2.3774 0.0346
7.2000 2.3840 0.0453
7.2200 2.3907 0.0410
7.2400 2.3974 0.0329
7.2600 2.4041 0.0447
7.2800 2.4108 0.0368
7.3000 2.4174 0.0381
7.3200 2.4241 0.0435
7.3400 2.4308 0.0346
7.3600 2.4374 0.0315
7.3800 2.4440 0.0456
7.4000 2.4507 0.0360
7.4200 2.4574 0.0385
7.4400 2.4641 0.0482
7.4600 2.4707 0.0319
7.4800 2.4774 0.0383
7.5000 2.4841 0.0474
7.5200 2.4908 0.0374
7.5400 2.4974 0.0386
7.5600 2.5040 0.0442
7.5800 2.5107 0.0353
7.6000 2.5174 0.0346
7.6200 2.5241 0.0440
7.6400 2.5308 0.0406
7.6600 2.5375 0.0387
7.6800 2.5442 0.0404
7.7000 2.5508 0.0339
7.7200 2.5574 0.0425
7.7400 2.5640 0.0439
7.7600 2.5707 0.0384
7.7800 2.5774 0.0387
7.8000 2.5841 0.0457
7.8200 2.5908 0.0392
7.8400 2.5975 0.0389
7.8600 2.6041 0.0444
7.8800 2.6108 0.0374
7.9000 2.6174 0.0379
7.9200 2.6240 0.0424
7.9400 2.6307 0.0434
7.9600 2.6374 0.0379
7.9800 2.6441 0.0400
8.0000 2.6507 0.0416
8.0200 2.6574 0.0383
8.0400 2.6641 0.0399
8.0600 2.6708 0.0412
8.0800 2.6774 0.0314
8.1000 2.6840 0.0400
8.1200 2.6906 0.0437
8.1400 2.6973 0.0352
8.1600 2.7041 0.0391
8.1800 2.7108 0.0394
8.2000 2.7175 0.0357
8.2200 2.7241 0.0403
8.2400 2.7308 0.0321
8.2600 2.7374 0.0381
8.2800 2.7440 0.0443
8.3000 2.7507 0.0313
8.3200 2.7574 0.0388
8.3400 2.7641 0.0451
8.3600 2.7708 0.0328
8.3800 2.7775 0.0352
8.4000 2.7841 0.0440
8.4200 2.7908 0.0347
8.4400 2.7974 0.0392
8.4600 2.8040 0.0389
8.4800 2.8107 0.0410
8.5000 2.8174 0.0392
8.5200 2.8241 0.0411
8.5400 2.8308 0.0371
8.5600 2.8375 0.0388
8.5800 2.8442 0.0399
8.6000 2.8508 0.0365
8.6200 2.8574 0.0368
8.6400 2.8640 0.0403
8.6600 2.8707 0.0421
8.6800 2.8774 0.0394
8.7000 2.8841 0.0358
8.7200 2.8908 0.0434
8.7400 2.8974 0.0406
8.7600 2.9041 0.0328
8.7800 2.9108 0.0447
8.8000 2.9174 0.0397
8.8200 2.9240 0.0371
8.8400 2.9306 0.0432
8.8600 2.9373 0.0378
8.8800 2.9440 0.0357
8.9000 2.9507 0.0452
8.9200 2.9574 0.0342
8.9400 2.9641 0.0403
8.9600 2.9707 0.0405
8.9800 2.9774 0.0321
9.0000 2.9840 0.0419
9.0200 2.9907 0.0479
9.0400 2.9974 0.0340
9.0600 3.0041 0.0459
9.0800 3.0108 0.0456
9.1000 3.0175 0.0343
9.1200 3.0242 0.0473
9.1400 3.0308 0.0416
9.1600 3.0375 0.0376
9.1800 3.0440 0.0478
9.2000 3.0507 0.0449
9.2200 3.0574 0.0351
9.2400 3.0641 0.0474
9.2600 3.0708 0.0447
9.2800 3.0775 0.0333
9.3000 3.0842 0.0481
9.3200 3.0908 0.0428
9.3400 3.0974 0.0352
9.3600 3.1040 0.0517
9.3800 3.1107 0.0464
9.4000 3.1174 0.0370
9.4200 3.1241 0.0449
9.4400 3.1307 0.0474
9.4600 3.1374 0.0387
9.4800 3.1441 0.0487
9.5000 3.1508 0.0442
9.5200 3.1574 0.0393
9.5400 3.1640 0.0487
9.5600 3.1707 0.0432
9.5800 3.1774 0.0386
9.6000 3.1841 0.0480
9.6200 3.1907 0.0446
9.6400 3.1974 0.0377
9.6600 3.2041 0.0448
9.6800 3.2108 0.0431
9.7000 3.2174 0.0427
9.7200 3.2240 0.0460
9.7400 3.2307 0.0430
9.7600 3.2373 0.0421
9.7800 3.2441 0.0447
9.8000 3.2508 0.0425
9.8200 3.2575 0.0445
9.8400 3.2642 0.0434
9.8600 3.2708 0.0452
9.8800 3.2775 0.0420
9.9000 3.2840 0.0451
9.9200 3.2907 0.0447
9.9400 3.2974 0.0458
9.9600 3.3041 0.0425
9.9800 3.3108 0.0435
10.0000 3.3175 0.0446
10.0200 3.3241 0.0384
10.0400 3.3308 0.0451
10.0600 3.3374 0.0420
10.0800 3.3440 0.0441
10.1000 3.3507 0.0432
10.1200 3.3573 0.0420
10.1400 3.3640 0.0409
10.1600 3.3707 0.0461
10.1800 3.3774 0.0420
10.2000 3.3841 0.0393
10.2200 3.3908 0.0438
10.2400 3.3974 0.0411
10.2600 3.4040 0.0417
10.2800 3.4106 0.0456
10.3000 3.4173 0.0400
10.3200 3.4241 0.0420
10.3400 3.4308 0.0448
10.3600 3.4374 0.0377
10.3800 3.4441 0.0421
10.4000 3.4508 0.0483
10.4200 3.4574 0.0405
10.4400 3.4640 0.0377
10.4600 3.4707 0.0471
10.4800 3.4774 0.0411
10.5000 3.4841 0.0380
10.5200 3.4908 0.0420
10.5400 3.4974 0.0445
10.5600 3.5041 0.0411
10.5800 3.5108 0.0402
10.6000 3.5175 0.0401
10.6200 3.5241 0.0454
10.6400 3.5307 0.0465
10.6600 3.5373 0.0419
10.6800 3.5441 0.0409
10.7000 3.5508 0.0435
10.7200 3.5574 0.0438
10.7400 3.5641 0.0439
10.7600 3.5708 0.0402
10.7800 3.5775 0.0420
10.8000 3.5840 0.0427
10.8200 3.5907 0.0428
10.8400 3.5974 0.0457
10.8600 3.6041 0.0340
10.8800 3.6108 0.0473
10.9000 3.6175 0.0514
10.9200 3.6241 0.0315
10.9400 3.6308 0.0418
10.9600 3.6374 0.0492
10.9800 3.6440 0.0353
11.0000 3.6506 0.0430
11.0200 3.6573 0.0493
11.0400 3.6640 0.0396
11.0600 3.6707 0.0423
11.0800 3.6774 0.0459
11.1000 3.6841 0.0342
11.1200 3.6908 0.0477
11.1400 3.6974 0.0393
11.1600 3.7040 0.0298
11.1800 3.7106 0.0531
11.2000 3.7173 0.0435
11.2200 3.7240 0.0350
11.2400 3.7308 0.0481
11.2600 3.7375 0.0398
11.2800 3.7442 0.0361
11.3000 3.7509 0.0511
11.3200 3.7575 0.0363
11.3400 3.7641 0.0402
11.3600 3.7707 0.0501
11.3800 3.7774 0.0374
11.4000 3.7841 0.0383
11.4200 3.7908 0.0491
11.4400 3.7975 0.0386
11.4600 3.8041 0.0407
11.4800 3.8108 0.0469
11.5000 3.8175 0.0377
11.5200 3.8241 0.0414
11.5400 3.8307 0.0439
11.5600 3.8373 0.0397
11.5800 3.8440 0.0431
11.6000 3.8507 0.0401
11.6200 3.8574 0.0409
11.6400 3.8641 0.0422
11.6600 3.8708 0.0458
11.6800 3.8774 0.0449
11.7000 3.8840 0.0360
11.7200 3.8906 0.0452
11.7400 3.8973 0.0458
11.7600 3.9040 0.0362
11.7800 3.9107 0.0396
11.8000 3.9174 0.0454
11.8200 3.9241 0.0336
11.8400 3.9308 0.0433
11.8600 3.9374 0.0452
11.8800 3.9440 0.0368
11.9000 3.9507 0.0444
11.9200 3.9573 0.0444
11.9400 3.9641 0.0357
11.9600 3.9708 0.0465
11.9800 3.9775 0.0402
12.0000 3.9841 0.0420
12.0200 3.9908 0.0424
12.0400 3.9975 0.0385
12.0600 4.0041 0.0418
12.0800 4.0107 0.0448
12.1000 4.0174 0.0376
12.1200 4.0241 0.0370
12.1400 4.0308 0.0480
12.1600 4.0374 0.0375
12.1800 4.0441 0.0409
12.2000 4.0508 0.0428
12.2200 4.0575 0.0391
12.2400 4.0641 0.0393
12.2600 4.0707 0.0447
12.2800 4.0773 0.0399
12.3000 4.0840 0.0426
12.3200 4.0907 0.0429
12.3400 4.0974 0.0359
12.3600 4.1041 0.0414
12.3800 4.1108 0.0480
12.4000 4.1175 0.0356
12.4200 4.1241 0.0376
12.4400 4.1307 0.0443
12.4600 4.1373 0.0397
12.4800 4.1440 0.0393
12.5000 4.1507 0.0405
12.5200 4.1574 0.0412
12.5400 4.1641 0.0382
12.5600 4.1708 0.0421
12.5800 4.1774 0.0416
12.6000 4.1841 0.0434
12.6200 4.1907 0.0367
12.6400 4.1974 0.0456
12.6600 4.2040 0.0387
12.6800 4.2107 0.0393
12.7000 4.2174 0.0453
12.7200 4.2241 0.0401
12.7400 4.2308 0.0382
12.7600 4.2375 0.0458
12.7800 4.2441 0.0380
12.8000 4.2507 0.0400
12.8200 4.2573 0.0442
12.8400 4.2641 0.0407
12.8600 4.2708 0.0426
12.8800 4.2775 0.0461
12.9000 4.2842 0.0360
12.9200 4.2908 0.0402
12.9400 4.2975 0.0436
12.9600 4.3041 0.0383
12.9800 4.3107 0.0443
13.0000 4.3173 0.0433
13.0200 4.3241 0.0379
13.0400 4.3308 0.0375
13.0600 4.3374 0.0464
13.0800 4.3441 0.0373
13.1000 4.3508 0.0447
13.1200 4.3574 0.0407
13.1400 4.3641 0.0357
13.1600 4.3707 0.0480
13.1800 4.3773 0.0412
13.2000 4.3840 0.0395
13.2200 4.3907 0.0446
13.2400 4.3974 0.0365
13.2600 4.4041 0.0387
13.2800 4.4108 0.0413
13.3000 4.4175 0.0418
13.3200 4.4241 0.0417
13.3400 4.4307 0.0429
13.3600 4.4373 0.0378
13.3800 4.4440 0.0411
13.4000 4.4508 0.0457
13.4200 4.4575 0.0331
13.4400 4.4642 0.0429
13.4600 4.4708 0.0460
13.4800 4.4775 0.0370
13.5000 4.4841 0.0442
13.5200 4.4907 0.0436
13.5400 4.4973 0.0377
13.5600 4.5041 0.0428
13.5800 4.5108 0.0398
13.6000 4.5175 0.0398
13.6200 4.5241 0.0448
13.6400 4.5308 0.0404
13.6600 4.5375 0.0382
13.6800 4.5441 0.0447
13.7000 4.5507 0.0379
13.7200 4.5573 0.0406
13.7400 4.5640 0.0430
13.7600 4.5707 0.0366
13.7800 4.5774 0.0419
13.8000 4.5841 0.0430
13.8200 4.5908 0.0396
13.8400 4.5975 0.0415
13.8600 4.6041 0.0433
13.8800 4.6107 0.0411
13.9000 4.6173 0.0431
13.9200 4.6240 0.0398
13.9400 4.6307 0.0431
13.9600 4.6374 0.0425
13.9800 4.6441 0.0403
14.0000 4.6508 0.0400
14.0200 4.6575 0.0453
14.0400 4.6641 0.0376
14.0600 4.6707 0.0430
14.0800 4.6773 0.0404
14.1000 4.6840 0.0438
14.1200 4.6908 0.0448
14.1400 4.6974 0.0356
14.1600 4.7041 0.0465
14.1800 4.7108 0.0451
14.2000 4.7175 0.0369
14.2200 4.7241 0.0426
14.2400 4.7307 0.0446
14.2600 4.7374 0.0398
14.2800 4.7440 0.0425
14.3000 4.7507 0.0430
14.3200 4.7574 0.0432
14.3400 4.7641 0.0439
14.3600 4.7708 0.0450
14.3800 4.7775 0.0382
14.4000 4.7841 0.0451
14.4200 4.7907 0.0408
14.4400 4.7973 0.0461
14.4600 4.8040 0.0421
14.4800 4.8107 0.0419
14.5000 4.8174 0.0382
14.5200 4.8241 0.0460
14.5400 4.8308 0.0431
14.5600 4.8374 0.0370
14.5800 4.8441 0.0444
14.6000 4.8507 0.0433
14.6200 4.8573 0.0390
14.6400 4.8640 0.0413
14.6600 4.8707 0.0446
14.6800 4.8774 0.0459
14.7000 4.8841 0.0441
14.7200 4.8907 0.0441
14.7400 4.8974 0.0459
14.7600 4.9041 0.0395
14.7800 4.9107 0.0463
14.8000 4.9174 0.0457
14.8200 4.9240 0.0442
14.8400 4.9307 0.0437
14.8600 4.9374 0.0424
14.8800 4.9441 0.0417
14.9000 4.9508 0.0481
14.9200 4.9575 0.0373
14.9400 4.9641 0.0420
14.9600 4.9707 0.0537
14.9800 4.9773 0.0372
15.0000 4.9840 0.0419
15.0200 4.9907 0.0533
15.0400 4.9974 0.0395
15.0600 5.0041 0.0462
15.0800 5.0108 0.0438
15.1000 5.0175 0.0348
15.1200 5.0241 0.0476
15.1400 5.0307 0.0439
15.1600 5.0373 0.0388
15.1800 5.0440 0.0500
15.2000 5.0507 0.0409
15.2200 5.0574 0.0372
15.2400 5.0641 0.0555
15.2600 5.0708 0.0362
15.2800 5.0775 0.0406
15.3000 5.0841 0.0541
15.3200 5.0907 0.0332
15.3400 5.0973 0.0447
15.3600 5.1040 0.0523
15.3800 5.1107 0.0352
15.4000 5.1174 0.0440
15.4200 5.1241 0.0464
15.4400 5.1307 0.0339
15.4600 5.1374 0.0459
15.4800 5.1441 0.0419
15.5000 5.1507 0.0369
15.5200 5.1573 0.0467
15.5400 5.1640 0.0468
15.5600 5.1707 0.0338
15.5800 5.1774 0.0432
15.6000 5.1841 0.0451
15.6200 5.1908 0.0363
15.6400 5.1975 0.0423
15.6600 5.2042 0.0416
15.6800 5.2108 0.0382
15.7000 5.2174 0.0426
15.7200 5.2241 0.0405
15.7400 5.2308 0.0397
15.7600 5.2375 0.0438
15.7800 5.2441 0.0422
15.8000 5.2508 0.0412
15.8200 5.2575 0.0401
15.8400 5.2641 0.0401
15.8600 5.2707 0.0445
15.8800 5.2773 0.0386
15.9000 5.2840 0.0417
15.9200 5.2907 0.0444
15.9400 5.2974 0.0359
15.9600 5.3041 0.0452
15.9800 5.3108 0.0405
16.0000 5.3174 0.0364
16.0200 5.3241 0.0441
16.0400 5.3307 0.0451
16.0600 5.3373 0.0343
16.0800 5.3440 0.0478
16.1000 5.3507 0.0413
16.1200 5.3574 0.0357
16.1400 5.3641 0.0475
16.1600 5.3708 0.0393
16.1800 5.3775 0.0366
16.2000 5.3841 0.0506
16.2200 5.3907 0.0337
16.2400 5.3974 0.0449
16.2600 5.4040 0.0530
16.2800 5.4107 0.0312
16.3000 5.4174 0.0427
16.3200 5.4241 0.0490
16.3400 5.4308 0.0335
16.3600 5.4375 0.0448
16.3800 5.4441 0.0454
16.4000 5.4507 0.0321
16.4200 5.4573 0.0517
16.4400 5.4640 0.0449
16.4600 5.4707 0.0335
16.4800 5.4774 0.0483
16.5000 5.4841 0.0514
16.5200 5.4908 0.0324
16.5400 5.4975 0.0466
16.5600 5.5041 0.0468
16.5800 5.5107 0.0324
16.6000 5.5173 0.0498
16.6200 5.5240 0.0471
16.6400 5.5307 0.0357
16.6600 5.5374 0.0494
16.6800 5.5441 0.0446
16.7000 5.5508 0.0350
16.7200 5.5574 0.0483
16.7400 5.5641 0.0452
16.7600 5.5707 0.0344
16.7800 5.5773 0.0479
16.8000 5.5840 0.0440
16.8200 5.5907 0.0369
16.8400 5.5974 0.0495
16.8600 5.6041 0.0430
16.8800 5.6108 0.0389
16.9000 5.6175 0.0496
16.9200 5.6241 0.0400
16.9400 5.6308 0.0376
16.9600 5.6374 0.0515
16.9800 5.6440 0.0395
17.0000 5.6507 0.0445
17.0200 5.6575 0.0452
17.0400 5.6641 0.0409
17.0600 5.6708 0.0464
17.0800 5.6775 0.0454
17.1000 5.6841 0.0453
17.1200 5.6907 0.0455
17.1400 5.6974 0.0439
17.1600 5.7040 0.0432
17.1800 5.7107 0.0472
17.2000 5.7174 0.0407
17.2200 5.7241 0.0483
17.2400 5.7308 0.0464
17.2600 5.7375 0.0421
17.2800 5.7441 0.0466
17.3000 5.7508 0.0448
17.3200 5.7574 0.0420
17.3400 5.7640 0.0472
17.3600 5.7707 0.0485
17.3800 5.7774 0.0411
17.4000 5.7841 0.0418
17.4200 5.7908 0.0494
17.4400 5.7975 0.0385
17.4600 5.8041 0.0455
17.4800 5.8107 0.0465
17.5000 5.8173 0.0406
17.5200 5.8239 0.0473
17.5400 5.8307 0.0436
17.5600 5.8374 0.0481
17.5800 5.8441 0.0440
17.6000 5.8508 0.0465
17.6200 5.8574 0.0425
17.6400 5.8641 0.0455
17.6600 5.8707 0.0472
17.6800 5.8774 0.0432
17.7000 5.8840 0.0440
17.7200 5.8907 0.0478
17.7400 5.8974 0.0422
17.7600 5.9041 0.0472
17.7800 5.9108 0.0480
17.8000 5.9175 0.0437
17.8200 5.9242 0.0422
17.8400 5.9308 0.0484
17.8600 5.9374 0.0403
17.8800 5.9440 0.0436
17.9000 5.9507 0.0498
17.9200 5.9574 0.0458
17.9400 5.9641 0.0443
17.9600 5.9708 0.0458
17.9800 5.9775 0.0501
18.0000 5.9841 0.0423
18.0200 5.9907 0.0451
18.0400 5.9973 0.0456
18.0600 6.0040 0.0465
18.0800 6.0107 0.0491
18.1000 6.0174 0.0403
18.1200 6.0241 0.0441
18.1400 6.0308 0.0508
18.1600 6.0374 0.0412
18.1800 6.0441 0.0457
18.2000 6.0508 0.0465
18.2200 6.0574 0.0433
18.2400 6.0640 0.0421
18.2600 6.0707 0.0505
18.2800 6.0774 0.0440
18.3000 6.0841 0.0442
18.3200 6.0907 0.0458
18.3400 6.0974 0.0421
18.3600 6.1041 0.0481
18.3800 6.1108 0.0436
18.4000 6.1174 0.0476
18.4200 6.1240 0.0483
18.4400 6.1307 0.0436
18.4600 6.1374 0.0432
18.4800 6.1441 0.0446
18.5000 6.1508 0.0419
18.5200 6.1575 0.0426
18.5400 6.1641 0.0443
18.5600 6.1707 0.0452
18.5800 6.1773 0.0426
18.6000 6.1840 0.0500
18.6200 6.1907 0.0430
18.6400 6.1974 0.0439
18.6600 6.2041 0.0467
18.6800 6.2108 0.0413
18.7000 6.2175 0.0459
18.7200 6.2241 0.0470
18.7400 6.2308 0.0471
18.7600 6.2374 0.0403
18.7800 6.2440 0.0459
18.8000 6.2507 0.0499
18.8200 6.2574 0.0375
18.8400 6.2641 0.0509
18.8600 6.2707 0.0475
18.8800 6.2774 0.0376
18.9000 6.2841 0.0507
18.9200 6.2907 0.0422
18.9400 6.2973 0.0438
18.9600 6.3040 0.0485
18.9800 6.3106 0.0446
19.0000 6.3174 0.0438
19.0200 6.3241 0.0478
19.0400 6.3307 0.0423
19.0600 6.3374 0.0421
19.0800 6.3441 0.0503
19.1000 6.3507 0.0398
19.1200 6.3573 0.0423
19.1400 6.3640 0.0512
19.1600 6.3707 0.0421
19.1800 6.3774 0.0488
19.2000 6.3841 0.0463
19.2200 6.3908 0.0429
19.2400 6.3975 0.0480
19.2600 6.4041 0.0439
19.2800 6.4108 0.0428
19.3000 6.4174 0.0518
19.3200 6.4240 0.0468
19.3400 6.4307 0.0402
19.3600 6.4374 0.0532
19.3800 6.4441 0.0423
19.4000 6.4508 0.0432
19.4200 6.4575 0.0546
19.4400 6.4641 0.0432
19.4600 6.4708 0.0441
19.4800 6.4774 0.0496
19.5000 6.4840 0.0428
19.5200 6.4907 0.0511
19.5400 6.4974 0.0531
19.5600 6.5041 0.0366
19.5800 6.5108 0.0481
19.6000 6.5175 0.0524
19.6200 6.5241 0.0343
19.6400 6.5307 0.0471
19.6600 6.5373 0.0516
19.6800 6.5439 0.0400
19.7000 6.5506 0.0568
19.7200 6.5574 0.0427
19.7400 6.5641 0.0392
19.7600 6.5707 0.0563
19.7800 6.5774 0.0454
19.8000 6.5841 0.0395
19.8200 6.5907 0.0535
19.8400 6.5974 0.0447
19.8600 6.6040 0.0464
19.8800 6.6107 0.0537
19.9000 6.6174 0.0423
19.9200 6.6241 0.0458
19.9400 6.6308 0.0543
19.9600 6.6375 0.0411
19.9800 6.6442 0.0445
20.0000 6.6508 0.0482
20.0200 6.6574 0.0441
20.0400 6.6640 0.0494
20.0600 6.6707 0.0483
20.0800 6.6774 0.0448
20.1000 6.6841 0.0445
20.1200 6.6908 0.0472
20.1400 6.6975 0.0501
20.1600 6.7041 0.0475
20.1800 6.7108 0.0436
20.2000 6.7174 0.0555
20.2200 6.7240 0.0455
20.2400 6.7307 0.0450
20.2600 6.7374 0.0537
20.2800 6.7441 0.0464
20.3000 6.7508 0.0445
20.3200 6.7574 0.0563
20.3400 6.7641 0.0397
20.3600 6.7707 0.0512
20.3800 6.7774 0.0529
20.4000 6.7840 0.0394
20.4200 6.7907 0.0540
20.4400 6.7974 0.0489
20.4600 6.8041 0.0429
20.4800 6.8108 0.0553
20.5000 6.8174 0.0497
20.5200 6.8241 0.0401
20.5400 6.8308 0.0543
20.5600 6.8374 0.0477
20.5800 6.8440 0.0439
20.6000 6.8507 0.0538
20.6200 6.8574 0.0487
20.6400 6.8641 0.0407
20.6600 6.8708 0.0552
20.6800 6.8775 0.0467
20.7000 6.8842 0.0454
20.7200 6.8908 0.0521
20.7400 6.8974 0.0444
20.7600 6.9040 0.0462
20.7800 6.9107 0.0532
20.8000 6.9174 0.0427
20.8200 6.9241 0.0439
20.8400 6.9308 0.0487
20.8600 6.9375 0.0483
20.8800 6.9441 0.0488
20.9000 6.9508 0.0512
20.9200 6.9574 0.0498
20.9400 6.9641 0.0471
20.9600 6.9707 0.0500
20.9800 6.9774 0.0449
21.0000 6.9841 0.0538
21.0200 6.9907 0.0479
21.0400 6.9974 0.0468
21.0600 7.0041 0.0457
21.0800 7.0108 0.0502
21.1000 7.0174 0.0486
21.1200 7.0240 0.0487
21.1400 7.0306 0.0499
21.1600 7.0373 0.0477
21.1800 7.0440 0.0503
21.2000 7.0507 0.0466
21.2200 7.0574 0.0496
21.2400 7.0641 0.0478
21.2600 7.0707 0.0430
21.2800 7.0773 0.0506
21.3000 7.0840 0.0494
21.3200 7.0906 0.0469
21.3400 7.0974 0.0528
21.3600 7.1041 0.0457
21.3800 7.1108 0.0504
21.4000 7.1174 0.0464
21.4200 7.1241 0.0466
21.4400 7.1308 0.0437
21.4600 7.1374 0.0522
21.4800 7.1441 0.0473
21.5000 7.1507 0.0451
21.5200 7.1574 0.0527
21.5400 7.1641 0.0476
21.5600 7.1708 0.0457
21.5800 7.1775 0.0467
21.6000 7.1842 0.0501
21.6200 7.1908 0.0530
21.6400 7.1974 0.0456
21.6600 7.2040 0.0476
21.6800 7.2106 0.0482
21.7000 7.2174 0.0505
21.7200 7.2241 0.0446
21.7400 7.2308 0.0465
21.7600 7.2375 0.0500
21.7800 7.2441 0.0478
21.8000 7.2508 0.0488
21.8200 7.2574 0.0436
21.8400 7.2640 0.0470
21.8600 7.2707 0.0510
21.8800 7.2774 0.0470
21.9000 7.2841 0.0470
21.9200 7.2907 0.0482
21.9400 7.2974 0.0434
21.9600 7.3041 0.0470
21.9800 7.3108 0.0498
22.0000 7.3174 0.0504
22.0200 7.3240 0.0456
22.0400 7.3307 0.0490
22.0600 7.3374 0.0424
22.0800 7.3441 0.0505
22.1000 7.3508 0.0498
22.1200 7.3575 0.0402
22.1400 7.3642 0.0532
22.1600 7.3708 0.0442
22.1800 7.3774 0.0457
22.2000 7.3840 0.0530
22.2200 7.3907 0.0524
22.2400 7.3974 0.0441
22.2600 7.4041 0.0457
22.2800 7.4108 0.0480
22.3000 7.4175 0.0435
22.3200 7.4241 0.0507
22.3400 7.4308 0.0445
22.3600 7.4374 0.0374
22.3800 7.4440 0.0546
22.4000 7.4507 0.0487
22.4200 7.4573 0.0426
22.4400 7.4641 0.0494
22.4600 7.4707 0.0442
22.4800 7.4774 0.0444
22.5000 7.4841 0.0544
22.5200 7.4908 0.0449
22.5400 7.4974 0.0386
22.5600 7.5040 0.0560
22.5800 7.5106 0.0466
22.6000 7.5173 0.0416
22.6200 7.5241 0.0524
22.6400 7.5308 0.0449
22.6600 7.5375 0.0417
22.6800 7.5441 0.0533
22.7000 7.5508 0.0408
22.7200 7.5574 0.0448
22.7400 7.5640 0.0489
22.7600 7.5707 0.0436
22.7800 7.5774 0.0456
22.8000 7.5841 0.0556
22.8200 7.5908 0.0407
22.8400 7.5974 0.0464
22.8600 7.6041 0.0491
22.8800 7.6108 0.0435
22.9000 7.6175 0.0503
22.9200 7.6241 0.0503
22.9400 7.6307 0.0406
22.9600 7.6374 0.0489
22.9800 7.6441 0.0519
23.0000 7.6508 0.0435
23.0200 7.6575 0.0482
23.0400 7.6642 0.0459
23.0600 7.6708 0.0486
23.0800 7.6775 0.0430
23.1000 7.6840 0.0469
23.1200 7.6907 0.0535
23.1400 7.6973 0.0432
23.1600 7.7041 0.0469
23.1800 7.7108 0.0500
23.2000 7.7174 0.0417
23.2200 7.7241 0.0475
23.2400 7.7308 0.0467
23.2600 7.7374 0.0458
23.2800 7.7440 0.0495
23.3000 7.7506 0.0484
23.3200 7.7573 0.0445
23.3400 7.7640 0.0493
23.3600 7.7707 0.0482
23.3800 7.7774 0.0384
23.4000 7.7841 0.0520
23.4200 7.7907 0.0446
23.4400 7.7974 0.0413
23.4600 7.8040 0.0501
23.4800 7.8107 0.0460
23.5000 7.8174 0.0415
23.5200 7.8241 0.0555
23.5400 7.8308 0.0425
23.5600 7.8375 0.0388
23.5800 7.8442 0.0510
23.6000 7.8508 0.0469
23.6200 7.8575 0.0385
23.6400 7.8640 0.0523
23.6600 7.8707 0.0457
23.6800 7.8774 0.0441
23.7000 7.8841 0.0492
23.7200 7.8908 0.0467
23.7400 7.8975 0.0466
23.7600 7.9042 0.0512
23.7800 7.9108 0.0410
23.8000 7.9174 0.0454
23.8200 7.9240 0.0527
23.8400 7.9307 0.0434
23.8600 7.9374 0.0436
23.8800 7.9441 0.0514
23.9000 7.9508 0.0443
23.9200 7.9574 0.0414
23.9400 7.9641 0.0509
23.9600 7.9708 0.0471
23.9800 7.9775 0.0464
24.0000 7.9841 0.0477
24.0200 7.9907 0.0468
24.0400 7.9973 0.0419
24.0600 8.0040 0.0484
24.0800 8.0107 0.0458
24.1000 8.0174 0.0414
24.1200 8.0241 0.0510
24.1400 8.0308 0.0468
24.1600 8.0374 0.0399
24.1800 8.0440 0.0459
24.2000 8.0507 0.0511
24.2200 8.0573 0.0383
24.2400 8.0641 0.0483
24.2600 8.0708 0.0490
24.2800 8.0775 0.0397
24.3000 8.0842 0.0501
24.3200 8.0908 0.0469
24.3400 8.0974 0.0357
24.3600 8.1040 0.0563
24.3800 8.1107 0.0446
24.4000 8.1174 0.0403
24.4200 8.1241 0.0522
24.4400 8.1308 0.0437
24.4600 8.1375 0.0442
24.4800 8.1441 0.0566
24.5000 8.1508 0.0394
24.5200 8.1574 0.0436
24.5400 8.1641 0.0529
24.5600 8.1707 0.0378
24.5800 8.1773 0.0516
24.6000 8.1840 0.0497
24.6200 8.1907 0.0404
24.6400 8.1974 0.0499
24.6600 8.2041 0.0437
24.6800 8.2108 0.0431
24.7000 8.2174 0.0513
24.7200 8.2240 0.0423
24.7400 8.2306 0.0466
24.7600 8.2373 0.0449
24.7800 8.2440 0.0465
24.8000 8.2508 0.0457
24.8200 8.2574 0.0465
24.8400 8.2641 0.0452
24.8600 8.2708 0.0495
24.8800 8.2774 0.0432
24.9000 8.2841 0.0452
24.9200 8.2907 0.0510
24.9400 8.2974 0.0412
24.9600 8.3041 0.0463
24.9800 8.3108 0.0523
25.0000 8.3174 0.0400
25.0200 8.3241 0.0492
25.0400 8.3308 0.0511
25.0600 8.3375 0.0396
25.0800 8.3441 0.0496
25.1000 8.3507 0.0539
25.1200 8.3573 0.0410
25.1400 8.3640 0.0430
25.1600 8.3707 0.0505
25.1800 8.3774 0.0451
25.2000 8.3841 0.0473
25.2200 8.3908 0.0477
25.2400 8.3975 0.0423
25.2600 8.4041 0.0460
25.2800 8.4107 0.0525
25.3000 8.4173 0.0447
25.3200 8.4241 0.0481
25.3400 8.4308 0.0475
25.3600 8.4375 0.0449
25.3800 8.4441 0.0499
25.4000 8.4508 0.0480
25.4200 8.4574 0.0458
25.4400 8.4641 0.0473
25.4600 8.4707 0.0423
25.4800 8.4773 0.0473
25.5000 8.4840 0.0529
25.5200 8.4907 0.0331
25.5400 8.4974 0.0477
25.5600 8.5041 0.0530
25.5800 8.5107 0.0392
25.6000 8.5174 0.0520
25.6200 8.5240 0.0491
25.6400 8.5307 0.0388
25.6600 8.5373 0.0555
25.6800 8.5440 0.0476
25.7000 8.5508 0.0416
25.7200 8.5575 0.0503
25.7400 8.5642 0.0422
25.7600 8.5709 0.0439
25.7800 8.5775 0.0563
25.8000 8.5841 0.0357
25.8200 8.5907 0.0466
25.8400 8.5973 0.0609
25.8600 8.6041 0.0337
25.8800 8.6108 0.0543
25.9000 8.6175 0.0563
25.9200 8.6242 0.0357
25.9400 8.6308 0.0526
25.9600 8.6375 0.0491
25.9800 8.6441 0.0354
26.0000 8.6507 0.0587
26.0200 8.6573 0.0462
26.0400 8.6640 0.0362
26.0600 8.6707 0.0539
26.0800 8.6774 0.0430
26.1000 8.6841 0.0425
26.1200 8.6908 0.0585
26.1400 8.6974 0.0412
26.1600 8.7040 0.0411
26.1800 8.7106 0.0557
26.2000 8.7173 0.0475
26.2200 8.7240 0.0452
26.2400 8.7307 0.0514
26.2600 8.7374 0.0473
26.2800 8.7441 0.0423
26.3000 8.7508 0.0483
26.3200 8.7574 0.0474
26.3400 8.7640 0.0425
26.3600 8.7706 0.0506
26.3800 8.7773 0.0469
26.4000 8.7841 0.0440
26.4200 8.7908 0.0474
26.4400 8.7975 0.0459
26.4600 8.8042 0.0482
26.4800 8.8108 0.0471
26.5000 8.8175 0.0474
26.5200 8.8241 0.0443
26.5400 8.8307 0.0489
26.5600 8.8374 0.0509
26.5800 8.8441 0.0422
26.6000 8.8508 0.0485
26.6200 8.8574 0.0499
26.6400 8.8641 0.0426
26.6600 8.8708 0.0495
26.6800 8.8775 0.0476
26.7000 8.8841 0.0444
26.7200 8.8907 0.0522
26.7400 8.8973 0.0531
26.7600 8.9040 0.0447
26.7800 8.9107 0.0452
26.8000 8.9174 0.0560
26.8200 8.9241 0.0390
26.8400 8.9308 0.0503
26.8600 8.9375 0.0544
26.8800 8.9441 0.0405
26.9000 8.9507 0.0492
26.9200 8.9573 0.0566
26.9400 8.9640 0.0364
26.9600 8.9707 0.0451
26.9800 8.9774 0.0574
27.0000 8.9841 0.0420
27.0200 8.9908 0.0465
27.0400 8.9974 0.0522
27.0600 9.0041 0.0377
27.0800 9.0107 0.0498
27.1000 9.0173 0.0547
27.1200 9.0240 0.0396
27.1400 9.0307 0.0527
27.1600 9.0374 0.0519
27.1800 9.0441 0.0425
27.2000 9.0508 0.0487
27.2200 9.0575 0.0536
27.2400 9.0641 0.0404
27.2600 9.0707 0.0500
27.2800 9.0773 0.0559
27.3000 9.0840 0.0430
27.3200 9.0908 0.0478
27.3400 9.0975 0.0499
27.3600 9.1042 0.0439
27.3800 9.1108 0.0505
27.4000 9.1175 0.0481
27.4200 9.1241 0.0467
27.4400 9.1307 0.0457
27.4600 9.1373 0.0518
27.4800 9.1440 0.0455
27.5000 9.1507 0.0454
27.5200 9.1574 0.0560
27.5400 9.1641 0.0461
27.5600 9.1708 0.0458
27.5800 9.1775 0.0495
27.6000 9.1841 0.0470
27.6200 9.1907 0.0458
27.6400 9.1973 0.0537
27.6600 9.2040 0.0476
27.6800 9.2107 0.0462
27.7000 9.2174 0.0511
27.7200 9.2241 0.0441
27.7400 9.2308 0.0496
27.7600 9.2375 0.0496
27.7800 9.2441 0.0418
27.8000 9.2507 0.0475
27.8200 9.2573 0.0565
27.8400 9.2640 0.0500
27.8600 9.2708 0.0415
27.8800 9.2775 0.0492
27.9000 9.2842 0.0455
27.9200 9.2909 0.0490
27.9400 9.2975 0.0494
27.9600 9.3041 0.0404
27.9800 9.3107 0.0532
28.0000 9.3173 0.0499
28.0200 9.3240 0.0429
28.0400 9.3308 0.0496
28.0600 9.3374 0.0513
28.0800 9.3441 0.0406
28.1000 9.3508 0.0520
28.1200 9.3575 0.0478
28.1400 9.3641 0.0437
28.1600 9.3707 0.0503
28.1800 9.3773 0.0518
28.2000 9.3840 0.0475
28.2200 9.3907 0.0478
28.2400 9.3974 0.0462
28.2600 9.4041 0.0492
28.2800 9.4108 0.0485
28.3000 9.4175 0.0431
28.3200 9.4241 0.0504
28.3400 9.4307 0.0449
28.3600 9.4373 0.0461
28.3800 9.4440 0.0539
28.4000 9.4507 0.0444
28.4200 9.4574 0.0464
28.4400 9.4641 0.0511
28.4600 9.4708 0.0449
28.4800 9.4775 0.0546
28.5000 9.4841 0.0459
28.5200 9.4907 0.0416
28.5400 9.4973 0.0539
28.5600 9.5040 0.0467
28.5800 9.5107 0.0458
28.6000 9.5174 0.0541
28.6200 9.5241 0.0433
28.6400 9.5308 0.0453
28.6600 9.5375 0.0526
28.6800 9.5441 0.0458
28.7000 9.5507 0.0488
28.7200 9.5574 0.0538
28.7400 9.5640 0.0455
28.7600 9.5708 0.0463
28.7800 9.5775 0.0522
28.8000 9.5841 0.0479
28.8200 9.5908 0.0498
28.8400 9.5975 0.0482
28.8600 9.6041 0.0450
28.8800 9.6107 0.0478
28.9000 9.6173 0.0515
28.9200 9.6240 0.0507
28.9400 9.6307 0.0482
28.9600 9.6374 0.0452
28.9800 9.6441 0.0530
29.0000 9.6508 0.0469
29.0200 9.6575 0.0457
29.0400 9.6641 0.0559
29.0600 9.6707 0.0473
29.0800 9.6773 0.0465
29.1000 9.6840 0.0549
29.1200 9.6907 0.0438
29.1400 9.6974 0.0468
29.1600 9.7041 0.0559
29.1800 9.7107 0.0478
29.2000 9.7174 0.0476
29.2200 9.7241 0.0511
29.2400 9.7307 0.0475
29.2600 9.7374 0.0470
29.2800 9.7440 0.0574
29.3000 9.7507 0.0485
29.3200 9.7574 0.0465
29.3400 9.7641 0.0560
29.3600 9.7708 0.0474
29.3800 9.7775 0.0438
29.4000 9.7841 0.0551
29.4200 9.7907 0.0483
29.4400 9.7973 0.0477
29.4600 9.8040 0.0550
29.4800 9.8107 0.0502
29.5000 9.8175 0.0408
29.5200 9.8241 0.0552
29.5400 9.8308 0.0489
29.5600 9.8375 0.0412
29.5800 9.8441 0.0556
29.6000 9.8507 0.0456
29.6200 9.8574 0.0426
29.6400 9.8640 0.0539
29.6600 9.8707 0.0506
29.6800 9.8774 0.0420
29.7000 9.8841 0.0598
29.7200 9.8908 0.0449
29.7400 9.8975 0.0419
29.7600 9.9041 0.0624
29.7800 9.9107 0.0413
29.8000 9.9173 0.0471
29.8200 9.9239 0.0623
29.8400 9.9307 0.0448
29.8600 9.9374 0.0427
29.8800 9.9441 0.0544
29.9000 9.9508 0.0522
29.9200 9.9574 0.0400
29.9400 9.9641 0.0576
29.9600 9.9707 0.0477
29.9800 9.9773 0.0441
30.0000 9.9840 0.0577
30.0200 9.9907 0.0450
30.0400 9.9974 0.0471
30.0600 10.0041 0.0551
30.0800 10.0108 0.0506
30.1000 10.0175 0.0444
30.1200 10.0241 0.0562
30.1400 10.0308 0.0499
30.1600 10.0374 0.0433
30.1800 10.0440 0.0585
30.2000 10.0507 0.0491
30.2200 10.0574 0.0441
30.2400 10.0641 0.0555
30.2600 10.0708 0.0399
30.2800 10.0775 0.0491
30.3000 10.0841 0.0554
30.3200 10.0907 0.0437
30.3400 10.0973 0.0482
30.3600 10.1040 0.0568
30.3800 10.1107 0.0445
30.4000 10.1174 0.0449
30.4200 10.1241 0.0573
30.4400 10.1308 0.0440
30.4600 10.1374 0.0446
30.4800 10.1441 0.0563
30.5000 10.1507 0.0455
30.5200 10.1573 0.0444
30.5400 10.1640 0.0581
30.5600 10.1707 0.0460
30.5800 10.1774 0.0444
30.6000 10.1841 0.0549
30.6200 10.1908 0.0463
30.6400 10.1974 0.0443
30.6600 10.2041 0.0562
30.6800 10.2108 0.0439
30.7000 10.2174 0.0496
30.7200 10.2240 0.0551
30.7400 10.2307 0.0478
30.7600 10.2374 0.0448
30.7800 10.2441 0.0549
30.8000 10.2508 0.0478
30.8200 10.2575 0.0432
30.8400 10.2641 0.0585
30.8600 10.2707 0.0492
30.8800 10.2773 0.0491
30.9000 10.2840 0.0504
30.9200 10.2907 0.0501
30.9400 10.2974 0.0473
30.9600 10.3041 0.0510
30.9800 10.3108 0.0480
31.0000 10.3175 0.0448
31.0200 10.3241 0.0508
31.0400 10.3307 0.0514
31.0600 10.3373 0.0436
31.0800 10.3440 0.0525
31.1000 10.3507 0.0528
31.1200 10.3574 0.0399
31.1400 10.3641 0.0488
31.1600 10.3708 0.0555
31.1800 10.3774 0.0464
31.2000 10.3841 0.0481
31.2200 10.3907 0.0538
31.2400 10.3973 0.0444
31.2600 10.4040 0.0551
31.2800 10.4107 0.0540
31.3000 10.4174 0.0377
31.3200 10.4241 0.0545
31.3400 10.4308 0.0545
31.3600 10.4375 0.0381
31.3800 10.4441 0.0566
31.4000 10.4508 0.0515
31.4200 10.4573 0.0442
31.4400 10.4640 0.0579
31.4600 10.4707 0.0501
31.4800 10.4774 0.0414
31.5000 10.4841 0.0594
31.5200 10.4908 0.0469
31.5400 10.4975 0.0471
31.5600 10.5042 0.0565
31.5800 10.5108 0.0453
31.6000 10.5174 0.0476
31.6200 10.5240 0.0561
31.6400 10.5307 0.0461
31.6600 10.5374 0.0467
31.6800 10.5441 0.0550
31.7000 10.5508 0.0483
31.7200 10.5575 0.0466
31.7400 10.5642 0.0548
31.7600 10.5708 0.0463
31.7800 10.5774 0.0495
31.8000 10.5840 0.0580
31.8200 10.5907 0.0471
31.8400 10.5974 0.0512
31.8600 10.6041 0.0508
31.8800 10.6108 0.0512
31.9000 10.6175 0.0479
31.9200 10.6241 0.0489
31.9400 10.6307 0.0459
31.9600 10.6373 0.0526
31.9800 10.6439 0.0530
32.0000 10.6506 0.0434
32.0200 10.6574 0.0533
32.0400 10.6641 0.0520
32.0600 10.6708 0.0457
32.0800 10.6775 0.0587
32.1000 10.6841 0.0495
32.1200 10.6907 0.0420
32.1400 10.6974 0.0526
32.1600 10.7040 0.0499
32.1800 10.7107 0.0491
32.2000 10.7174 0.0513
32.2200 10.7241 0.0444
32.2400 10.7308 0.0521
32.2600 10.7375 0.0564
32.2800 10.7442 0.0418
32.3000 10.7508 0.0552
32.3200 10.7574 0.0505
32.3400 10.7640 0.0430
32.3600 10.7707 0.0583
32.3800 10.7774 0.0531
32.4000 10.7841 0.0405
32.4200 10.7908 0.0555
32.4400 10.7974 0.0523
32.4600 10.8041 0.0386
32.4800 10.8108 0.0548
32.5000 10.8174 0.0486
32.5200 10.8240 0.0399
32.5400 10.8307 0.0562
32.5600 10.8374 0.0490
32.5800 10.8441 0.0370
32.6000 10.8508 0.0579
32.6200 10.8574 0.0502
32.6400 10.8641 0.0405
32.6600 10.8708 0.0518
32.6800 10.8774 0.0550
32.7000 10.8840 0.0421
32.7200 10.8907 0.0495
32.7400 10.8974 0.0545
32.7600 10.9041 0.0420
32.7800 10.9107 0.0465
32.8000 10.9174 0.0594
32.8200 10.9241 0.0389
32.8400 10.9308 0.0446
32.8600 10.9374 0.0573
32.8800 10.9440 0.0411
32.9000 10.9507 0.0465
32.9200 10.9574 0.0602
32.9400 10.9641 0.0370
32.9600 10.9708 0.0470
32.9800 10.9775 0.0657
33.0000 10.9841 0.0371
33.0200 10.9908 0.0466
33.0400 10.9974 0.0562
33.0600 11.0040 0.0379
33.0800 11.0107 0.0490
33.1000 11.0174 0.0664
33.1200 11.0241 0.0332
33.1400 11.0308 0.0459
33.1600 11.0375 0.0634
33.1800 11.0442 0.0349
33.2000 11.0508 0.0518
33.2200 11.0574 0.0589
33.2400 11.0640 0.0373
33.2600 11.0707 0.0528
33.2800 11.0774 0.0573
33.3000 11.0841 0.0415
33.3200 11.0908 0.0515
33.3400 11.0974 0.0579
33.3600 11.1041 0.0367
33.3800 11.1108 0.0457
33.4000 11.1174 0.0565
33.4200 11.1240 0.0497
33.4400 11.1307 0.0497
33.4600 11.1374 0.0439
33.4800 11.1441 0.0474
33.5000 11.1507 0.0492
33.5200 11.1574 0.0516
33.5400 11.1641 0.0519
33.5600 11.1708 0.0471
33.5800 11.1774 0.0447
33.6000 11.1840 0.0507
33.6200 11.1907 0.0484
33.6400 11.1974 0.0544
33.6600 11.2041 0.0562
33.6800 11.2108 0.0403
33.7000 11.2175 0.0482
33.7200 11.2242 0.0538
33.7400 11.2308 0.0477
33.7600 11.2374 0.0538
33.7800 11.2440 0.0526
33.8000 11.2507 0.0427
33.8200 11.2574 0.0518
33.8400 11.2641 0.0512
33.8600 11.2708 0.0550
33.8800 11.2775 0.0542
33.9000 11.2842 0.0375
33.9200 11.2908 0.0514
33.9400 11.2974 0.0553
33.9600 11.3040 0.0426
33.9800 11.3107 0.0566
34.0000 11.3174 0.0510
34.0200 11.3241 0.0425
34.0400 11.3308 0.0530
34.0600 11.3375 0.0544
34.0800 11.3441 0.0425
34.1000 11.3508 0.0567
34.1200 11.3574 0.0524
34.1400 11.3639 0.0385
34.1600 11.3706 0.0568
34.1800 11.3773 0.0548
34.2000 11.3841 0.0446
34.2200 11.3907 0.0579
34.2400 11.3974 0.0493
34.2600 11.4041 0.0442
34.2800 11.4107 0.0556
34.3000 11.4174 0.0502
34.3200 11.4240 0.0505
34.3400 11.4307 0.0554
34.3600 11.4374 0.0509
34.3800 11.4441 0.0436
34.4000 11.4508 0.0556
34.4200 11.4575 0.0551
34.4400 11.4642 0.0483
34.4600 11.4708 0.0478
34.4800 11.4774 0.0518
34.5000 11.4840 0.0484
34.5200 11.4907 0.0545
34.5400 11.4974 0.0567
34.5600 11.5041 0.0438
34.5800 11.5108 0.0421
34.6000 11.5175 0.0604
34.6200 11.5241 0.0498
34.6400 11.5308 0.0427
34.6600 11.5374 0.0627
34.6800 11.5440 0.0500
34.7000 11.5507 0.0418
34.7200 11.5574 0.0613
34.7400 11.5641 0.0543
34.7600 11.5707 0.0427
34.7800 11.5774 0.0592
34.8000 11.5841 0.0507
34.8200 11.5907 0.0458
34.8400 11.5974 0.0558
34.8600 11.6040 0.0481
34.8800 11.6106 0.0480
34.9000 11.6173 0.0611
34.9200 11.6241 0.0457
34.9400 11.6307 0.0470
34.9600 11.6374 0.0642
34.9800 11.6441 0.0454
35.0000 11.6508 0.0461
35.0200 11.6574 0.0580
35.0400 11.6640 0.0492
35.0600 11.6707 0.0510
35.0800 11.6774 0.0565
35.1000 11.6841 0.0471
35.1200 11.6908 0.0537
35.1400 11.6975 0.0493
35.1600 11.7041 0.0508
35.1800 11.7108 0.0560
35.2000 11.7174 0.0504
35.2200 11.7240 0.0513
35.2400 11.7307 0.0594
35.2600 11.7374 0.0502
35.2800 11.7441 0.0502
35.3000 11.7508 0.0561
35.3200 11.7575 0.0484
35.3400 11.7641 0.0523
35.3600 11.7708 0.0538
35.3800 11.7774 0.0460
35.4000 11.7841 0.0552
35.4200 11.7907 0.0551
35.4400 11.7974 0.0497
35.4600 11.8041 0.0521
35.4800 11.8107 0.0494
35.5000 11.8174 0.0533
35.5200 11.8241 0.0525
35.5400 11.8308 0.0503
35.5600 11.8374 0.0475
35.5800 11.8440 0.0534
35.6000 11.8506 0.0495
35.6200 11.8573 0.0532
35.6400 11.8640 0.0512
35.6600 11.8707 0.0481
35.6800 11.8774 0.0513
35.7000 11.8841 0.0531
35.7200 11.8907 0.0455
35.7400 11.8974 0.0548
35.7600 11.9040 0.0513
35.7800 11.9107 0.0449
35.8000 11.9174 0.0546
35.8200 11.9241 0.0529
35.8400 11.9308 0.0463
35.8600 11.9374 0.0526
35.8800 11.9441 0.0573
35.9000 11.9508 0.0431
35.9200 11.9574 0.0490
35.9400 11.9640 0.0569
35.9600 11.9707 0.0451
35.9800 11.9774 0.0488
36.0000 11.9841 0.0584
36.0200 11.9908 0.0461
36.0400 11.9975 0.0447
36.0600 12.0042 0.0602
36.0800 12.0108 0.0450
36.1000 12.0174 0.0433
36.1200 12.0240 0.0618
36.1400 12.0306 0.0447
36.1600 12.0374 0.0485
36.1800 12.0441 0.0527
36.2000 12.0508 0.0428
36.2200 12.0575 0.0507
36.2400 12.0641 0.0549
36.2600 12.0708 0.0408
36.2800 12.0774 0.0520
36.3000 12.0840 0.0599
36.3200 12.0907 0.0391
36.3400 12.0973 0.0502
36.3600 12.1041 0.0542
36.3800 12.1107 0.0453
36.4000 12.1174 0.0498
36.4200 12.1241 0.0532
36.4400 12.1308 0.0439
36.4600 12.1374 0.0478
36.4800 12.1440 0.0522
36.5000 12.1507 0.0508
36.5200 12.1574 0.0460
36.5400 12.1641 0.0535
36.5600 12.1708 0.0464
36.5800 12.1775 0.0498
36.6000 12.1842 0.0540
36.6200 12.1908 0.0448
36.6400 12.1974 0.0454
36.6600 12.2040 0.0562
36.6800 12.2107 0.0472
36.7000 12.2174 0.0416
36.7200 12.2241 0.0558
36.7400 12.2308 0.0432
36.7600 12.2375 0.0484
36.7800 12.2441 0.0555
36.8000 12.2508 0.0453
36.8200 12.2574 0.0449
36.8400 12.2640 0.0524
36.8600 12.2707 0.0541
36.8800 12.2773 0.0427
36.9000 12.2841 0.0500
36.9200 12.2908 0.0569
36.9400 12.2974 0.0388
36.9600 12.3041 0.0539
36.9800 12.3108 0.0503
37.0000 12.3174 0.0432
37.0200 12.3240 0.0566
37.0400 12.3306 0.0507
37.0600 12.3373 0.0433
37.0800 12.3440 0.0547
37.1000 12.3507 0.0495
37.1200 12.3574 0.0370
37.1400 12.3641 0.0568
37.1600 12.3708 0.0504
37.1800 12.3774 0.0417
37.2000 12.3840 0.0589
37.2200 12.3907 0.0431
37.2400 12.3974 0.0409
37.2600 12.4041 0.0609
37.2800 12.4108 0.0421
37.3000 12.4175 0.0434
37.3200 12.4241 0.0613
37.3400 12.4308 0.0420
37.3600 12.4375 0.0392
37.3800 12.4441 0.0623
37.4000 12.4507 0.0411
37.4200 12.4574 0.0439
37.4400 12.4641 0.0547
37.4600 12.4708 0.0434
37.4800 12.4774 0.0450
37.5000 12.4841 0.0542
37.5200 12.4908 0.0433
37.5400 12.4975 0.0447
37.5600 12.5041 0.0526
37.5800 12.5107 0.0471
37.6000 12.5173 0.0503
37.6200 12.5240 0.0521
37.6400 12.5307 0.0492
37.6600 12.5374 0.0406
37.6800 12.5441 0.0536
37.7000 12.5508 0.0501
37.7200 12.5574 0.0421
37.7400 12.5640 0.0527
37.7600 12.5706 0.0466
37.7800 12.5773 0.0378
37.8000 12.5840 0.0585
37.8200 12.5907 0.0476
37.8400 12.5974 0.0393
37.8600 12.6041 0.0588
37.8800 12.6108 0.0474
37.9000 12.6174 0.0381
37.9200 12.6240 0.0603
37.9400 12.6307 0.0499
37.9600 12.6374 0.0402
37.9800 12.6441 0.0545
38.0000 12.6508 0.0418
38.0200 12.6575 0.0462
38.0400 12.6642 0.0542
38.0600 12.6709 0.0455
38.0800 12.6775 0.0422
38.1000 12.6841 0.0555
38.1200 12.6907 0.0462
38.1400 12.6973 0.0452
38.1600 12.7041 0.0547
38.1800 12.7108 0.0447
38.2000 12.7175 0.0419
38.2200 12.7242 0.0514
38.2400 12.7308 0.0504
38.2600 12.7375 0.0457
38.2800 12.7440 0.0502
38.3000 12.7506 0.0507
38.3200 12.7573 0.0441
38.3400 12.7640 0.0514
38.3600 12.7708 0.0512
38.3800 12.7774 0.0390
38.4000 12.7841 0.0555
38.4200 12.7908 0.0442
38.4400 12.7975 0.0446
38.4600 12.8041 0.0531
38.4800 12.8107 0.0490
38.5000 12.8173 0.0429
38.5200 12.8240 0.0509
38.5400 12.8307 0.0539
38.5600 12.8374 0.0425
38.5800 12.8441 0.0488
38.6000 12.8508 0.0562
38.6200 12.8574 0.0466
38.6400 12.8640 0.0483
38.6600 12.8707 0.0537
38.6800 12.8773 0.0464
38.7000 12.8841 0.0488
38.7200 12.8908 0.0527
38.7400 12.8975 0.0451
38.7600 12.9041 0.0526
38.7800 12.9108 0.0540
38.8000 12.9175 0.0417
38.8200 12.9241 0.0528
38.8400 12.9307 0.0567
38.8600 12.9373 0.0464
38.8800 12.9441 0.0514
38.9000 12.9508 0.0527
38.9200 12.9575 0.0403
38.9400 12.9641 0.0495
38.9600 12.9708 0.0552
38.9800 12.9775 0.0491
39.0000 12.9841 0.0511
39.0200 12.9907 0.0556
39.0400 12.9973 0.0464
39.0600 13.0040 0.0528
39.0800 13.0107 0.0542
39.1000 13.0174 0.0430
39.1200 13.0241 0.0498
39.1400 13.0308 0.0545
39.1600 13.0374 0.0451
39.1800 13.0441 0.0491
39.2000 13.0506 0.0591
39.2200 13.0573 0.0454
39.2400 13.0640 0.0479
39.2600 13.0707 0.0545
39.2800 13.0774 0.0498
39.3000 13.0841 0.0480
39.3200 13.0908 0.0557
39.3400 13.0975 0.0480
39.3600 13.1041 0.0492
39.3800 13.1107 0.0596
39.4000 13.1174 0.0487
39.4200 13.1241 0.0459
39.4400 13.1308 0.0590
39.4600 13.1374 0.0477
39.4800 13.1441 0.0468
39.5000 13.1508 0.0591
39.5200 13.1575 0.0506
39.5400 13.1641 0.0479
39.5600 13.1707 0.0536
39.5800 13.1773 0.0449
39.6000 13.1840 0.0533
39.6200 13.1907 0.0577
39.6400 13.1974 0.0425
39.6600 13.2041 0.0505
39.6800 13.2108 0.0547
39.7000 13.2175 0.0451
39.7200 13.2241 0.0493
39.7400 13.2307 0.0543
39.7600 13.2373 0.0499
39.7800 13.2440 0.0489
39.8000 13.2508 0.0461
39.8200 13.2575 0.0528
39.8400 13.2642 0.0532
39.8600 13.2708 0.0483
39.8800 13.2775 0.0472
39.9000 13.2841 0.0485
39.9200 13.2907 0.0518
39.9400 13.2973 0.0531
39.9600 13.3040 0.0500
39.9800 13.3107 0.0525
40.0000 13.3174 0.0527
40.0200 13.3241 0.0476
40.0400 13.3308 0.0524
40.0600 13.3374 0.0545
40.0800 13.3441 0.0456
40.1000 13.3507 0.0506
40.1200 13.3573 0.0572
40.1400 13.3640 0.0447
40.1600 13.3707 0.0530
40.1800 13.3774 0.0534
40.2000 13.3842 0.0444
40.2200 13.3909 0.0518
40.2400 13.3975 0.0557
40.2600 13.4041 0.0434
40.2800 13.4107 0.0552
40.3000 13.4173 0.0549
40.3200 13.4240 0.0442
40.3400 13.4308 0.0560
40.3600 13.4375 0.0536
40.3800 13.4441 0.0426
40.4000 13.4508 0.0599
40.4200 13.4575 0.0543
40.4400 13.4641 0.0386
40.4600 13.4707 0.0547
40.4800 13.4773 0.0577
40.5000 13.4840 0.0442
40.5200 13.4907 0.0540
40.5400 13.4974 0.0535
40.5600 13.5041 0.0428
40.5800 13.5108 0.0552
40.6000 13.5174 0.0501
40.6200 13.5241 0.0472
40.6400 13.5307 0.0577
40.6600 13.5373 0.0546
40.6800 13.5440 0.0446
40.7000 13.5507 0.0568
40.7200 13.5574 0.0572
40.7400 13.5641 0.0452
40.7600 13.5708 0.0530
40.7800 13.5774 0.0549
40.8000 13.5841 0.0472
40.8200 13.5906 0.0527
40.8400 13.5973 0.0548
40.8600 13.6040 0.0490
40.8800 13.6108 0.0542
40.9000 13.6175 0.0531
40.9200 13.6241 0.0458
40.9400 13.6308 0.0526
40.9600 13.6375 0.0577
40.9800 13.6441 0.0436
41.0000 13.6507 0.0529
41.0200 13.6574 0.0564
41.0400 13.6641 0.0508
41.0600 13.6708 0.0435
41.0800 13.6774 0.0561
41.1000 13.6841 0.0532
41.1200 13.6908 0.0427
41.1400 13.6975 0.0541
41.1600 13.7041 0.0490
41.1800 13.7107 0.0471
41.2000 13.7173 0.0608
41.2200 13.7240 0.0495
41.2400 13.7307 0.0425
41.2600 13.7374 0.0647
41.2800 13.7441 0.0459
41.3000 13.7508 0.0420
41.3200 13.7575 0.0649
41.3400 13.7641 0.0451
41.3600 13.7707 0.0401
41.3800 13.7773 0.0711
41.4000 13.7840 0.0456
41.4200 13.7907 0.0480
41.4400 13.7974 0.0599
41.4600 13.8041 0.0385
41.4800 13.8108 0.0539
41.5000 13.8174 0.0648
41.5200 13.8241 0.0362
41.5400 13.8307 0.0510
41.5600 13.8373 0.0604
41.5800 13.8440 0.0376
41.6000 13.8507 0.0582
41.6200 13.8574 0.0592
41.6400 13.8641 0.0393
41.6600 13.8708 0.0519
41.6800 13.8775 0.0573
41.7000 13.8841 0.0448
41.7200 13.8907 0.0560
41.7400 13.8973 0.0559
41.7600 13.9040 0.0431
41.7800 13.9107 0.0530
41.8000 13.9174 0.0574
41.8200 13.9241 0.0455
41.8400 13.9308 0.0538
41.8600 13.9375 0.0519
41.8800 13.9441 0.0489
41.9000 13.9507 0.0508
41.9200 13.9574 0.0568
41.9400 13.9640 0.0471
41.9600 13.9707 0.0516
41.9800 13.9774 0.0537
42.0000 13.9841 0.0449
42.0200 13.9908 0.0541
42.0400 13.9975 0.0503
42.0600 14.0041 0.0445
42.0800 14.0107 0.0498
42.1000 14.0173 0.0525
42.1200 14.0240 0.0491
42.1400 14.0307 0.0491
42.1600 14.0374 0.0475
42.1800 14.0441 0.0504
42.2000 14.0508 0.0468
42.2200 14.0575 0.0507
42.2400 14.0641 0.0491
42.2600 14.0707 0.0486
42.2800 14.0773 0.0498
42.3000 14.0840 0.0465
42.3200 14.0907 0.0471
42.3400 14.0975 0.0543
42.3600 14.1041 0.0467
42.3800 14.1108 0.0428
42.4000 14.1175 0.0513
42.4200 14.1241 0.0497
42.4400 14.1307 0.0413
42.4600 14.1374 0.0591
42.4800 14.1440 0.0532
42.5000 14.1508 0.0380
42.5200 14.1575 0.0547
42.5400 14.1641 0.0473
42.5600 14.1708 0.0412
42.5800 14.1775 0.0566
42.6000 14.1841 0.0449
42.6200 14.1907 0.0420
42.6400 14.1973 0.0609
42.6600 14.2040 0.0425
42.6800 14.2107 0.0473
42.7000 14.2174 0.0599
42.7200 14.2241 0.0392
42.7400 14.2308 0.0474
42.7600 14.2375 0.0561
42.7800 14.2441 0.0449
42.8000 14.2507 0.0496
42.8200 14.2573 0.0533
42.8400 14.2640 0.0462
42.8600 14.2707 0.0527
42.8800 14.2774 0.0539
42.9000 14.2841 0.0453
42.9200 14.2908 0.0531
42.9400 14.2975 0.0500
42.9600 14.3041 0.0465
42.9800 14.3107 0.0487
43.0000 14.3173 0.0514
43.0200 14.3240 0.0528
43.0400 14.3307 0.0471
43.0600 14.3375 0.0485
43.0800 14.3441 0.0503
43.1000 14.3508 0.0532
43.1200 14.3575 0.0473
43.1400 14.3641 0.0515
43.1600 14.3707 0.0490
43.1800 14.3774 0.0504
43.2000 14.3840 0.0529
43.2200 14.3907 0.0505
43.2400 14.3974 0.0478
43.2600 14.4041 0.0540
43.2800 14.4108 0.0488
43.3000 14.4175 0.0481
43.3200 14.4242 0.0601
43.3400 14.4307 0.0477
43.3600 14.4373 0.0496
43.3800 14.4440 0.0566
43.4000 14.4507 0.0472
43.4200 14.4574 0.0476
43.4400 14.4641 0.0567
43.4600 14.4708 0.0500
43.4800 14.4774 0.0532
43.5000 14.4841 0.0539
43.5200 14.4907 0.0458
43.5400 14.4973 0.0492
43.5600 14.5040 0.0576
43.5800 14.5107 0.0462
43.6000 14.5174 0.0520
43.6200 14.5241 0.0550
43.6400 14.5307 0.0490
43.6600 14.5374 0.0502
43.6800 14.5441 0.0536
43.7000 14.5507 0.0538
43.7200 14.5574 0.0495
43.7400 14.5640 0.0549
43.7600 14.5707 0.0514
43.7800 14.5774 0.0485
43.8000 14.5841 0.0535
43.8200 14.5908 0.0518
43.8400 14.5975 0.0492
43.8600 14.6041 0.0555
43.8800 14.6107 0.0499
43.9000 14.6173 0.0480
43.9200 14.6240 0.0571
43.9400 14.6307 0.0536
43.9600 14.6374 0.0432
43.9800 14.6441 0.0573
44.0000 14.6508 0.0508
44.0200 14.6575 0.0412
44.0400 14.6641 0.0541
44.0600 14.6707 0.0499
44.0800 14.6774 0.0496
44.1000 14.6840 0.0552
44.1200 14.6907 0.0485
44.1400 14.6974 0.0498
44.1600 14.7041 0.0527
44.1800 14.7108 0.0471
44.2000 14.7175 0.0509
44.2200 14.7241 0.0545
44.2400 14.7307 0.0471
44.2600 14.7373 0.0489
44.2800 14.7439 0.0602
44.3000 14.7506 0.0472
44.3200 14.7574 0.0449
44.3400 14.7641 0.0529
44.3600 14.7707 0.0552
44.3800 14.7774 0.0459
44.4000 14.7841 0.0538
44.4200 14.7907 0.0562
44.4400 14.7973 0.0489
44.4600 14.8040 0.0521
44.4800 14.8107 0.0554
44.5000 14.8174 0.0447
44.5200 14.8241 0.0556
44.5400 14.8308 0.0548
44.5600 14.8375 0.0423
44.5800 14.8442 0.0536
44.6000 14.8508 0.0544
44.6200 14.8574 0.0422
44.6400 14.8641 0.0506
44.6600 14.8708 0.0610
44.6800 14.8775 0.0450
44.7000 14.8841 0.0492
44.7200 14.8908 0.0553
44.7400 14.8975 0.0473
44.7600 14.9042 0.0499
44.7800 14.9108 0.0575
44.8000 14.9174 0.0440
44.8200 14.9240 0.0564
44.8400 14.9307 0.0577
44.8600 14.9374 0.0385
44.8800 14.9441 0.0559
44.9000 14.9508 0.0581
44.9200 14.9574 0.0418
44.9400 14.9641 0.0605
44.9600 14.9707 0.0601
44.9800 14.9773 0.0449
45.0000 14.9840 0.0543
45.0200 14.9907 0.0510
45.0400 14.9974 0.0442
45.0600 15.0041 0.0509
45.0800 15.0108 0.0575
45.1000 15.0174 0.0390
45.1200 15.0241 0.0592
45.1400 15.0308 0.0598
45.1600 15.0374 0.0423
45.1800 15.0441 0.0593
45.2000 15.0507 0.0606
45.2200 15.0574 0.0463
45.2400 15.0641 0.0561
45.2600 15.0708 0.0562
45.2800 15.0775 0.0481
45.3000 15.0842 0.0521
45.3200 15.0908 0.0543
45.3400 15.0974 0.0456
45.3600 15.1040 0.0536
45.3800 15.1107 0.0599
45.4000 15.1174 0.0451
45.4200 15.1241 0.0486
45.4400 15.1308 0.0580
45.4600 15.1375 0.0556
45.4800 15.1441 0.0462
45.5000 15.1507 0.0586
45.5200 15.1573 0.0522
45.5400 15.1640 0.0452
45.5600 15.1707 0.0597
45.5800 15.1774 0.0495
45.6000 15.1841 0.0496
45.6200 15.1908 0.0596
45.6400 15.1974 0.0438
45.6600 15.2041 0.0506
45.6800 15.2107 0.0657
45.7000 15.2174 0.0469
45.7200 15.2240 0.0483
45.7400 15.2307 0.0641
45.7600 15.2374 0.0454
45.7800 15.2441 0.0509
45.8000 15.2507 0.0619
45.8200 15.2574 0.0455
45.8400 15.2641 0.0535
45.8600 15.2708 0.0552
45.8800 15.2774 0.0458
45.9000 15.2840 0.0573
45.9200 15.2907 0.0598
45.9400 15.2974 0.0433
45.9600 15.3041 0.0550
45.9800 15.3108 0.0579
46.0000 15.3175 0.0435
46.0200 15.3241 0.0535
46.0400 15.3308 0.0606
46.0600 15.3374 0.0475
46.0800 15.3440 0.0521
46.1000 15.3507 0.0548
46.1200 15.3574 0.0502
46.1400 15.3641 0.0511
46.1600 15.3708 0.0535
46.1800 15.3775 0.0539
46.2000 15.3842 0.0486
46.2200 15.3908 0.0486
46.2400 15.3974 0.0559
46.2600 15.4040 0.0517
46.2800 15.4107 0.0519
46.3000 15.4174 0.0541
46.3200 15.4241 0.0467
46.3400 15.4308 0.0527
46.3600 15.4374 0.0524
46.3800 15.4441 0.0479
46.4000 15.4507 0.0548
46.4200 15.4573 0.0528
46.4400 15.4639 0.0463
46.4600 15.4706 0.0574
46.4800 15.4774 0.0529
46.5000 15.4841 0.0497
46.5200 15.4908 0.0518
46.5400 15.4974 0.0515
46.5600 15.5041 0.0511
46.5800 15.5108 0.0528
46.6000 15.5174 0.0556
46.6200 15.5240 0.0448
46.6400 15.5307 0.0542
46.6600 15.5374 0.0533
46.6800 15.5441 0.0447
46.7000 15.5508 0.0570
46.7200 15.5575 0.0545
46.7400 15.5642 0.0403
46.7600 15.5708 0.0541
46.7800 15.5774 0.0565
46.8000 15.5840 0.0452
46.8200 15.5907 0.0536
46.8400 15.5974 0.0568
46.8600 15.6041 0.0421
46.8800 15.6108 0.0528
46.9000 15.6175 0.0555
46.9200 15.6242 0.0483
46.9400 15.6308 0.0533
46.9600 15.6374 0.0527
46.9800 15.6440 0.0503
47.0000 15.6507 0.0567
47.0200 15.6574 0.0482
47.0400 15.6641 0.0507
47.0600 15.6708 0.0549
47.0800 15.6774 0.0444
47.1000 15.6841 0.0536
47.1200 15.6908 0.0539
47.1400 15.6974 0.0493
47.1600 15.7040 0.0522
47.1800 15.7107 0.0539
47.2000 15.7174 0.0534
47.2200 15.7241 0.0457
47.2400 15.7307 0.0492
47.2600 15.7374 0.0599
47.2800 15.7441 0.0454
47.3000 15.7508 0.0491
47.3200 15.7574 0.0584
47.3400 15.7640 0.0528
47.3600 15.7707 0.0472
47.3800 15.7774 0.0581
47.4000 15.7841 0.0514
47.4200 15.7908 0.0508
47.4400 15.7975 0.0587
47.4600 15.8041 0.0482
47.4800 15.8108 0.0501
47.5000 15.8174 0.0566
47.5200 15.8240 0.0508
47.5400 15.8307 0.0525
47.5600 15.8374 0.0546
47.5800 15.8441 0.0474
47.6000 15.8508 0.0616
47.6200 15.8575 0.0493
47.6400 15.8642 0.0467
47.6600 15.8708 0.0632
47.6800 15.8774 0.0499
47.7000 15.8840 0.0462
47.7200 15.8907 0.0578
47.7400 15.8974 0.0558
47.7600 15.9041 0.0488
47.7800 15.9108 0.0546
47.8000 15.9175 0.0537
47.8200 15.9241 0.0522
47.8400 15.9308 0.0551
47.8600 15.9374 0.0512
47.8800 15.9440 0.0573
47.9000 15.9506 0.0589
47.9200 15.9573 0.0510
47.9400 15.9641 0.0530
47.9600 15.9708 0.0573
47.9800 15.9774 0.0526
48.0000 15.9841 0.0498
48.0200 15.9908 0.0541
48.0400 15.9974 0.0504
48.0600 16.0040 0.0624
48.0800 16.0107 0.0515
48.1000 16.0174 0.0443
48.1200 16.0242 0.0634
48.1400 16.0308 0.0514
48.1600 16.0375 0.0458
48.1800 16.0441 0.0631
48.2000 16.0508 0.0511
48.2200 16.0574 0.0548
48.2400 16.0640 0.0605
48.2600 16.0707 0.0474
48.2800 16.0774 0.0586
48.3000 16.0841 0.0638
48.3200 16.0908 0.0435
48.3400 16.0975 0.0554
48.3600 16.1042 0.0623
48.3800 16.1108 0.0415
48.4000 16.1174 0.0615
48.4200 16.1240 0.0563
48.4400 16.1306 0.0458
48.4600 16.1373 0.0627
48.4800 16.1441 0.0543
48.5000 16.1507 0.0457
48.5200 16.1574 0.0666
48.5400 16.1641 0.0591
48.5600 16.1708 0.0412
48.5800 16.1774 0.0621
48.6000 16.1840 0.0534
48.6200 16.1906 0.0427
48.6400 16.1973 0.0684
48.6600 16.2041 0.0490
48.6800 16.2108 0.0455
48.7000 16.2174 0.0671
48.7200 16.2241 0.0532
48.7400 16.2307 0.0484
48.7600 16.2374 0.0664
48.7800 16.2440 0.0536
48.8000 16.2507 0.0370
48.8200 16.2574 0.0663
48.8400 16.2641 0.0577
48.8600 16.2708 0.0447
48.8800 16.2775 0.0625
48.9000 16.2842 0.0522
48.9200 16.2908 0.0427
48.9400 16.2975 0.0652
48.9600 16.3040 0.0507
48.9800 16.3107 0.0446
49.0000 16.3174 0.0628
49.0200 16.3241 0.0506
49.0400 16.3308 0.0454
49.0600 16.3375 0.0640
49.0800 16.3441 0.0488
49.1000 16.3508 0.0449
49.1200 16.3574 0.0662
49.1400 16.3640 0.0504
49.1600 16.3706 0.0443
49.1800 16.3773 0.0636
49.2000 16.3841 0.0562
49.2200 16.3907 0.0368
49.2400 16.3974 0.0610
49.2600 16.4041 0.0514
49.2800 16.4108 0.0394
49.3000 16.4174 0.0637
49.3200 16.4240 0.0531
49.3400 16.4306 0.0470
49.3600 16.4373 0.0619
49.3800 16.4440 0.0445
49.4000 16.4507 0.0528
49.4200 16.4574 0.0604
49.4400 16.4641 0.0432
49.4600 16.4708 0.0472
49.4800 16.4774 0.0577
49.5000 16.4840 0.0505
49.5200 16.4907 0.0507
49.5400 16.4974 0.0550
49.5600 16.5041 0.0456
49.5800 16.5108 0.0537
49.6000 16.5175 0.0527
49.6200 16.5241 0.0508
49.6400 16.5308 0.0539
49.6600 16.5374 0.0451
49.6800 16.5440 0.0479
49.7000 16.5507 0.0553
49.7200 16.5574 0.0492
49.7400 16.5641 0.0566
49.7600 16.5708 0.0489
49.7800 16.5775 0.0507
49.8000 16.5841 0.0576
49.8200 16.5908 0.0491
49.8400 16.5974 0.0473
49.8600 16.6040 0.0547
49.8800 16.6107 0.0537
49.9000 16.6174 0.0495
49.9200 16.6241 0.0588
49.9400 16.6308 0.0517
49.9600 16.6375 0.0500
49.9800 16.6441 0.0570
50.0000 16.6508 0.0508
50.0200 16.6574 0.0474
50.0400 16.6640 0.0646
50.0600 16.6706 0.0520
50.0800 16.6773 0.0472
50.1000 16.6841 0.0657
50.1200 16.6908 0.0472
50.1400 16.6974 0.0513
50.1600 16.7041 0.0598
50.1800 16.7108 0.0431
50.2000 16.7174 0.0541
50.2200 16.7240 0.0580
50.2400 16.7307 0.0489
50.2600 16.7373 0.0562
50.2800 16.7441 0.0605
50.3000 16.7508 0.0434
50.3200 16.7574 0.0547
50.3400 16.7641 0.0572
50.3600 16.7708 0.0498
50.3800 16.7774 0.0557
50.4000 16.7840 0.0531
50.4200 16.7907 0.0543
50.4400 16.7974 0.0510
50.4600 16.8041 0.0488
50.4800 16.8108 0.0550
50.5000 16.8175 0.0560
50.5200 16.8242 0.0504
50.5400 16.8308 0.0546
50.5600 16.8375 0.0479
50.5800 16.8440 0.0504
50.6000 16.8507 0.0557
50.6200 16.8574 0.0562
50.6400 16.8641 0.0519
50.6600 16.8708 0.0538
50.6800 16.8775 0.0517
50.7000 16.8841 0.0546
50.7200 16.8908 0.0511
50.7400 16.8974 0.0525
50.7600 16.9040 0.0593
50.7800 16.9107 0.0557
50.8000 16.9174 0.0512
50.8200 16.9240 0.0568
50.8400 16.9307 0.0549
50.8600 16.9374 0.0494
50.8800 16.9441 0.0550
50.9000 16.9508 0.0579
50.9200 16.9574 0.0446
50.9400 16.9640 0.0559
50.9600 16.9707 0.0622
50.9800 16.9773 0.0452
51.0000 16.9841 0.0596
51.0200 16.9908 0.0561
51.0400 16.9974 0.0503
51.0600 17.0042 0.0599
51.0800 17.0108 0.0535
51.1000 17.0175 0.0454
51.1200 17.0241 0.0638
51.1400 17.0307 0.0554
51.1600 17.0374 0.0447
51.1800 17.0441 0.0609
51.2000 17.0508 0.0550
51.2200 17.0574 0.0515
51.2400 17.0641 0.0567
51.2600 17.0708 0.0538
51.2800 17.0774 0.0450
51.3000 17.0840 0.0581
51.3200 17.0907 0.0560
51.3400 17.0973 0.0506
51.3600 17.1040 0.0545
51.3800 17.1107 0.0544
51.4000 17.1174 0.0463
51.4200 17.1241 0.0579
51.4400 17.1308 0.0558
51.4600 17.1374 0.0483
51.4800 17.1441 0.0522
51.5000 17.1507 0.0570
51.5200 17.1573 0.0483
51.5400 17.1640 0.0521
51.5600 17.1708 0.0572
51.5800 17.1774 0.0487
51.6000 17.1841 0.0508
51.6200 17.1908 0.0562
51.6400 17.1974 0.0496
51.6600 17.2040 0.0562
51.6800 17.2107 0.0574
51.7000 17.2173 0.0447
51.7200 17.2241 0.0599
51.7400 17.2307 0.0532
51.7600 17.2374 0.0478
51.7800 17.2441 0.0582
51.8000 17.2508 0.0566
51.8200 17.2575 0.0445
51.8400 17.2641 0.0565
51.8600 17.2707 0.0547
51.8800 17.2774 0.0463
51.9000 17.2841 0.0547
51.9200 17.2908 0.0561
51.9400 17.2975 0.0470
51.9600 17.3042 0.0568
51.9800 17.3108 0.0562
52.0000 17.3175 0.0461
52.0200 17.3241 0.0558
52.0400 17.3307 0.0579
52.0600 17.3373 0.0499
52.0800 17.3440 0.0546
52.1000 17.3507 0.0533
52.1200 17.3574 0.0458
52.1400 17.3641 0.0577
52.1600 17.3708 0.0514
52.1800 17.3774 0.0495
52.2000 17.3840 0.0546
52.2200 17.3906 0.0549
52.2400 17.3973 0.0502
52.2600 17.4040 0.0577
52.2800 17.4107 0.0522
52.3000 17.4174 0.0518
52.3200 17.4240 0.0537
52.3400 17.4307 0.0554
52.3600 17.4374 0.0468
52.3800 17.4441 0.0493
52.4000 17.4507 0.0620
52.4200 17.4574 0.0512
52.4400 17.4641 0.0489
52.4600 17.4708 0.0604
52.4800 17.4775 0.0522
52.5000 17.4841 0.0490
52.5200 17.4908 0.0615
52.5400 17.4975 0.0458
52.5600 17.5041 0.0544
52.5800 17.5107 0.0625
52.6000 17.5173 0.0423
52.6200 17.5241 0.0562
52.6400 17.5308 0.0660
52.6600 17.5375 0.0388
52.6800 17.5442 0.0586
52.7000 17.5508 0.0601
52.7200 17.5575 0.0409
52.7400 17.5641 0.0565
52.7600 17.5707 0.0624
52.7800 17.5773 0.0424
52.8000 17.5840 0.0597
52.8200 17.5908 0.0585
52.8400 17.5974 0.0431
52.8600 17.6041 0.0606
52.8800 17.6108 0.0578
52.9000 17.6175 0.0459
52.9200 17.6241 0.0543
52.9400 17.6307 0.0542
52.9600 17.6373 0.0494
52.9800 17.6440 0.0582
53.0000 17.6507 0.0553
53.0200 17.6574 0.0502
53.0400 17.6641 0.0527
53.0600 17.6708 0.0547
53.0800 17.6774 0.0518
53.1000 17.6841 0.0536
53.1200 17.6907 0.0492
53.1400 17.6973 0.0555
53.1600 17.7041 0.0497
53.1800 17.7108 0.0542
53.2000 17.7175 0.0589
53.2200 17.7241 0.0510
53.2400 17.7308 0.0585
53.2600 17.7375 0.0543
53.2800 17.7441 0.0449
53.3000 17.7507 0.0584
53.3200 17.7574 0.0581
53.3400 17.7641 0.0482
53.3600 17.7708 0.0626
53.3800 17.7775 0.0503
53.4000 17.7841 0.0461
53.4200 17.7908 0.0641
53.4400 17.7975 0.0497
53.4600 17.8041 0.0456
53.4800 17.8107 0.0688
53.5000 17.8173 0.0463
53.5200 17.8240 0.0507
53.5400 17.8307 0.0676
53.5600 17.8374 0.0494
53.5800 17.8441 0.0522
53.6000 17.8508 0.0614
53.6200 17.8574 0.0457
53.6400 17.8641 0.0518
53.6600 17.8707 0.0634
53.6800 17.8773 0.0463
53.7000 17.8840 0.0560
53.7200 17.8907 0.0605
53.7400 17.8974 0.0441
53.7600 17.9041 0.0570
53.7800 17.9108 0.0596
53.8000 17.9174 0.0420
53.8200 17.9241 0.0604
53.8400 17.9307 0.0567
53.8600 17.9373 0.0472
53.8800 17.9440 0.0553
53.9000 17.9507 0.0617
53.9200 17.9574 0.0534
53.9400 17.9641 0.0553
53.9600 17.9708 0.0567
53.9800 17.9775 0.0540
54.0000 17.9841 0.0543
54.0200 17.9907 0.0568
54.0400 17.9973 0.0577
54.0600 18.0040 0.0562
54.0800 18.0107 0.0553
54.1000 18.0174 0.0595
54.1200 18.0241 0.0622
54.1400 18.0308 0.0549
54.1600 18.0375 0.0577
54.1800 18.0441 0.0547
54.2000 18.0507 0.0604
54.2200 18.0573 0.0562
54.2400 18.0640 0.0572
54.2600 18.0708 0.0576
54.2800 18.0775 0.0601
54.3000 18.0841 0.0589
54.3200 18.0908 0.0561
54.3400 18.0975 0.0574
54.3600 18.1041 0.0600
54.3800 18.1107 0.0568
54.4000 18.1173 0.0593
54.4200 18.1240 0.0588
54.4400 18.1307 0.0515
54.4600 18.1374 0.0612
54.4800 18.1441 0.0595
54.5000 18.1508 0.0522
54.5200 18.1574 0.0620
54.5400 18.1641 0.0539
54.5600 18.1707 0.0492
54.5800 18.1773 0.0597
54.6000 18.1840 0.0566
54.6200 18.1907 0.0533
54.6400 18.1975 0.0561
54.6600 18.2042 0.0527
54.6800 18.2109 0.0522
54.7000 18.2175 0.0588
54.7200 18.2241 0.0539
54.7400 18.2307 0.0531
54.7600 18.2373 0.0602
54.7800 18.2440 0.0521
54.8000 18.2508 0.0547
54.8200 18.2575 0.0630
54.8400 18.2642 0.0478
54.8600 18.2708 0.0561
54.8800 18.2775 0.0586
54.9000 18.2841 0.0461
54.9200 18.2907 0.0575
54.9400 18.2973 0.0656
54.9600 18.3040 0.0491
54.9800 18.3107 0.0545
55.0000 18.3174 0.0644
55.0200 18.3241 0.0440
55.0400 18.3308 0.0559
55.0600 18.3375 0.0615
55.0800 18.3441 0.0451
55.1000 18.3507 0.0529
55.1200 18.3573 0.0629
55.1400 18.3640 0.0499
55.1600 18.3707 0.0574
55.1800 18.3774 0.0584
55.2000 18.3841 0.0473
55.2200 18.3907 0.0580
55.2400 18.3974 0.0582
55.2600 18.4041 0.0468
55.2800 18.4107 0.0619
55.3000 18.4173 0.0540
55.3200 18.4240 0.0522
55.3400 18.4308 0.0628
55.3600 18.4375 0.0533
55.3800 18.4441 0.0564
55.4000 18.4508 0.0608
55.4200 18.4575 0.0578
55.4400 18.4641 0.0539
55.4600 18.4708 0.0573
55.4800 18.4774 0.0585
55.5000 18.4841 0.0567
55.5200 18.4908 0.0527
55.5400 18.4974 0.0598
55.5600 18.5041 0.0604
55.5800 18.5108 0.0508
55.6000 18.5175 0.0580
55.6200 18.5241 0.0579
55.6400 18.5307 0.0540
55.6600 18.5373 0.0646
55.6800 18.5440 0.0575
55.7000 18.5507 0.0577
55.7200 18.5574 0.0660
55.7400 18.5641 0.0559
55.7600 18.5708 0.0491
55.7800 18.5775 0.0648
55.8000 18.5841 0.0563
55.8200 18.5907 0.0463
55.8400 18.5973 0.0697
55.8600 18.6040 0.0606
55.8800 18.6107 0.0472
55.9000 18.6174 0.0654
55.9200 18.6241 0.0617
55.9400 18.6308 0.0469
55.9600 18.6374 0.0678
55.9800 18.6441 0.0569
56.0000 18.6507 0.0488
56.0200 18.6574 0.0704
56.0400 18.6640 0.0581
56.0600 18.6707 0.0471
56.0800 18.6774 0.0700
56.1000 18.6841 0.0568
56.1200 18.6908 0.0502
56.1400 18.6975 0.0681
56.1600 18.7041 0.0582
56.1800 18.7107 0.0511
56.2000 18.7173 0.0661
56.2200 18.7240 0.0613
56.2400 18.7307 0.0526
56.2600 18.7375 0.0659
56.2800 18.7441 0.0555
56.3000 18.7508 0.0559
56.3200 18.7575 0.0623
56.3400 18.7641 0.0601
56.3600 18.7707 0.0587
56.3800 18.7773 0.0616
56.4000 18.7840 0.0584
56.4200 18.7907 0.0559
56.4400 18.7974 0.0595
56.4600 18.8041 0.0675
56.4800 18.8108 0.0541
56.5000 18.8175 0.0614
56.5200 18.8241 0.0657
56.5400 18.8307 0.0540
56.5600 18.8373 0.0616
56.5800 18.8439 0.0709
56.6000 18.8506 0.0520
56.6200 18.8574 0.0611
56.6400 18.8641 0.0648
56.6600 18.8708 0.0509
56.6800 18.8775 0.0708
56.7000 18.8841 0.0632
56.7200 18.8907 0.0498
56.7400 18.8973 0.0680
56.7600 18.9040 0.0660
56.7800 18.9107 0.0516
56.8000 18.9175 0.0662
56.8200 18.9242 0.0651
56.8400 18.9308 0.0558
56.8600 18.9375 0.0629
56.8800 18.9441 0.0609
56.9000 18.9507 0.0592
56.9200 18.9573 0.0664
56.9400 18.9640 0.0568
56.9600 18.9707 0.0603
56.9800 18.9774 0.0637
57.0000 18.9841 0.0572
57.0200 18.9908 0.0613
57.0400 18.9975 0.0652
57.0600 19.0041 0.0618
57.0800 19.0107 0.0612
57.1000 19.0173 0.0634
57.1200 19.0240 0.0569
57.1400 19.0307 0.0651
57.1600 19.0374 0.0650
57.1800 19.0441 0.0581
57.2000 19.0508 0.0625
57.2200 19.0575 0.0627
57.2400 19.0641 0.0596
57.2600 19.0707 0.0646
57.2800 19.0773 0.0633
57.3000 19.0840 0.0669
57.3200 19.0907 0.0607
57.3400 19.0974 0.0575
57.3600 19.1041 0.0698
57.3800 19.1108 0.0587
57.4000 19.1175 0.0612
57.4200 19.1241 0.0674
57.4400 19.1307 0.0553
57.4600 19.1373 0.0659
57.4800 19.1440 0.0719
57.5000 19.1507 0.0536
57.5200 19.1574 0.0664
57.5400 19.1641 0.0666
57.5600 19.1708 0.0563
57.5800 19.1775 0.0671
57.6000 19.1842 0.0682
57.6200 19.1908 0.0568
57.6400 19.1974 0.0725
57.6600 19.2040 0.0649
57.6800 19.2107 0.0569
57.7000 19.2174 0.0726
57.7200 19.2241 0.0629
57.7400 19.2308 0.0591
57.7600 19.2375 0.0742
57.7800 19.2442 0.0628
57.8000 19.2507 0.0565
57.8200 19.2573 0.0732
57.8400 19.2640 0.0647
57.8600 19.2707 0.0646
57.8800 19.2774 0.0711
57.9000 19.2841 0.0593
57.9200 19.2908 0.0653
57.9400 19.2975 0.0747
57.9600 19.3041 0.0567
57.9800 19.3107 0.0709
58.0000 19.3173 0.0715
58.0200 19.3240 0.0612
58.0400 19.3307 0.0652
58.0600 19.3374 0.0690
58.0800 19.3441 0.0637
58.1000 19.3507 0.0638
58.1200 19.3574 0.0641
58.1400 19.3641 0.0683
58.1600 19.3707 0.0618
58.1800 19.3774 0.0644
58.2000 19.3840 0.0722
58.2200 19.3907 0.0635
58.2400 19.3974 0.0617
58.2600 19.4041 0.0676
58.2800 19.4108 0.0660
58.3000 19.4175 0.0660
58.3200 19.4242 0.0697
58.3400 19.4308 0.0599
58.3600 19.4374 0.0680
58.3800 19.4440 0.0689
58.4000 19.4507 0.0638
58.4200 19.4574 0.0653
58.4400 19.4641 0.0727
58.4600 19.4708 0.0550
58.4800 19.4775 0.0642
58.5000 19.4841 0.0721
58.5200 19.4908 0.0530
58.5400 19.4974 0.0699
58.5600 19.5040 0.0701
58.5800 19.5107 0.0598
58.6000 19.5174 0.0656
58.6200 19.5241 0.0684
58.6400 19.5308 0.0591
58.6600 19.5375 0.0649
58.6800 19.5441 0.0676
58.7000 19.5508 0.0653
58.7200 19.5573 0.0646
58.7400 19.5640 0.0633
58.7600 19.5706 0.0665
58.7800 19.5774 0.0679
58.8000 19.5841 0.0603
58.8200 19.5908 0.0688
58.8400 19.5974 0.0623
58.8600 19.6041 0.0634
58.8800 19.6107 0.0703
58.9000 19.6173 0.0612
58.9200 19.6240 0.0680
58.9400 19.6307 0.0716
58.9600 19.6374 0.0623
58.9800 19.6441 0.0657
59.0000 19.6508 0.0694
59.0200 19.6575 0.0618
59.0400 19.6642 0.0670
59.0600 19.6708 0.0712
59.0800 19.6774 0.0584
59.1000 19.6841 0.0686
59.1200 19.6907 0.0705
59.1400 19.6974 0.0614
59.1600 19.7041 0.0695
59.1800 19.7108 0.0651
59.2000 19.7175 0.0659
59.2200 19.7241 0.0674
59.2400 19.7308 0.0672
59.2600 19.7374 0.0650
59.2800 19.7440 0.0726
59.3000 19.7507 0.0703
59.3200 19.7574 0.0632
59.3400 19.7641 0.0673
59.3600 19.7707 0.0699
59.3800 19.7774 0.0643
59.4000 19.7841 0.0636
59.4200 19.7907 0.0687
59.4400 19.7973 0.0688
59.4600 19.8040 0.0667
59.4800 19.8107 0.0670
59.5000 19.8174 0.0670
59.5200 19.8241 0.0637
59.5400 19.8308 0.0699
59.5600 19.8374 0.0659
59.5800 19.8441 0.0646
59.6000 19.8508 0.0710
59.6200 19.8574 0.0656
59.6400 19.8640 0.0667
59.6600 19.8707 0.0742
59.6800 19.8774 0.0640
59.7000 19.8841 0.0638
59.7200 19.8908 0.0757
59.7400 19.8975 0.0637
59.7480 19.9001 0.0499
