Raw Data
Time Displacement Force
(s) (mm) (N)
0.0000 0.0000 0.0076
0.0200 0.0000 0.0041
0.0400 0.0007 0.0223
0.0600 0.0036 0.0468
0.0800 0.0089 0.0112
0.1000 0.0146 -0.0072
0.1200 0.0205 0.0259
0.1400 0.0270 0.0107
0.1600 0.0343 -0.0103
0.1800 0.0418 0.0165
0.2000 0.0491 0.0067
0.2200 0.0561 -0.0119
0.2400 0.0628 0.0089
0.2600 0.0694 0.0131
0.2800 0.0761 -0.0061
0.3000 0.0828 0.0178
0.3200 0.0894 0.0102
0.3400 0.0961 -0.0063
0.3600 0.1028 0.0152
0.3800 0.1096 0.0079
0.4000 0.1163 -0.0054
0.4200 0.1229 0.0206
0.4400 0.1296 0.0001
0.4600 0.1363 -0.0044
0.4800 0.1429 0.0202
0.5000 0.1495 0.0036
0.5200 0.1561 0.0004
0.5400 0.1628 0.0166
0.5600 0.1696 0.0047
0.5800 0.1763 0.0010
0.6000 0.1829 0.0211
0.6200 0.1896 0.0029
0.6400 0.1963 -0.0005
0.6600 0.2029 0.0202
0.6800 0.2095 0.0079
0.7000 0.2161 0.0028
0.7200 0.2228 0.0167
0.7400 0.2295 0.0069
0.7600 0.2362 0.0060
0.7800 0.2429 0.0194
0.8000 0.2496 0.0096
0.8200 0.2562 0.0044
0.8400 0.2629 0.0194
0.8600 0.2695 0.0078
0.8800 0.2761 0.0056
0.9000 0.2828 0.0203
0.9200 0.2895 0.0098
0.9400 0.2962 0.0035
0.9600 0.3029 0.0182
0.9800 0.3095 0.0119
1.0000 0.3162 0.0097
1.0200 0.3228 0.0147
1.0400 0.3294 0.0072
1.0600 0.3361 0.0121
1.0800 0.3428 0.0177
1.1000 0.3495 0.0082
1.1200 0.3563 0.0130
1.1400 0.3629 0.0163
1.1600 0.3696 0.0068
1.1800 0.3763 0.0115
1.2000 0.3829 0.0118
1.2200 0.3896 0.0184
1.2400 0.3962 0.0184
1.2600 0.4029 0.0086
1.2800 0.4096 0.0115
1.3000 0.4163 0.0136
1.3200 0.4229 0.0140
1.3400 0.4296 0.0140
1.3600 0.4363 0.0116
1.3800 0.4429 0.0123
1.4000 0.4495 0.0122
1.4200 0.4561 0.0174
1.4400 0.4628 0.0129
1.4600 0.4695 0.0156
1.4800 0.4762 0.0167
1.5000 0.4829 0.0079
1.5200 0.4896 0.0222
1.5400 0.4962 0.0138
1.5600 0.5029 0.0124
1.5800 0.5095 0.0205
1.6000 0.5161 0.0150
1.6200 0.5228 0.0135
1.6400 0.5296 0.0240
1.6600 0.5363 0.0101
1.6800 0.5429 0.0112
1.7000 0.5496 0.0187
1.7200 0.5562 0.0128
1.7400 0.5629 0.0142
1.7600 0.5695 0.0189
1.7800 0.5762 0.0089
1.8000 0.5829 0.0149
1.8200 0.5896 0.0191
1.8400 0.5962 0.0119
1.8600 0.6029 0.0192
1.8800 0.6096 0.0161
1.9000 0.6163 0.0098
1.9200 0.6229 0.0134
1.9400 0.6295 0.0204
1.9600 0.6361 0.0132
1.9800 0.6428 0.0163
2.0000 0.6495 0.0173
2.0200 0.6562 0.0092
2.0400 0.6629 0.0126
2.0600 0.6696 0.0253
2.0800 0.6763 0.0131
2.1000 0.6829 0.0028
2.1200 0.6895 0.0202
2.1400 0.6961 0.0227
2.1600 0.7028 0.0052
2.1800 0.7095 0.0192
2.2000 0.7162 0.0166
2.2200 0.7229 0.0038
2.2400 0.7295 0.0193
2.2600 0.7362 0.0211
2.2800 0.7429 0.0123
2.3000 0.7495 0.0139
2.3200 0.7561 0.0165
2.3400 0.7628 0.0082
2.3600 0.7695 0.0197
2.3800 0.7762 0.0146
2.4000 0.7829 0.0069
2.4200 0.7896 0.0169
2.4400 0.7963 0.0108
2.4600 0.8029 0.0096
2.4800 0.8095 0.0226
2.5000 0.8161 0.0089
2.5200 0.8228 0.0114
2.5400 0.8295 0.0157
2.5600 0.8363 0.0097
2.5800 0.8430 0.0167
2.6000 0.8496 0.0155
2.6200 0.8563 0.0124
2.6400 0.8629 0.0121
2.6600 0.8695 0.0201
2.6800 0.8762 0.0120
2.7000 0.8828 0.0163
2.7200 0.8896 0.0175
2.7400 0.8963 0.0104
2.7600 0.9029 0.0115
2.7800 0.9096 0.0099
2.8000 0.9163 0.0137
2.8200 0.9229 0.0155
2.8400 0.9295 0.0076
2.8600 0.9362 0.0218
2.8800 0.9428 0.0088
2.9000 0.9495 0.0088
2.9200 0.9562 0.0199
2.9400 0.9629 0.0112
2.9600 0.9696 0.0061
2.9800 0.9763 0.0138
3.0000 0.9829 0.0087
3.0200 0.9895 0.0033
3.0400 0.9961 0.0219
3.0600 1.0027 0.0112
3.0800 1.0095 0.0070
3.1000 1.0162 0.0149
3.1200 1.0229 0.0010
3.1400 1.0295 0.0115
3.1600 1.0362 0.0194
3.1800 1.0429 0.0024
3.2000 1.0495 0.0130
3.2200 1.0561 0.0179
3.2400 1.0628 -0.0011
3.2600 1.0695 0.0094
3.2800 1.0762 0.0215
3.3000 1.0829 -0.0021
3.3200 1.0896 0.0105
3.3400 1.0963 0.0128
3.3600 1.1030 -0.0023
3.3800 1.1096 0.0129
3.4000 1.1162 0.0121
3.4200 1.1229 0.0042
3.4400 1.1295 0.0127
3.4600 1.1362 0.0084
3.4800 1.1429 0.0020
3.5000 1.1496 0.0126
3.5200 1.1563 0.0203
3.5400 1.1629 -0.0044
3.5600 1.1695 0.0050
3.5800 1.1762 0.0170
3.6000 1.1828 -0.0022
3.6200 1.1895 0.0114
3.6400 1.1962 0.0103
3.6600 1.2029 0.0025
3.6800 1.2096 0.0067
3.7000 1.2162 0.0156
3.7200 1.2229 -0.0003
3.7400 1.2295 0.0057
3.7600 1.2361 0.0151
3.7800 1.2428 0.0024
3.8000 1.2495 0.0112
3.8200 1.2562 0.0132
3.8400 1.2629 0.0020
3.8600 1.2695 0.0110
3.8800 1.2762 0.0173
3.9000 1.2829 0.0090
3.9200 1.2895 0.0060
3.9400 1.2962 0.0145
3.9600 1.3028 0.0055
3.9800 1.3095 0.0075
4.0000 1.3162 0.0225
4.0200 1.3229 0.0039
4.0400 1.3296 0.0058
4.0600 1.3363 0.0156
4.0800 1.3429 0.0098
4.1000 1.3495 0.0071
4.1200 1.3561 0.0197
4.1400 1.3628 0.0074
4.1600 1.3695 0.0048
4.1800 1.3763 0.0175
4.2000 1.3829 0.0054
4.2200 1.3896 0.0116
4.2400 1.3963 0.0193
4.2600 1.4029 0.0012
4.2800 1.4096 0.0134
4.3000 1.4162 0.0187
4.3200 1.4228 0.0104
4.3400 1.4295 0.0135
4.3600 1.4362 0.0144
4.3800 1.4429 0.0090
4.4000 1.4495 0.0154
4.4200 1.4562 0.0142
4.4400 1.4629 0.0069
4.4600 1.4695 0.0186
4.4800 1.4761 0.0151
4.5000 1.4828 0.0088
4.5200 1.4895 0.0114
4.5400 1.4962 0.0143
4.5600 1.5029 0.0074
4.5800 1.5096 0.0123
4.6000 1.5163 0.0117
4.6200 1.5229 0.0103
4.6400 1.5295 0.0051
4.6600 1.5361 0.0138
4.6800 1.5428 0.0158
4.7000 1.5495 0.0125
4.7200 1.5562 0.0097
4.7400 1.5630 0.0103
4.7600 1.5696 0.0111
4.7800 1.5763 0.0126
4.8000 1.5830 0.0121
4.8200 1.5896 0.0072
4.8400 1.5962 0.0152
4.8600 1.6028 0.0128
4.8800 1.6095 0.0069
4.9000 1.6162 0.0099
4.9200 1.6229 0.0116
4.9400 1.6295 0.0073
4.9600 1.6362 0.0169
4.9800 1.6429 0.0100
5.0000 1.6496 0.0060
5.0200 1.6562 0.0152
5.0400 1.6628 0.0116
5.0600 1.6695 0.0031
5.0800 1.6762 0.0181
5.1000 1.6829 0.0102
5.1200 1.6896 0.0032
5.1400 1.6963 0.0197
5.1600 1.7029 0.0081
5.1800 1.7096 0.0031
5.2000 1.7162 0.0210
5.2200 1.7228 0.0099
5.2400 1.7295 0.0039
5.2600 1.7362 0.0206
5.2800 1.7429 0.0065
5.3000 1.7496 0.0079
5.3200 1.7562 0.0218
5.3400 1.7629 0.0042
5.3600 1.7695 0.0072
5.3800 1.7762 0.0260
5.4000 1.7828 0.0030
5.4200 1.7895 0.0114
5.4400 1.7962 0.0203
5.4600 1.8029 0.0049
5.4800 1.8096 0.0085
5.5000 1.8163 0.0211
5.5200 1.8230 0.0074
5.5400 1.8296 0.0084
5.5600 1.8362 0.0166
5.5800 1.8428 0.0119
5.6000 1.8495 0.0113
5.6200 1.8562 0.0163
5.6400 1.8629 0.0095
5.6600 1.8696 0.0080
5.6800 1.8763 0.0144
5.7000 1.8829 0.0102
5.7200 1.8896 0.0107
5.7400 1.8962 0.0085
5.7600 1.9028 0.0168
5.7800 1.9095 0.0096
5.8000 1.9162 0.0100
5.8200 1.9229 0.0153
5.8400 1.9295 0.0080
5.8600 1.9362 0.0094
5.8800 1.9429 0.0123
5.9000 1.9495 0.0083
5.9200 1.9561 0.0093
5.9400 1.9628 0.0111
5.9600 1.9695 0.0098
5.9800 1.9762 0.0109
6.0000 1.9829 0.0137
6.0200 1.9896 0.0049
6.0400 1.9962 0.0134
6.0600 2.0029 0.0115
6.0800 2.0096 -0.0035
6.1000 2.0162 0.0227
6.1200 2.0228 0.0138
6.1400 2.0295 -0.0033
6.1600 2.0362 0.0173
6.1800 2.0429 0.0132
6.2000 2.0496 0.0009
6.2200 2.0563 0.0187
6.2400 2.0629 0.0109
6.2600 2.0696 -0.0030
6.2800 2.0762 0.0179
6.3000 2.0828 0.0147
6.3200 2.0895 -0.0006
6.3400 2.0962 0.0144
6.3600 2.1029 0.0117
6.3800 2.1096 0.0012
6.4000 2.1163 0.0083
6.4200 2.1229 0.0076
6.4400 2.1296 0.0127
6.4600 2.1362 0.0161
6.4800 2.1429 0.0056
6.5000 2.1495 0.0034
6.5200 2.1562 0.0053
6.5400 2.1629 0.0151
6.5600 2.1695 0.0232
6.5800 2.1762 -0.0034
6.6000 2.1829 -0.0013
6.6200 2.1896 0.0149
6.6400 2.1962 0.0027
6.6600 2.2028 0.0150
6.6800 2.2095 0.0242
6.7000 2.2162 -0.0115
6.7200 2.2229 0.0122
6.7400 2.2296 0.0174
6.7600 2.2362 -0.0051
6.7800 2.2429 0.0257
6.8000 2.2495 0.0149
6.8200 2.2562 -0.0133
6.8400 2.2628 0.0226
6.8600 2.2695 0.0149
6.8800 2.2762 0.0008
6.9000 2.2829 0.0251
6.9200 2.2896 0.0055
6.9400 2.2962 -0.0008
6.9600 2.3029 0.0174
6.9800 2.3096 0.0058
7.0000 2.3162 0.0113
7.0200 2.3228 0.0244
7.0400 2.3295 0.0005
7.0600 2.3362 0.0075
7.0800 2.3429 0.0148
7.1000 2.3496 0.0067
7.1200 2.3563 0.0181
7.1400 2.3630 0.0126
7.1600 2.3696 0.0008
7.1800 2.3762 0.0127
7.2000 2.3828 0.0101
7.2200 2.3895 0.0112
7.2400 2.3962 0.0232
7.2600 2.4029 0.0071
7.2800 2.4096 0.0018
7.3000 2.4162 0.0110
7.3200 2.4229 0.0125
7.3400 2.4295 0.0168
7.3600 2.4362 0.0113
7.3800 2.4428 0.0077
7.4000 2.4495 0.0150
7.4200 2.4562 0.0082
7.4400 2.4629 0.0130
7.4600 2.4695 0.0132
7.4800 2.4762 0.0100
7.5000 2.4829 0.0128
7.5200 2.4896 0.0103
7.5400 2.4962 0.0058
7.5600 2.5028 0.0143
7.5800 2.5095 0.0146
7.6000 2.5162 0.0064
7.6200 2.5229 0.0091
7.6400 2.5296 0.0134
7.6600 2.5363 0.0085
7.6800 2.5430 0.0116
7.7000 2.5496 0.0111
7.7200 2.5562 0.0031
7.7400 2.5628 0.0138
7.7600 2.5695 0.0147
7.7800 2.5762 0.0054
7.8000 2.5829 0.0144
7.8200 2.5896 0.0130
7.8400 2.5962 0.0016
7.8600 2.6029 0.0116
7.8800 2.6096 0.0165
7.9000 2.6162 0.0022
7.9200 2.6228 0.0084
7.9400 2.6295 0.0193
7.9600 2.6362 0.0040
7.9800 2.6429 0.0168
8.0000 2.6495 0.0111
8.0200 2.6562 0.0022
8.0400 2.6629 0.0136
8.0600 2.6696 0.0097
8.0800 2.6762 0.0046
8.1000 2.6828 0.0198
8.1200 2.6894 0.0114
8.1400 2.6961 0.0004
8.1600 2.7029 0.0163
8.1800 2.7096 0.0110
8.2000 2.7162 0.0066
8.2200 2.7229 0.0157
8.2400 2.7296 0.0113
8.2600 2.7362 0.0053
8.2800 2.7428 0.0149
8.3000 2.7495 0.0116
8.3200 2.7562 0.0064
8.3400 2.7629 0.0143
8.3600 2.7696 0.0112
8.3800 2.7762 0.0047
8.4000 2.7829 0.0138
8.4200 2.7896 0.0165
8.4400 2.7962 0.0024
8.4600 2.8028 0.0106
8.4800 2.8095 0.0171
8.5000 2.8162 0.0031
8.5200 2.8229 0.0126
8.5400 2.8296 0.0210
8.5600 2.8363 0.0030
8.5800 2.8429 0.0125
8.6000 2.8496 0.0209
8.6200 2.8562 0.0034
8.6400 2.8628 0.0194
8.6600 2.8695 0.0216
8.6800 2.8762 -0.0031
8.7000 2.8829 0.0188
8.7200 2.8895 0.0194
8.7400 2.8962 -0.0036
8.7600 2.9029 0.0179
8.7800 2.9096 0.0192
8.8000 2.9162 -0.0031
8.8200 2.9228 0.0194
8.8400 2.9294 0.0178
8.8600 2.9361 0.0071
8.8800 2.9428 0.0167
8.9000 2.9495 0.0131
8.9200 2.9562 0.0045
8.9400 2.9629 0.0265
8.9600 2.9696 0.0049
8.9800 2.9762 0.0070
9.0000 2.9828 0.0234
9.0200 2.9895 0.0092
9.0400 2.9962 0.0121
9.0600 3.0029 0.0166
9.0800 3.0096 0.0097
9.1000 3.0163 0.0130
9.1200 3.0229 0.0199
9.1400 3.0296 0.0070
9.1600 3.0363 0.0178
9.1800 3.0428 0.0127
9.2000 3.0495 0.0140
9.2200 3.0562 0.0230
9.2400 3.0629 0.0094
9.2600 3.0696 0.0079
9.2800 3.0763 0.0212
9.3000 3.0830 0.0122
9.3200 3.0896 0.0143
9.3400 3.0962 0.0191
9.3600 3.1028 0.0178
9.3800 3.1095 0.0124
9.4000 3.1162 0.0137
9.4200 3.1229 0.0203
9.4400 3.1296 0.0210
9.4600 3.1362 0.0114
9.4800 3.1429 0.0124
9.5000 3.1496 0.0203
9.5200 3.1562 0.0080
9.5400 3.1629 0.0214
9.5600 3.1695 0.0211
9.5800 3.1762 0.0114
9.6000 3.1829 0.0191
9.6200 3.1895 0.0138
9.6400 3.1962 0.0149
9.6600 3.2029 0.0264
9.6800 3.2096 0.0118
9.7000 3.2162 0.0117
9.7200 3.2228 0.0216
9.7400 3.2294 0.0117
9.7600 3.2361 0.0158
9.7800 3.2428 0.0280
9.8000 3.2496 0.0046
9.8200 3.2563 0.0176
9.8400 3.2630 0.0277
9.8600 3.2696 0.0021
9.8800 3.2762 0.0222
9.9000 3.2828 0.0277
9.9200 3.2895 0.0058
9.9400 3.2962 0.0211
9.9600 3.3029 0.0205
9.9800 3.3096 0.0079
10.0000 3.3163 0.0256
10.0200 3.3229 0.0126
10.0400 3.3296 0.0091
10.0600 3.3362 0.0260
10.0800 3.3429 0.0120
10.1000 3.3495 0.0127
10.1200 3.3562 0.0309
10.1400 3.3628 0.0100
10.1600 3.3695 0.0153
10.1800 3.3762 0.0260
10.2000 3.3829 0.0091
10.2200 3.3896 0.0180
10.2400 3.3962 0.0252
10.2600 3.4028 0.0068
10.2800 3.4094 0.0204
10.3000 3.4161 0.0248
10.3200 3.4228 0.0097
10.3400 3.4295 0.0230
10.3600 3.4362 0.0160
10.3800 3.4429 0.0090
10.4000 3.4496 0.0209
10.4200 3.4562 0.0215
10.4400 3.4628 0.0103
10.4600 3.4695 0.0191
10.4800 3.4762 0.0182
10.5000 3.4829 0.0155
10.5200 3.4896 0.0123
10.5400 3.4962 0.0132
10.5600 3.5029 0.0162
10.5800 3.5096 0.0164
10.6000 3.5163 0.0059
10.6200 3.5229 0.0208
10.6400 3.5295 0.0200
10.6600 3.5361 0.0083
10.6800 3.5428 0.0200
10.7000 3.5495 0.0124
10.7200 3.5562 0.0126
10.7400 3.5629 0.0202
10.7600 3.5696 0.0052
10.7800 3.5763 0.0160
10.8000 3.5829 0.0227
10.8200 3.5895 0.0043
10.8400 3.5961 0.0168
10.8600 3.6029 0.0208
10.8800 3.6096 0.0074
10.9000 3.6163 0.0172
10.9200 3.6229 0.0197
10.9400 3.6296 0.0054
10.9600 3.6362 0.0188
10.9800 3.6428 0.0097
11.0000 3.6494 0.0120
11.0200 3.6561 0.0259
11.0400 3.6628 0.0071
11.0600 3.6695 0.0099
11.0800 3.6762 0.0228
11.1000 3.6829 0.0089
11.1200 3.6896 0.0100
11.1400 3.6962 0.0198
11.1600 3.7028 0.0043
11.1800 3.7095 0.0113
11.2000 3.7161 0.0222
11.2200 3.7228 0.0060
11.2400 3.7296 0.0132
11.2600 3.7363 0.0179
11.2800 3.7430 0.0026
11.3000 3.7497 0.0146
11.3200 3.7563 0.0156
11.3400 3.7629 0.0100
11.3600 3.7695 0.0148
11.3800 3.7761 0.0179
11.4000 3.7829 0.0073
11.4200 3.7896 0.0157
11.4400 3.7963 0.0127
11.4600 3.8029 0.0071
11.4800 3.8096 0.0145
11.5000 3.8163 0.0110
11.5200 3.8229 0.0111
11.5400 3.8295 0.0108
11.5600 3.8362 0.0108
11.5800 3.8428 0.0133
11.6000 3.8495 0.0146
11.6200 3.8562 0.0104
11.6400 3.8629 0.0175
11.6600 3.8696 0.0138
11.6800 3.8762 0.0129
11.7000 3.8828 0.0112
11.7200 3.8894 0.0134
11.7400 3.8961 0.0160
11.7600 3.9028 0.0118
11.7800 3.9095 0.0053
11.8000 3.9162 0.0175
11.8200 3.9229 0.0134
11.8400 3.9296 0.0083
11.8600 3.9362 0.0197
11.8800 3.9428 0.0114
11.9000 3.9494 0.0064
11.9200 3.9561 0.0208
11.9400 3.9629 0.0088
11.9600 3.9696 0.0077
11.9800 3.9763 0.0212
12.0000 3.9829 0.0100
12.0200 3.9896 0.0033
12.0400 3.9963 0.0186
12.0600 4.0029 0.0144
12.0800 4.0095 0.0042
12.1000 4.0162 0.0207
12.1200 4.0229 0.0143
12.1400 4.0296 0.0063
12.1600 4.0362 0.0118
12.1800 4.0429 0.0150
12.2000 4.0496 0.0097
12.2200 4.0563 0.0143
12.2400 4.0629 0.0090
12.2600 4.0695 0.0099
12.2800 4.0761 0.0191
12.3000 4.0828 0.0132
12.3200 4.0895 0.0017
12.3400 4.0962 0.0161
12.3600 4.1029 0.0169
12.3800 4.1096 0.0059
12.4000 4.1163 0.0139
12.4200 4.1229 0.0093
12.4400 4.1295 0.0085
12.4600 4.1361 0.0197
12.4800 4.1428 0.0078
12.5000 4.1495 0.0057
12.5200 4.1562 0.0192
12.5400 4.1629 0.0099
12.5600 4.1696 0.0038
12.5800 4.1763 0.0221
12.6000 4.1829 0.0094
12.6200 4.1895 0.0022
12.6400 4.1962 0.0177
12.6600 4.2029 0.0129
12.6800 4.2095 0.0109
12.7000 4.2162 0.0118
12.7200 4.2229 0.0129
12.7400 4.2296 0.0098
12.7600 4.2363 0.0175
12.7800 4.2429 0.0065
12.8000 4.2495 0.0098
12.8200 4.2561 0.0170
12.8400 4.2628 0.0087
12.8600 4.2696 0.0112
12.8800 4.2763 0.0109
12.9000 4.2829 0.0127
12.9200 4.2896 0.0126
12.9400 4.2963 0.0102
12.9600 4.3029 0.0126
12.9800 4.3095 0.0145
13.0000 4.3162 0.0088
13.0200 4.3229 0.0145
13.0400 4.3296 0.0071
13.0600 4.3363 0.0124
13.0800 4.3429 0.0182
13.1000 4.3496 0.0084
13.1200 4.3563 0.0108
13.1400 4.3629 0.0199
13.1600 4.3695 0.0082
13.1800 4.3761 0.0149
13.2000 4.3828 0.0206
13.2200 4.3895 0.0100
13.2400 4.3962 0.0145
13.2600 4.4029 0.0153
13.2800 4.4096 0.0055
13.3000 4.4163 0.0188
13.3200 4.4229 0.0145
13.3400 4.4295 0.0024
13.3600 4.4361 0.0207
13.3800 4.4428 0.0123
13.4000 4.4496 0.0107
13.4200 4.4563 0.0183
13.4400 4.4630 0.0118
13.4600 4.4696 0.0068
13.4800 4.4763 0.0242
13.5000 4.4829 0.0075
13.5200 4.4895 0.0096
13.5400 4.4962 0.0226
13.5600 4.5029 0.0082
13.5800 4.5096 0.0140
13.6000 4.5163 0.0170
13.6200 4.5229 0.0121
13.6400 4.5296 0.0196
13.6600 4.5362 0.0109
13.6800 4.5429 0.0152
13.7000 4.5495 0.0147
13.7200 4.5561 0.0141
13.7400 4.5628 0.0129
13.7600 4.5695 0.0124
13.7800 4.5762 0.0134
13.8000 4.5829 0.0173
13.8200 4.5896 0.0160
13.8400 4.5963 0.0046
13.8600 4.6029 0.0238
13.8800 4.6095 0.0164
13.9000 4.6161 0.0068
13.9200 4.6228 0.0201
13.9400 4.6295 0.0122
13.9600 4.6362 0.0094
13.9800 4.6429 0.0206
14.0000 4.6496 0.0082
14.0200 4.6562 0.0113
14.0400 4.6629 0.0170
14.0600 4.6695 0.0106
14.0800 4.6761 0.0153
14.1000 4.6828 0.0183
14.1200 4.6896 0.0092
14.1400 4.6962 0.0144
14.1600 4.7029 0.0140
14.1800 4.7096 0.0113
14.2000 4.7163 0.0194
14.2200 4.7229 0.0088
14.2400 4.7295 0.0062
14.2600 4.7362 0.0237
14.2800 4.7428 0.0104
14.3000 4.7495 0.0076
14.3200 4.7562 0.0212
14.3400 4.7629 0.0078
14.3600 4.7696 0.0121
14.3800 4.7763 0.0157
14.4000 4.7829 0.0119
14.4200 4.7895 0.0168
14.4400 4.7961 0.0159
14.4600 4.8028 0.0101
14.4800 4.8095 0.0171
14.5000 4.8162 0.0134
14.5200 4.8229 0.0149
14.5400 4.8295 0.0156
14.5600 4.8362 0.0047
14.5800 4.8428 0.0159
14.6000 4.8494 0.0227
14.6200 4.8561 0.0062
14.6400 4.8628 0.0158
14.6600 4.8695 0.0219
14.6800 4.8762 0.0063
14.7000 4.8829 0.0159
14.7200 4.8895 0.0191
14.7400 4.8962 0.0073
14.7600 4.9029 0.0143
14.7800 4.9095 0.0134
14.8000 4.9162 0.0114
14.8200 4.9228 0.0175
14.8400 4.9295 0.0082
14.8600 4.9362 0.0138
14.8800 4.9429 0.0129
14.9000 4.9496 0.0156
14.9200 4.9563 0.0135
14.9400 4.9629 0.0115
14.9600 4.9695 0.0147
14.9800 4.9761 0.0178
15.0000 4.9828 0.0107
15.0200 4.9895 0.0178
15.0400 4.9963 0.0170
15.0600 5.0029 0.0053
15.0800 5.0096 0.0172
15.1000 5.0163 0.0198
15.1200 5.0229 0.0067
15.1400 5.0295 0.0150
15.1600 5.0362 0.0191
15.1800 5.0428 0.0054
15.2000 5.0495 0.0251
15.2200 5.0562 0.0176
15.2400 5.0629 0.0073
15.2600 5.0696 0.0165
15.2800 5.0763 0.0182
15.3000 5.0829 0.0098
15.3200 5.0895 0.0186
15.3400 5.0961 0.0086
15.3600 5.1028 0.0131
15.3800 5.1095 0.0167
15.4000 5.1162 0.0008
15.4200 5.1229 0.0214
15.4400 5.1295 0.0219
15.4600 5.1362 -0.0057
15.4800 5.1429 0.0198
15.5000 5.1495 0.0227
15.5200 5.1561 0.0024
15.5400 5.1628 0.0171
15.5600 5.1695 0.0153
15.5800 5.1762 0.0042
15.6000 5.1829 0.0229
15.6200 5.1896 0.0136
15.6400 5.1963 0.0044
15.6600 5.2029 0.0234
15.6800 5.2096 0.0068
15.7000 5.2162 0.0170
15.7200 5.2229 0.0204
15.7400 5.2296 0.0075
15.7600 5.2363 0.0114
15.7800 5.2429 0.0206
15.8000 5.2496 0.0109
15.8200 5.2563 0.0105
15.8400 5.2629 0.0195
15.8600 5.2695 0.0069
15.8800 5.2761 0.0159
15.9000 5.2828 0.0166
15.9200 5.2895 0.0096
15.9400 5.2962 0.0155
15.9600 5.3029 0.0161
15.9800 5.3096 0.0071
16.0000 5.3162 0.0164
16.0200 5.3229 0.0158
16.0400 5.3295 0.0096
16.0600 5.3361 0.0230
16.0800 5.3428 0.0185
16.1000 5.3495 0.0025
16.1200 5.3562 0.0242
16.1400 5.3629 0.0148
16.1600 5.3696 0.0081
16.1800 5.3762 0.0181
16.2000 5.3829 0.0124
16.2200 5.3895 0.0084
16.2400 5.3962 0.0217
16.2600 5.4028 0.0128
16.2800 5.4095 0.0089
16.3000 5.4162 0.0186
16.3200 5.4229 0.0155
16.3400 5.4296 0.0141
16.3600 5.4363 0.0190
16.3800 5.4429 0.0104
16.4000 5.4495 0.0169
16.4200 5.4561 0.0207
16.4400 5.4628 0.0130
16.4600 5.4695 0.0189
16.4800 5.4762 0.0136
16.5000 5.4829 0.0121
16.5200 5.4896 0.0240
16.5400 5.4963 0.0163
16.5600 5.5029 0.0065
16.5800 5.5095 0.0216
16.6000 5.5161 0.0177
16.6200 5.5228 0.0130
16.6400 5.5295 0.0220
16.6600 5.5362 0.0195
16.6800 5.5429 0.0065
16.7000 5.5496 0.0275
16.7200 5.5562 0.0210
16.7400 5.5629 0.0084
16.7600 5.5695 0.0241
16.7800 5.5762 0.0189
16.8000 5.5828 0.0128
16.8200 5.5895 0.0232
16.8400 5.5962 0.0196
16.8600 5.6029 0.0114
16.8800 5.6095 0.0188
16.9000 5.6162 0.0162
16.9200 5.6229 0.0213
16.9400 5.6295 0.0210
16.9600 5.6362 0.0155
16.9800 5.6428 0.0190
17.0000 5.6495 0.0234
17.0200 5.6563 0.0174
17.0400 5.6630 0.0239
17.0600 5.6696 0.0195
17.0800 5.6763 0.0183
17.1000 5.6829 0.0171
17.1200 5.6895 0.0210
17.1400 5.6962 0.0196
17.1600 5.7028 0.0239
17.1800 5.7095 0.0192
17.2000 5.7163 0.0169
17.2200 5.7229 0.0232
17.2400 5.7296 0.0195
17.2600 5.7363 0.0237
17.2800 5.7429 0.0184
17.3000 5.7496 0.0169
17.3200 5.7562 0.0216
17.3400 5.7628 0.0221
17.3600 5.7695 0.0181
17.3800 5.7762 0.0222
17.4000 5.7829 0.0194
17.4200 5.7896 0.0191
17.4400 5.7963 0.0201
17.4600 5.8029 0.0199
17.4800 5.8095 0.0181
17.5000 5.8161 0.0233
17.5200 5.8227 0.0193
17.5400 5.8294 0.0211
17.5600 5.8362 0.0230
17.5800 5.8429 0.0210
17.6000 5.8495 0.0209
17.6200 5.8562 0.0233
17.6400 5.8629 0.0171
17.6600 5.8695 0.0216
17.6800 5.8762 0.0233
17.7000 5.8828 0.0164
17.7200 5.8895 0.0231
17.7400 5.8962 0.0186
17.7600 5.9029 0.0196
17.7800 5.9096 0.0214
17.8000 5.9163 0.0249
17.8200 5.9230 0.0199
17.8400 5.9296 0.0229
17.8600 5.9362 0.0220
17.8800 5.9428 0.0223
17.9000 5.9495 0.0244
17.9200 5.9562 0.0187
17.9400 5.9629 0.0208
17.9600 5.9696 0.0219
17.9800 5.9763 0.0171
18.0000 5.9829 0.0218
18.0200 5.9895 0.0182
18.0400 5.9961 0.0199
18.0600 6.0028 0.0221
18.0800 6.0095 0.0187
18.1000 6.0162 0.0195
18.1200 6.0229 0.0205
18.1400 6.0296 0.0244
18.1600 6.0362 0.0198
18.1800 6.0429 0.0164
18.2000 6.0496 0.0183
18.2200 6.0562 0.0254
18.2400 6.0628 0.0191
18.2600 6.0695 0.0178
18.2800 6.0762 0.0227
18.3000 6.0829 0.0164
18.3200 6.0895 0.0193
18.3400 6.0962 0.0239
18.3600 6.1029 0.0171
18.3800 6.1095 0.0167
18.4000 6.1162 0.0221
18.4200 6.1228 0.0146
18.4400 6.1295 0.0179
18.4600 6.1362 0.0264
18.4800 6.1429 0.0083
18.5000 6.1496 0.0132
18.5200 6.1563 0.0298
18.5400 6.1629 0.0127
18.5600 6.1696 0.0113
18.5800 6.1762 0.0294
18.6000 6.1828 0.0130
18.6200 6.1895 0.0129
18.6400 6.1962 0.0290
18.6600 6.2029 0.0091
18.6800 6.2096 0.0171
18.7000 6.2163 0.0292
18.7200 6.2229 0.0083
18.7400 6.2296 0.0156
18.7600 6.2362 0.0284
18.7800 6.2428 0.0093
18.8000 6.2495 0.0183
18.8200 6.2562 0.0232
18.8400 6.2629 0.0118
18.8600 6.2695 0.0142
18.8800 6.2762 0.0287
18.9000 6.2829 0.0117
18.9200 6.2896 0.0122
18.9400 6.2962 0.0265
18.9600 6.3028 0.0161
18.9800 6.3095 0.0153
19.0000 6.3162 0.0223
19.0200 6.3229 0.0150
19.0400 6.3295 0.0123
19.0600 6.3362 0.0256
19.0800 6.3429 0.0147
19.1000 6.3495 0.0121
19.1200 6.3562 0.0247
19.1400 6.3628 0.0166
19.1600 6.3695 0.0096
19.1800 6.3762 0.0335
19.2000 6.3829 0.0148
19.2200 6.3896 0.0044
19.2400 6.3963 0.0312
19.2600 6.4029 0.0256
19.2800 6.4096 -0.0011
19.3000 6.4162 0.0188
19.3200 6.4228 0.0357
19.3400 6.4295 0.0071
19.3600 6.4362 0.0119
19.3800 6.4429 0.0280
19.4000 6.4495 0.0192
19.4200 6.4562 0.0142
19.4400 6.4629 0.0220
19.4600 6.4696 0.0193
19.4800 6.4762 0.0147
19.5000 6.4828 0.0220
19.5200 6.4895 0.0247
19.5400 6.4962 0.0122
19.5600 6.5029 0.0159
19.5800 6.5095 0.0297
19.6000 6.5162 0.0197
19.6200 6.5229 0.0014
19.6400 6.5296 0.0354
19.6600 6.5362 0.0247
19.6800 6.5428 -0.0008
19.7000 6.5494 0.0324
19.7200 6.5562 0.0312
19.7400 6.5629 0.0008
19.7600 6.5695 0.0209
19.7800 6.5762 0.0280
19.8000 6.5829 0.0130
19.8200 6.5895 0.0199
19.8400 6.5962 0.0240
19.8600 6.6028 0.0205
19.8800 6.6095 0.0216
19.9000 6.6162 0.0168
19.9200 6.6229 0.0199
19.9400 6.6296 0.0257
19.9600 6.6363 0.0208
19.9800 6.6430 0.0197
20.0000 6.6496 0.0215
20.0200 6.6562 0.0217
20.0400 6.6628 0.0216
20.0600 6.6695 0.0197
20.0800 6.6762 0.0255
20.1000 6.6829 0.0197
20.1200 6.6896 0.0172
20.1400 6.6963 0.0272
20.1600 6.7029 0.0169
20.1800 6.7096 0.0191
20.2000 6.7162 0.0307
20.2200 6.7228 0.0239
20.2400 6.7295 0.0101
20.2600 6.7362 0.0372
20.2800 6.7429 0.0288
20.3000 6.7495 0.0078
20.3200 6.7562 0.0327
20.3400 6.7629 0.0266
20.3600 6.7696 0.0128
20.3800 6.7762 0.0251
20.4000 6.7828 0.0305
20.4200 6.7895 0.0140
20.4400 6.7962 0.0230
20.4600 6.8029 0.0259
20.4800 6.8095 0.0212
20.5000 6.8162 0.0254
20.5200 6.8229 0.0255
20.5400 6.8296 0.0167
20.5600 6.8362 0.0216
20.5800 6.8428 0.0253
20.6000 6.8495 0.0235
20.6200 6.8562 0.0174
20.6400 6.8629 0.0262
20.6600 6.8696 0.0261
20.6800 6.8763 0.0213
20.7000 6.8830 0.0275
20.7200 6.8896 0.0227
20.7400 6.8962 0.0213
20.7600 6.9028 0.0267
20.7800 6.9095 0.0280
20.8000 6.9162 0.0140
20.8200 6.9229 0.0257
20.8400 6.9296 0.0283
20.8600 6.9362 0.0151
20.8800 6.9429 0.0284
20.9000 6.9496 0.0291
20.9200 6.9562 0.0122
20.9400 6.9629 0.0277
20.9600 6.9695 0.0251
20.9800 6.9762 0.0215
21.0000 6.9829 0.0245
21.0200 6.9895 0.0193
21.0400 6.9962 0.0219
21.0600 7.0029 0.0236
21.0800 7.0096 0.0174
21.1000 7.0162 0.0253
21.1200 7.0228 0.0279
21.1400 7.0294 0.0175
21.1600 7.0361 0.0319
21.1800 7.0428 0.0229
21.2000 7.0495 0.0157
21.2200 7.0562 0.0311
21.2400 7.0629 0.0243
21.2600 7.0695 0.0129
21.2800 7.0762 0.0318
21.3000 7.0828 0.0241
21.3200 7.0895 0.0212
21.3400 7.0962 0.0314
21.3600 7.1029 0.0205
21.3800 7.1096 0.0201
21.4000 7.1162 0.0368
21.4200 7.1229 0.0152
21.4400 7.1296 0.0203
21.4600 7.1362 0.0340
21.4800 7.1429 0.0183
21.5000 7.1495 0.0228
21.5200 7.1562 0.0276
21.5400 7.1629 0.0205
21.5600 7.1696 0.0213
21.5800 7.1762 0.0268
21.6000 7.1829 0.0200
21.6200 7.1896 0.0223
21.6400 7.1962 0.0283
21.6600 7.2028 0.0197
21.6800 7.2095 0.0266
21.7000 7.2162 0.0266
21.7200 7.2229 0.0187
21.7400 7.2296 0.0322
21.7600 7.2363 0.0226
21.7800 7.2429 0.0240
21.8000 7.2496 0.0272
21.8200 7.2562 0.0219
21.8400 7.2628 0.0281
21.8600 7.2695 0.0302
21.8800 7.2761 0.0179
21.9000 7.2829 0.0238
21.9200 7.2895 0.0295
21.9400 7.2962 0.0205
21.9600 7.3029 0.0256
21.9800 7.3095 0.0271
22.0000 7.3162 0.0222
22.0200 7.3228 0.0317
22.0400 7.3295 0.0226
22.0600 7.3362 0.0215
22.0800 7.3429 0.0346
22.1000 7.3496 0.0171
22.1200 7.3563 0.0248
22.1400 7.3630 0.0247
22.1600 7.3696 0.0269
22.1800 7.3762 0.0211
22.2000 7.3828 0.0222
22.2200 7.3895 0.0247
22.2400 7.3962 0.0273
22.2600 7.4029 0.0200
22.2800 7.4096 0.0228
22.3000 7.4163 0.0308
22.3200 7.4229 0.0201
22.3400 7.4296 0.0216
22.3600 7.4362 0.0335
22.3800 7.4428 0.0152
22.4000 7.4495 0.0278
22.4200 7.4561 0.0312
22.4400 7.4628 0.0111
22.4600 7.4695 0.0301
22.4800 7.4762 0.0313
22.5000 7.4829 0.0208
22.5200 7.4896 0.0261
22.5400 7.4962 0.0236
22.5600 7.5028 0.0190
22.5800 7.5094 0.0319
22.6000 7.5161 0.0204
22.6200 7.5228 0.0235
22.6400 7.5296 0.0320
22.6600 7.5362 0.0171
22.6800 7.5429 0.0200
22.7000 7.5496 0.0374
22.7200 7.5562 0.0185
22.7400 7.5628 0.0247
22.7600 7.5695 0.0281
22.7800 7.5762 0.0203
22.8000 7.5829 0.0268
22.8200 7.5896 0.0317
22.8400 7.5962 0.0229
22.8600 7.6029 0.0210
22.8800 7.6096 0.0311
22.9000 7.6163 0.0224
22.9200 7.6229 0.0303
22.9400 7.6295 0.0288
22.9600 7.6362 0.0229
22.9800 7.6429 0.0284
23.0000 7.6496 0.0293
23.0200 7.6563 0.0273
23.0400 7.6629 0.0273
23.0600 7.6696 0.0254
23.0800 7.6763 0.0266
23.1000 7.6829 0.0278
23.1200 7.6895 0.0306
23.1400 7.6961 0.0233
23.1600 7.7029 0.0280
23.1800 7.7096 0.0339
23.2000 7.7163 0.0236
23.2200 7.7229 0.0256
23.2400 7.7296 0.0328
23.2600 7.7362 0.0223
23.2800 7.7428 0.0272
23.3000 7.7494 0.0407
23.3200 7.7561 0.0209
23.3400 7.7628 0.0276
23.3600 7.7695 0.0360
23.3800 7.7762 0.0239
23.4000 7.7828 0.0264
23.4200 7.7895 0.0430
23.4400 7.7962 0.0197
23.4600 7.8028 0.0291
23.4800 7.8095 0.0378
23.5000 7.8162 0.0273
23.5200 7.8229 0.0321
23.5400 7.8296 0.0327
23.5600 7.8363 0.0203
23.5800 7.8429 0.0330
23.6000 7.8496 0.0307
23.6200 7.8563 0.0213
23.6400 7.8629 0.0376
23.6600 7.8695 0.0295
23.6800 7.8762 0.0252
23.7000 7.8829 0.0366
23.7200 7.8896 0.0248
23.7400 7.8963 0.0311
23.7600 7.9030 0.0327
23.7800 7.9096 0.0256
23.8000 7.9163 0.0323
23.8200 7.9228 0.0295
23.8400 7.9295 0.0294
23.8600 7.9361 0.0283
23.8800 7.9429 0.0305
23.9000 7.9496 0.0292
23.9200 7.9562 0.0314
23.9400 7.9629 0.0271
23.9600 7.9696 0.0280
23.9800 7.9763 0.0324
24.0000 7.9829 0.0218
24.0200 7.9895 0.0304
24.0400 7.9962 0.0372
24.0600 8.0029 0.0187
24.0800 8.0095 0.0301
24.1000 8.0162 0.0364
24.1200 8.0229 0.0197
24.1400 8.0296 0.0341
24.1600 8.0362 0.0291
24.1800 8.0428 0.0220
24.2000 8.0494 0.0340
24.2200 8.0561 0.0272
24.2400 8.0628 0.0208
24.2600 8.0696 0.0340
24.2800 8.0763 0.0304
24.3000 8.0830 0.0222
24.3200 8.0896 0.0261
24.3400 8.0963 0.0287
24.3600 8.1029 0.0258
24.3800 8.1095 0.0333
24.4000 8.1162 0.0240
24.4200 8.1229 0.0246
24.4400 8.1296 0.0266
24.4600 8.1363 0.0258
24.4800 8.1429 0.0262
24.5000 8.1496 0.0268
24.5200 8.1563 0.0234
24.5400 8.1629 0.0234
24.5600 8.1695 0.0330
24.5800 8.1761 0.0221
24.6000 8.1828 0.0236
24.6200 8.1895 0.0288
24.6400 8.1962 0.0232
24.6600 8.2029 0.0225
24.6800 8.2096 0.0261
24.7000 8.2162 0.0205
24.7200 8.2228 0.0208
24.7400 8.2294 0.0323
24.7600 8.2361 0.0216
24.7800 8.2428 0.0229
24.8000 8.2496 0.0291
24.8200 8.2562 0.0132
24.8400 8.2629 0.0279
24.8600 8.2696 0.0342
24.8800 8.2762 0.0142
24.9000 8.2829 0.0199
24.9200 8.2895 0.0331
24.9400 8.2961 0.0226
24.9600 8.3029 0.0253
24.9800 8.3096 0.0304
25.0000 8.3162 0.0165
25.0200 8.3229 0.0281
25.0400 8.3296 0.0266
25.0600 8.3363 0.0179
25.0800 8.3429 0.0289
25.1000 8.3495 0.0221
25.1200 8.3561 0.0156
25.1400 8.3628 0.0321
25.1600 8.3695 0.0264
25.1800 8.3762 0.0216
25.2000 8.3829 0.0240
25.2200 8.3896 0.0248
25.2400 8.3963 0.0220
25.2600 8.4029 0.0340
25.2800 8.4095 0.0217
25.3000 8.4161 0.0247
25.3200 8.4229 0.0305
25.3400 8.4296 0.0160
25.3600 8.4362 0.0282
25.3800 8.4429 0.0313
25.4000 8.4496 0.0235
25.4200 8.4563 0.0233
25.4400 8.4629 0.0251
25.4600 8.4695 0.0278
25.4800 8.4761 0.0291
25.5000 8.4828 0.0254
25.5200 8.4895 0.0303
25.5400 8.4962 0.0270
25.5600 8.5029 0.0238
25.5800 8.5095 0.0246
25.6000 8.5162 0.0300
25.6200 8.5228 0.0265
25.6400 8.5295 0.0308
25.6600 8.5361 0.0223
25.6800 8.5428 0.0237
25.7000 8.5496 0.0291
25.7200 8.5563 0.0277
25.7400 8.5630 0.0274
25.7600 8.5697 0.0272
25.7800 8.5763 0.0282
25.8000 8.5829 0.0270
25.8200 8.5895 0.0302
25.8400 8.5962 0.0277
25.8600 8.6029 0.0249
25.8800 8.6096 0.0272
25.9000 8.6163 0.0314
25.9200 8.6230 0.0280
25.9400 8.6296 0.0291
25.9600 8.6363 0.0301
25.9800 8.6429 0.0230
26.0000 8.6495 0.0209
26.0200 8.6561 0.0404
26.0400 8.6628 0.0260
26.0600 8.6695 0.0195
26.0800 8.6762 0.0278
26.1000 8.6829 0.0274
26.1200 8.6896 0.0250
26.1400 8.6962 0.0293
26.1600 8.7029 0.0248
26.1800 8.7095 0.0234
26.2000 8.7161 0.0365
26.2200 8.7228 0.0289
26.2400 8.7295 0.0229
26.2600 8.7362 0.0319
26.2800 8.7429 0.0247
26.3000 8.7496 0.0238
26.3200 8.7562 0.0328
26.3400 8.7629 0.0228
26.3600 8.7695 0.0232
26.3800 8.7761 0.0290
26.4000 8.7828 0.0257
26.4200 8.7896 0.0216
26.4400 8.7963 0.0308
26.4600 8.8030 0.0236
26.4800 8.8096 0.0216
26.5000 8.8163 0.0310
26.5200 8.8229 0.0298
26.5400 8.8295 0.0208
26.5600 8.8362 0.0329
26.5800 8.8429 0.0259
26.6000 8.8496 0.0209
26.6200 8.8563 0.0324
26.6400 8.8629 0.0256
26.6600 8.8696 0.0177
26.6800 8.8763 0.0283
26.7000 8.8829 0.0256
26.7200 8.8895 0.0223
26.7400 8.8961 0.0299
26.7600 8.9028 0.0256
26.7800 8.9095 0.0251
26.8000 8.9162 0.0275
26.8200 8.9229 0.0243
26.8400 8.9296 0.0216
26.8600 8.9362 0.0286
26.8800 8.9429 0.0261
26.9000 8.9495 0.0207
26.9200 8.9561 0.0250
26.9400 8.9628 0.0277
26.9600 8.9695 0.0222
26.9800 8.9762 0.0329
27.0000 8.9829 0.0241
27.0200 8.9896 0.0208
27.0400 8.9962 0.0313
27.0600 9.0029 0.0264
27.0800 9.0095 0.0220
27.1000 9.0161 0.0303
27.1200 9.0228 0.0281
27.1400 9.0295 0.0193
27.1600 9.0362 0.0292
27.1800 9.0429 0.0285
27.2000 9.0496 0.0260
27.2200 9.0563 0.0283
27.2400 9.0629 0.0262
27.2600 9.0695 0.0240
27.2800 9.0761 0.0281
27.3000 9.0829 0.0286
27.3200 9.0896 0.0232
27.3400 9.0963 0.0258
27.3600 9.1029 0.0305
27.3800 9.1096 0.0289
27.4000 9.1163 0.0302
27.4200 9.1229 0.0254
27.4400 9.1295 0.0313
27.4600 9.1361 0.0300
27.4800 9.1428 0.0219
27.5000 9.1496 0.0314
27.5200 9.1562 0.0284
27.5400 9.1629 0.0241
27.5600 9.1696 0.0273
27.5800 9.1763 0.0271
27.6000 9.1829 0.0263
27.6200 9.1895 0.0244
27.6400 9.1961 0.0266
27.6600 9.2028 0.0297
27.6800 9.2095 0.0286
27.7000 9.2162 0.0301
27.7200 9.2229 0.0275
27.7400 9.2296 0.0309
27.7600 9.2363 0.0239
27.7800 9.2429 0.0288
27.8000 9.2495 0.0274
27.8200 9.2561 0.0247
27.8400 9.2628 0.0339
27.8600 9.2695 0.0243
27.8800 9.2763 0.0231
27.9000 9.2830 0.0342
27.9200 9.2896 0.0242
27.9400 9.2963 0.0241
27.9600 9.3029 0.0324
27.9800 9.3095 0.0267
28.0000 9.3161 0.0272
28.0200 9.3229 0.0282
28.0400 9.3296 0.0272
28.0600 9.3363 0.0272
28.0800 9.3429 0.0312
28.1000 9.3496 0.0251
28.1200 9.3563 0.0279
28.1400 9.3629 0.0274
28.1600 9.3695 0.0276
28.1800 9.3761 0.0314
28.2000 9.3828 0.0310
28.2200 9.3895 0.0261
28.2400 9.3962 0.0301
28.2600 9.4029 0.0276
28.2800 9.4096 0.0262
28.3000 9.4163 0.0305
28.3200 9.4229 0.0307
28.3400 9.4295 0.0265
28.3600 9.4361 0.0334
28.3800 9.4428 0.0273
28.4000 9.4495 0.0251
28.4200 9.4562 0.0374
28.4400 9.4629 0.0269
28.4600 9.4696 0.0305
28.4800 9.4762 0.0359
28.5000 9.4829 0.0261
28.5200 9.4895 0.0311
28.5400 9.4961 0.0350
28.5600 9.5028 0.0249
28.5800 9.5095 0.0303
28.6000 9.5162 0.0397
28.6200 9.5229 0.0297
28.6400 9.5296 0.0157
28.6600 9.5363 0.0426
28.6800 9.5429 0.0378
28.7000 9.5496 0.0223
28.7200 9.5562 0.0334
28.7400 9.5628 0.0324
28.7600 9.5696 0.0306
28.7800 9.5763 0.0297
28.8000 9.5829 0.0354
28.8200 9.5896 0.0307
28.8400 9.5963 0.0202
28.8600 9.6029 0.0391
28.8800 9.6095 0.0389
28.9000 9.6161 0.0252
28.9200 9.6228 0.0297
28.9400 9.6295 0.0396
28.9600 9.6362 0.0398
28.9800 9.6429 0.0238
29.0000 9.6496 0.0329
29.0200 9.6562 0.0387
29.0400 9.6629 0.0321
29.0600 9.6695 0.0279
29.0800 9.6761 0.0372
29.1000 9.6828 0.0335
29.1200 9.6895 0.0322
29.1400 9.6962 0.0422
29.1600 9.7029 0.0299
29.1800 9.7095 0.0319
29.2000 9.7162 0.0336
29.2200 9.7229 0.0284
29.2400 9.7295 0.0424
29.2600 9.7362 0.0316
29.2800 9.7428 0.0361
29.3000 9.7495 0.0400
29.3200 9.7562 0.0200
29.3400 9.7629 0.0399
29.3600 9.7696 0.0459
29.3800 9.7763 0.0237
29.4000 9.7830 0.0256
29.4200 9.7895 0.0476
29.4400 9.7961 0.0287
29.4600 9.8028 0.0281
29.4800 9.8095 0.0496
29.5000 9.8162 0.0272
29.5200 9.8229 0.0243
29.5400 9.8296 0.0468
29.5600 9.8363 0.0362
29.5800 9.8429 0.0253
29.6000 9.8495 0.0386
29.6200 9.8562 0.0395
29.6400 9.8628 0.0272
29.6600 9.8695 0.0419
29.6800 9.8762 0.0376
29.7000 9.8829 0.0244
29.7200 9.8896 0.0387
29.7400 9.8962 0.0375
29.7600 9.9029 0.0296
29.7800 9.9095 0.0297
29.8000 9.9161 0.0391
29.8200 9.9227 0.0365
29.8400 9.9295 0.0367
29.8600 9.9362 0.0321
29.8800 9.9429 0.0311
29.9000 9.9495 0.0389
29.9200 9.9562 0.0329
29.9400 9.9629 0.0289
29.9600 9.9695 0.0420
29.9800 9.9761 0.0347
30.0000 9.9828 0.0338
30.0200 9.9895 0.0354
30.0400 9.9962 0.0334
30.0600 10.0029 0.0338
30.0800 10.0096 0.0362
30.1000 10.0163 0.0351
30.1200 10.0229 0.0322
30.1400 10.0296 0.0386
30.1600 10.0362 0.0348
30.1800 10.0429 0.0311
30.2000 10.0495 0.0360
30.2200 10.0562 0.0381
30.2400 10.0629 0.0316
30.2600 10.0696 0.0300
30.2800 10.0763 0.0365
30.3000 10.0829 0.0357
30.3200 10.0895 0.0333
30.3400 10.0961 0.0369
30.3600 10.1028 0.0297
30.3800 10.1095 0.0412
30.4000 10.1162 0.0300
30.4200 10.1229 0.0268
30.4400 10.1296 0.0428
30.4600 10.1362 0.0297
30.4800 10.1429 0.0284
30.5000 10.1495 0.0411
30.5200 10.1561 0.0288
30.5400 10.1628 0.0320
30.5600 10.1695 0.0373
30.5800 10.1762 0.0235
30.6000 10.1829 0.0373
30.6200 10.1896 0.0388
30.6400 10.1962 0.0179
30.6600 10.2029 0.0358
30.6800 10.2096 0.0393
30.7000 10.2162 0.0212
30.7200 10.2228 0.0401
30.7400 10.2295 0.0327
30.7600 10.2362 0.0253
30.7800 10.2429 0.0361
30.8000 10.2496 0.0296
30.8200 10.2563 0.0322
30.8400 10.2630 0.0384
30.8600 10.2696 0.0242
30.8800 10.2762 0.0313
30.9000 10.2828 0.0433
30.9200 10.2895 0.0301
30.9400 10.2962 0.0283
30.9600 10.3029 0.0356
30.9800 10.3096 0.0304
31.0000 10.3163 0.0269
31.0200 10.3229 0.0389
31.0400 10.3295 0.0365
31.0600 10.3361 0.0275
31.0800 10.3428 0.0313
31.1000 10.3495 0.0357
31.1200 10.3562 0.0311
31.1400 10.3629 0.0358
31.1600 10.3695 0.0308
31.1800 10.3762 0.0303
31.2000 10.3829 0.0351
31.2200 10.3895 0.0327
31.2400 10.3962 0.0252
31.2600 10.4028 0.0362
31.2800 10.4095 0.0287
31.3000 10.4162 0.0322
31.3200 10.4229 0.0387
31.3400 10.4296 0.0282
31.3600 10.4362 0.0311
31.3800 10.4429 0.0384
31.4000 10.4496 0.0289
31.4200 10.4562 0.0350
31.4400 10.4628 0.0387
31.4600 10.4695 0.0285
31.4800 10.4762 0.0324
31.5000 10.4829 0.0341
31.5200 10.4896 0.0345
31.5400 10.4963 0.0303
31.5600 10.5029 0.0337
31.5800 10.5096 0.0326
31.6000 10.5162 0.0353
31.6200 10.5228 0.0296
31.6400 10.5295 0.0371
31.6600 10.5362 0.0325
31.6800 10.5429 0.0289
31.7000 10.5496 0.0379
31.7200 10.5563 0.0328
31.7400 10.5630 0.0276
31.7600 10.5696 0.0414
31.7800 10.5762 0.0319
31.8000 10.5828 0.0318
31.8200 10.5895 0.0394
31.8400 10.5962 0.0308
31.8600 10.6029 0.0301
31.8800 10.6096 0.0417
31.9000 10.6163 0.0302
31.9200 10.6229 0.0294
31.9400 10.6295 0.0384
31.9600 10.6361 0.0280
31.9800 10.6428 0.0371
32.0000 10.6494 0.0381
32.0200 10.6562 0.0318
32.0400 10.6629 0.0309
32.0600 10.6696 0.0377
32.0800 10.6762 0.0350
32.1000 10.6829 0.0334
32.1200 10.6896 0.0395
32.1400 10.6962 0.0293
32.1600 10.7028 0.0332
32.1800 10.7095 0.0418
32.2000 10.7162 0.0283
32.2200 10.7229 0.0338
32.2400 10.7296 0.0394
32.2600 10.7363 0.0343
32.2800 10.7430 0.0334
32.3000 10.7496 0.0401
32.3200 10.7562 0.0350
32.3400 10.7628 0.0319
32.3600 10.7695 0.0419
32.3800 10.7762 0.0328
32.4000 10.7829 0.0353
32.4200 10.7896 0.0364
32.4400 10.7963 0.0313
32.4600 10.8029 0.0347
32.4800 10.8096 0.0393
32.5000 10.8162 0.0308
32.5200 10.8228 0.0385
32.5400 10.8295 0.0401
32.5600 10.8362 0.0291
32.5800 10.8429 0.0415
32.6000 10.8496 0.0455
32.6200 10.8562 0.0232
32.6400 10.8629 0.0439
32.6600 10.8696 0.0424
32.6800 10.8762 0.0279
32.7000 10.8828 0.0489
32.7200 10.8895 0.0371
32.7400 10.8962 0.0253
32.7600 10.9029 0.0442
32.7800 10.9095 0.0373
32.8000 10.9162 0.0285
32.8200 10.9229 0.0459
32.8400 10.9296 0.0321
32.8600 10.9362 0.0305
32.8800 10.9428 0.0457
32.9000 10.9495 0.0321
32.9200 10.9562 0.0320
32.9400 10.9629 0.0456
32.9600 10.9696 0.0289
32.9800 10.9763 0.0399
33.0000 10.9829 0.0373
33.0200 10.9896 0.0287
33.0400 10.9962 0.0439
33.0600 11.0028 0.0346
33.0800 11.0095 0.0322
33.1000 11.0162 0.0424
33.1200 11.0229 0.0351
33.1400 11.0296 0.0313
33.1600 11.0363 0.0412
33.1800 11.0430 0.0316
33.2000 11.0496 0.0299
33.2200 11.0562 0.0465
33.2400 11.0628 0.0253
33.2600 11.0695 0.0323
33.2800 11.0762 0.0463
33.3000 11.0829 0.0221
33.3200 11.0896 0.0390
33.3400 11.0962 0.0407
33.3600 11.1029 0.0263
33.3800 11.1096 0.0364
33.4000 11.1162 0.0414
33.4200 11.1228 0.0284
33.4400 11.1295 0.0400
33.4600 11.1362 0.0372
33.4800 11.1429 0.0275
33.5000 11.1495 0.0407
33.5200 11.1562 0.0342
33.5400 11.1629 0.0279
33.5600 11.1696 0.0402
33.5800 11.1762 0.0328
33.6000 11.1828 0.0340
33.6200 11.1895 0.0400
33.6400 11.1962 0.0287
33.6600 11.2029 0.0346
33.6800 11.2096 0.0370
33.7000 11.2163 0.0310
33.7200 11.2230 0.0345
33.7400 11.2296 0.0388
33.7600 11.2362 0.0292
33.7800 11.2428 0.0398
33.8000 11.2495 0.0329
33.8200 11.2562 0.0348
33.8400 11.2629 0.0385
33.8600 11.2696 0.0326
33.8800 11.2762 0.0316
33.9000 11.2829 0.0381
33.9200 11.2896 0.0314
33.9400 11.2962 0.0346
33.9600 11.3028 0.0338
33.9800 11.3094 0.0321
34.0000 11.3161 0.0354
34.0200 11.3229 0.0347
34.0400 11.3296 0.0332
34.0600 11.3363 0.0358
34.0800 11.3430 0.0374
34.1000 11.3496 0.0272
34.1200 11.3562 0.0394
34.1400 11.3628 0.0409
34.1600 11.3694 0.0313
34.1800 11.3761 0.0375
34.2000 11.3829 0.0350
34.2200 11.3896 0.0280
34.2400 11.3962 0.0435
34.2600 11.4029 0.0336
34.2800 11.4096 0.0281
34.3000 11.4162 0.0427
34.3200 11.4228 0.0350
34.3400 11.4295 0.0291
34.3600 11.4362 0.0450
34.3800 11.4429 0.0319
34.4000 11.4496 0.0328
34.4200 11.4563 0.0382
34.4400 11.4630 0.0302
34.4600 11.4696 0.0330
34.4800 11.4762 0.0395
34.5000 11.4828 0.0332
34.5200 11.4895 0.0360
34.5400 11.4962 0.0387
34.5600 11.5029 0.0312
34.5800 11.5096 0.0380
34.6000 11.5163 0.0361
34.6200 11.5229 0.0354
34.6400 11.5296 0.0342
34.6600 11.5362 0.0361
34.6800 11.5428 0.0324
34.7000 11.5495 0.0393
34.7200 11.5562 0.0341
34.7400 11.5629 0.0336
34.7600 11.5695 0.0351
34.7800 11.5762 0.0322
34.8000 11.5829 0.0420
34.8200 11.5895 0.0354
34.8400 11.5962 0.0285
34.8600 11.6028 0.0448
34.8800 11.6094 0.0320
34.9000 11.6161 0.0318
34.9200 11.6229 0.0419
34.9400 11.6296 0.0276
34.9600 11.6362 0.0388
34.9800 11.6429 0.0350
35.0000 11.6496 0.0259
35.0200 11.6562 0.0402
35.0400 11.6628 0.0431
35.0600 11.6695 0.0251
35.0800 11.6762 0.0402
35.1000 11.6829 0.0372
35.1200 11.6896 0.0240
35.1400 11.6963 0.0422
35.1600 11.7029 0.0373
35.1800 11.7096 0.0270
35.2000 11.7162 0.0429
35.2200 11.7228 0.0323
35.2400 11.7295 0.0309
35.2600 11.7362 0.0469
35.2800 11.7429 0.0347
35.3000 11.7496 0.0211
35.3200 11.7563 0.0449
35.3400 11.7629 0.0382
35.3600 11.7696 0.0269
35.3800 11.7763 0.0428
35.4000 11.7829 0.0343
35.4200 11.7895 0.0344
35.4400 11.7962 0.0388
35.4600 11.8029 0.0344
35.4800 11.8095 0.0375
35.5000 11.8162 0.0409
35.5200 11.8229 0.0301
35.5400 11.8296 0.0354
35.5600 11.8362 0.0342
35.5800 11.8428 0.0373
35.6000 11.8494 0.0335
35.6200 11.8561 0.0375
35.6400 11.8629 0.0371
35.6600 11.8695 0.0310
35.6800 11.8762 0.0370
35.7000 11.8829 0.0400
35.7200 11.8896 0.0345
35.7400 11.8962 0.0353
35.7600 11.9028 0.0378
35.7800 11.9095 0.0348
35.8000 11.9161 0.0372
35.8200 11.9229 0.0361
35.8400 11.9296 0.0314
35.8600 11.9362 0.0391
35.8800 11.9429 0.0381
35.9000 11.9496 0.0331
35.9200 11.9563 0.0432
35.9400 11.9629 0.0342
35.9600 11.9695 0.0400
35.9800 11.9762 0.0424
36.0000 11.9829 0.0373
36.0200 11.9896 0.0332
36.0400 11.9963 0.0425
36.0600 12.0030 0.0325
36.0800 12.0096 0.0351
36.1000 12.0162 0.0414
36.1200 12.0228 0.0406
36.1400 12.0294 0.0383
36.1600 12.0362 0.0413
36.1800 12.0429 0.0355
36.2000 12.0496 0.0349
36.2200 12.0562 0.0409
36.2400 12.0629 0.0353
36.2600 12.0696 0.0367
36.2800 12.0762 0.0374
36.3000 12.0828 0.0366
36.3200 12.0895 0.0368
36.3400 12.0961 0.0364
36.3600 12.1028 0.0347
36.3800 12.1095 0.0387
36.4000 12.1162 0.0334
36.4200 12.1229 0.0415
36.4400 12.1296 0.0381
36.4600 12.1362 0.0337
36.4800 12.1429 0.0377
36.5000 12.1495 0.0399
36.5200 12.1562 0.0310
36.5400 12.1629 0.0386
36.5600 12.1696 0.0392
36.5800 12.1763 0.0329
36.6000 12.1830 0.0378
36.6200 12.1896 0.0360
36.6400 12.1962 0.0355
36.6600 12.2028 0.0382
36.6800 12.2095 0.0397
36.7000 12.2162 0.0320
36.7200 12.2229 0.0373
36.7400 12.2296 0.0370
36.7600 12.2363 0.0320
36.7800 12.2429 0.0388
36.8000 12.2496 0.0377
36.8200 12.2562 0.0303
36.8400 12.2628 0.0429
36.8600 12.2695 0.0398
36.8800 12.2762 0.0308
36.9000 12.2829 0.0416
36.9200 12.2895 0.0366
36.9400 12.2962 0.0276
36.9600 12.3029 0.0448
36.9800 12.3096 0.0326
37.0000 12.3162 0.0338
37.0200 12.3228 0.0457
37.0400 12.3294 0.0286
37.0600 12.3361 0.0372
37.0800 12.3428 0.0427
37.1000 12.3496 0.0282
37.1200 12.3562 0.0349
37.1400 12.3629 0.0436
37.1600 12.3696 0.0294
37.1800 12.3762 0.0361
37.2000 12.3828 0.0424
37.2200 12.3895 0.0311
37.2400 12.3962 0.0375
37.2600 12.4029 0.0412
37.2800 12.4096 0.0231
37.3000 12.4163 0.0424
37.3200 12.4229 0.0396
37.3400 12.4296 0.0271
37.3600 12.4363 0.0357
37.3800 12.4429 0.0383
37.4000 12.4495 0.0317
37.4200 12.4562 0.0374
37.4400 12.4629 0.0347
37.4600 12.4696 0.0314
37.4800 12.4762 0.0379
37.5000 12.4829 0.0399
37.5200 12.4896 0.0334
37.5400 12.4963 0.0407
37.5600 12.5029 0.0364
37.5800 12.5095 0.0312
37.6000 12.5161 0.0401
37.6200 12.5228 0.0375
37.6400 12.5295 0.0365
37.6600 12.5362 0.0338
37.6800 12.5429 0.0328
37.7000 12.5496 0.0363
37.7200 12.5562 0.0366
37.7400 12.5628 0.0318
37.7600 12.5694 0.0438
37.7800 12.5761 0.0329
37.8000 12.5828 0.0360
37.8200 12.5895 0.0341
37.8400 12.5962 0.0356
37.8600 12.6029 0.0379
37.8800 12.6095 0.0322
37.9000 12.6162 0.0336
37.9200 12.6228 0.0346
37.9400 12.6295 0.0368
37.9600 12.6361 0.0377
37.9800 12.6429 0.0339
38.0000 12.6496 0.0320
38.0200 12.6563 0.0367
38.0400 12.6629 0.0340
38.0600 12.6696 0.0381
38.0800 12.6763 0.0354
38.1000 12.6829 0.0357
38.1200 12.6895 0.0375
38.1400 12.6962 0.0363
38.1600 12.7029 0.0346
38.1800 12.7096 0.0392
38.2000 12.7163 0.0334
38.2200 12.7229 0.0354
38.2400 12.7296 0.0370
38.2600 12.7363 0.0306
38.2800 12.7428 0.0321
38.3000 12.7495 0.0452
38.3200 12.7561 0.0262
38.3400 12.7629 0.0372
38.3600 12.7696 0.0450
38.3800 12.7762 0.0269
38.4000 12.7829 0.0353
38.4200 12.7896 0.0440
38.4400 12.7963 0.0283
38.4600 12.8029 0.0309
38.4800 12.8095 0.0472
38.5000 12.8161 0.0289
38.5200 12.8228 0.0391
38.5400 12.8295 0.0395
38.5600 12.8362 0.0338
38.5800 12.8429 0.0378
38.6000 12.8496 0.0364
38.6200 12.8562 0.0331
38.6400 12.8629 0.0405
38.6600 12.8695 0.0339
38.6800 12.8761 0.0339
38.7000 12.8828 0.0400
38.7200 12.8896 0.0358
38.7400 12.8963 0.0343
38.7600 12.9030 0.0381
38.7800 12.9096 0.0335
38.8000 12.9162 0.0332
38.8200 12.9229 0.0366
38.8400 12.9295 0.0350
38.8600 12.9362 0.0385
38.8800 12.9429 0.0383
38.9000 12.9496 0.0313
38.9200 12.9563 0.0380
38.9400 12.9629 0.0392
38.9600 12.9696 0.0302
38.9800 12.9763 0.0394
39.0000 12.9829 0.0389
39.0200 12.9895 0.0347
39.0400 12.9962 0.0365
39.0600 13.0028 0.0430
39.0800 13.0095 0.0308
39.1000 13.0162 0.0377
39.1200 13.0229 0.0415
39.1400 13.0296 0.0363
39.1600 13.0362 0.0363
39.1800 13.0429 0.0340
39.2000 13.0495 0.0382
39.2200 13.0561 0.0376
39.2400 13.0628 0.0335
39.2600 13.0695 0.0389
39.2800 13.0762 0.0410
39.3000 13.0829 0.0315
39.3200 13.0896 0.0412
39.3400 13.0963 0.0436
39.3600 13.1029 0.0320
39.3800 13.1095 0.0447
39.4000 13.1162 0.0424
39.4200 13.1229 0.0277
39.4400 13.1296 0.0475
39.4600 13.1362 0.0429
39.4800 13.1429 0.0314
39.5000 13.1496 0.0442
39.5200 13.1562 0.0454
39.5400 13.1629 0.0281
39.5600 13.1695 0.0392
39.5800 13.1761 0.0494
39.6000 13.1828 0.0351
39.6200 13.1895 0.0376
39.6400 13.1962 0.0439
39.6600 13.2029 0.0349
39.6800 13.2096 0.0368
39.7000 13.2163 0.0413
39.7200 13.2229 0.0330
39.7400 13.2295 0.0400
39.7600 13.2362 0.0450
39.7800 13.2429 0.0346
39.8000 13.2496 0.0381
39.8200 13.2563 0.0474
39.8400 13.2629 0.0363
39.8600 13.2696 0.0372
39.8800 13.2763 0.0424
39.9000 13.2829 0.0365
39.9200 13.2895 0.0350
39.9400 13.2961 0.0489
39.9600 13.3028 0.0346
39.9800 13.3095 0.0342
40.0000 13.3162 0.0445
40.0200 13.3229 0.0328
40.0400 13.3295 0.0356
40.0600 13.3362 0.0448
40.0800 13.3429 0.0286
40.1000 13.3495 0.0386
40.1200 13.3561 0.0494
40.1400 13.3628 0.0322
40.1600 13.3695 0.0405
40.1800 13.3762 0.0420
40.2000 13.3830 0.0312
40.2200 13.3897 0.0381
40.2400 13.3963 0.0416
40.2600 13.4029 0.0280
40.2800 13.4095 0.0444
40.3000 13.4161 0.0415
40.3200 13.4228 0.0280
40.3400 13.4296 0.0480
40.3600 13.4363 0.0360
40.3800 13.4429 0.0312
40.4000 13.4496 0.0457
40.4200 13.4563 0.0329
40.4400 13.4629 0.0369
40.4600 13.4695 0.0404
40.4800 13.4761 0.0361
40.5000 13.4828 0.0389
40.5200 13.4895 0.0392
40.5400 13.4962 0.0359
40.5600 13.5029 0.0377
40.5800 13.5096 0.0368
40.6000 13.5162 0.0382
40.6200 13.5229 0.0380
40.6400 13.5295 0.0353
40.6600 13.5361 0.0439
40.6800 13.5428 0.0341
40.7000 13.5495 0.0392
40.7200 13.5562 0.0435
40.7400 13.5629 0.0326
40.7600 13.5696 0.0364
40.7800 13.5762 0.0420
40.8000 13.5829 0.0267
40.8200 13.5895 0.0422
40.8400 13.5961 0.0452
40.8600 13.6028 0.0304
40.8800 13.6095 0.0408
40.9000 13.6163 0.0415
40.9200 13.6229 0.0298
40.9400 13.6296 0.0418
40.9600 13.6363 0.0419
40.9800 13.6429 0.0345
41.0000 13.6495 0.0423
41.0200 13.6562 0.0413
41.0400 13.6629 0.0347
41.0600 13.6695 0.0395
41.0800 13.6762 0.0415
41.1000 13.6829 0.0362
41.1200 13.6896 0.0421
41.1400 13.6963 0.0421
41.1600 13.7029 0.0328
41.1800 13.7095 0.0374
41.2000 13.7161 0.0499
41.2200 13.7228 0.0347
41.2400 13.7295 0.0370
41.2600 13.7362 0.0483
41.2800 13.7429 0.0380
41.3000 13.7496 0.0374
41.3200 13.7562 0.0476
41.3400 13.7629 0.0345
41.3600 13.7695 0.0373
41.3800 13.7761 0.0478
41.4000 13.7828 0.0362
41.4200 13.7895 0.0376
41.4400 13.7962 0.0511
41.4600 13.8029 0.0309
41.4800 13.8096 0.0377
41.5000 13.8163 0.0506
41.5200 13.8229 0.0288
41.5400 13.8295 0.0425
41.5600 13.8361 0.0461
41.5800 13.8428 0.0338
41.6000 13.8495 0.0446
41.6200 13.8562 0.0431
41.6400 13.8629 0.0330
41.6600 13.8696 0.0462
41.6800 13.8763 0.0394
41.7000 13.8829 0.0292
41.7200 13.8895 0.0480
41.7400 13.8961 0.0392
41.7600 13.9028 0.0297
41.7800 13.9095 0.0524
41.8000 13.9163 0.0321
41.8200 13.9230 0.0377
41.8400 13.9296 0.0486
41.8600 13.9363 0.0310
41.8800 13.9429 0.0381
41.9000 13.9495 0.0444
41.9200 13.9561 0.0368
41.9400 13.9628 0.0413
41.9600 13.9695 0.0430
41.9800 13.9762 0.0337
42.0000 13.9829 0.0415
42.0200 13.9896 0.0376
42.0400 13.9963 0.0361
42.0600 14.0029 0.0440
42.0800 14.0095 0.0343
42.1000 14.0161 0.0352
42.1200 14.0228 0.0439
42.1400 14.0295 0.0353
42.1600 14.0362 0.0397
42.1800 14.0429 0.0382
42.2000 14.0496 0.0321
42.2200 14.0563 0.0426
42.2400 14.0629 0.0335
42.2600 14.0695 0.0309
42.2800 14.0761 0.0487
42.3000 14.0828 0.0321
42.3200 14.0895 0.0295
42.3400 14.0963 0.0491
42.3600 14.1030 0.0321
42.3800 14.1096 0.0379
42.4000 14.1163 0.0410
42.4200 14.1229 0.0292
42.4400 14.1295 0.0384
42.4600 14.1362 0.0421
42.4800 14.1429 0.0310
42.5000 14.1496 0.0412
42.5200 14.1563 0.0386
42.5400 14.1629 0.0316
42.5600 14.1696 0.0392
42.5800 14.1763 0.0417
42.6000 14.1829 0.0358
42.6200 14.1895 0.0366
42.6400 14.1961 0.0398
42.6600 14.2028 0.0400
42.6800 14.2095 0.0320
42.7000 14.2162 0.0381
42.7200 14.2229 0.0433
42.7400 14.2296 0.0321
42.7600 14.2363 0.0388
42.7800 14.2429 0.0399
42.8000 14.2495 0.0324
42.8200 14.2561 0.0422
42.8400 14.2628 0.0397
42.8600 14.2695 0.0357
42.8800 14.2762 0.0418
42.9000 14.2829 0.0328
42.9200 14.2896 0.0376
42.9400 14.2963 0.0446
42.9600 14.3029 0.0338
42.9800 14.3095 0.0371
43.0000 14.3161 0.0495
43.0200 14.3228 0.0295
43.0400 14.3295 0.0389
43.0600 14.3362 0.0455
43.0800 14.3429 0.0282
43.1000 14.3496 0.0464
43.1200 14.3563 0.0423
43.1400 14.3629 0.0297
43.1600 14.3696 0.0433
43.1800 14.3762 0.0445
43.2000 14.3828 0.0349
43.2200 14.3895 0.0424
43.2400 14.3963 0.0397
43.2600 14.4029 0.0348
43.2800 14.4096 0.0454
43.3000 14.4163 0.0416
43.3200 14.4230 0.0299
43.3400 14.4295 0.0450
43.3600 14.4362 0.0344
43.3800 14.4428 0.0450
43.4000 14.4495 0.0448
43.4200 14.4562 0.0344
43.4400 14.4629 0.0409
43.4600 14.4696 0.0374
43.4800 14.4762 0.0350
43.5000 14.4829 0.0436
43.5200 14.4895 0.0383
43.5400 14.4961 0.0366
43.5600 14.5028 0.0453
43.5800 14.5095 0.0359
43.6000 14.5162 0.0424
43.6200 14.5229 0.0497
43.6400 14.5295 0.0366
43.6600 14.5362 0.0398
43.6800 14.5429 0.0503
43.7000 14.5495 0.0353
43.7200 14.5562 0.0441
43.7400 14.5628 0.0461
43.7600 14.5695 0.0361
43.7800 14.5762 0.0422
43.8000 14.5829 0.0447
43.8200 14.5896 0.0369
43.8400 14.5963 0.0500
43.8600 14.6030 0.0438
43.8800 14.6096 0.0360
43.9000 14.6161 0.0423
43.9200 14.6228 0.0482
43.9400 14.6295 0.0391
43.9600 14.6362 0.0446
43.9800 14.6429 0.0380
44.0000 14.6496 0.0404
44.0200 14.6563 0.0487
44.0400 14.6629 0.0382
44.0600 14.6695 0.0466
44.0800 14.6762 0.0420
44.1000 14.6828 0.0410
44.1200 14.6895 0.0505
44.1400 14.6962 0.0444
44.1600 14.7029 0.0384
44.1800 14.7096 0.0493
44.2000 14.7163 0.0421
44.2200 14.7229 0.0397
44.2400 14.7295 0.0497
44.2600 14.7361 0.0476
44.2800 14.7427 0.0432
44.3000 14.7494 0.0506
44.3200 14.7562 0.0342
44.3400 14.7629 0.0472
44.3600 14.7695 0.0554
44.3800 14.7762 0.0340
44.4000 14.7829 0.0493
44.4200 14.7895 0.0512
44.4400 14.7961 0.0377
44.4600 14.8028 0.0514
44.4800 14.8095 0.0480
44.5000 14.8162 0.0370
44.5200 14.8229 0.0529
44.5400 14.8296 0.0453
44.5600 14.8363 0.0352
44.5800 14.8429 0.0549
44.6000 14.8496 0.0455
44.6200 14.8562 0.0323
44.6400 14.8629 0.0598
44.6600 14.8696 0.0456
44.6800 14.8763 0.0371
44.7000 14.8829 0.0532
44.7200 14.8896 0.0502
44.7400 14.8963 0.0399
44.7600 14.9030 0.0522
44.7800 14.9096 0.0442
44.8000 14.9162 0.0412
44.8200 14.9228 0.0550
44.8400 14.9295 0.0419
44.8600 14.9362 0.0430
44.8800 14.9429 0.0535
44.9000 14.9495 0.0402
44.9200 14.9562 0.0453
44.9400 14.9629 0.0535
44.9600 14.9695 0.0398
44.9800 14.9761 0.0456
45.0000 14.9828 0.0494
45.0200 14.9895 0.0480
45.0400 14.9962 0.0365
45.0600 15.0029 0.0464
45.0800 15.0096 0.0495
45.1000 15.0162 0.0394
45.1200 15.0229 0.0471
45.1400 15.0296 0.0506
45.1600 15.0362 0.0381
45.1800 15.0428 0.0461
45.2000 15.0495 0.0486
45.2200 15.0562 0.0467
45.2400 15.0629 0.0431
45.2600 15.0696 0.0491
45.2800 15.0763 0.0434
45.3000 15.0830 0.0497
45.3200 15.0896 0.0492
45.3400 15.0962 0.0382
45.3600 15.1028 0.0535
45.3800 15.1095 0.0467
45.4000 15.1162 0.0399
45.4200 15.1229 0.0490
45.4400 15.1296 0.0493
45.4600 15.1363 0.0378
45.4800 15.1429 0.0509
45.5000 15.1495 0.0482
45.5200 15.1562 0.0392
45.5400 15.1628 0.0546
45.5600 15.1695 0.0449
45.5800 15.1762 0.0387
45.6000 15.1829 0.0518
45.6200 15.1896 0.0461
45.6400 15.1962 0.0462
45.6600 15.2029 0.0505
45.6800 15.2096 0.0466
45.7000 15.2162 0.0435
45.7200 15.2228 0.0522
45.7400 15.2295 0.0493
45.7600 15.2362 0.0421
45.7800 15.2429 0.0502
45.8000 15.2495 0.0456
45.8200 15.2562 0.0471
45.8400 15.2629 0.0466
45.8600 15.2696 0.0464
45.8800 15.2762 0.0486
45.9000 15.2828 0.0468
45.9200 15.2895 0.0448
45.9400 15.2962 0.0511
45.9600 15.3029 0.0417
45.9800 15.3096 0.0469
46.0000 15.3163 0.0449
46.0200 15.3229 0.0412
46.0400 15.3296 0.0495
46.0600 15.3362 0.0451
46.0800 15.3428 0.0420
46.1000 15.3495 0.0601
46.1200 15.3562 0.0408
46.1400 15.3629 0.0408
46.1600 15.3696 0.0584
46.1800 15.3763 0.0419
46.2000 15.3829 0.0416
46.2200 15.3896 0.0590
46.2400 15.3962 0.0423
46.2600 15.4028 0.0415
46.2800 15.4095 0.0605
46.3000 15.4162 0.0377
46.3200 15.4229 0.0470
46.3400 15.4296 0.0568
46.3600 15.4363 0.0411
46.3800 15.4429 0.0450
46.4000 15.4496 0.0543
46.4200 15.4561 0.0429
46.4400 15.4627 0.0465
46.4600 15.4694 0.0586
46.4800 15.4762 0.0435
46.5000 15.4829 0.0433
46.5200 15.4895 0.0559
46.5400 15.4962 0.0418
46.5600 15.5029 0.0504
46.5800 15.5095 0.0494
46.6000 15.5162 0.0364
46.6200 15.5228 0.0575
46.6400 15.5295 0.0495
46.6600 15.5362 0.0356
46.6800 15.5429 0.0578
46.7000 15.5496 0.0508
46.7200 15.5563 0.0282
46.7400 15.5630 0.0583
46.7600 15.5696 0.0500
46.7800 15.5762 0.0377
46.8000 15.5828 0.0616
46.8200 15.5895 0.0388
46.8400 15.5962 0.0414
46.8600 15.6029 0.0638
46.8800 15.6096 0.0349
46.9000 15.6163 0.0510
46.9200 15.6229 0.0555
46.9400 15.6296 0.0361
46.9600 15.6362 0.0499
46.9800 15.6428 0.0532
47.0000 15.6495 0.0407
47.0200 15.6562 0.0541
47.0400 15.6629 0.0485
47.0600 15.6696 0.0368
47.0800 15.6762 0.0571
47.1000 15.6829 0.0463
47.1200 15.6896 0.0392
47.1400 15.6962 0.0540
47.1600 15.7028 0.0454
47.1800 15.7095 0.0440
47.2000 15.7162 0.0509
47.2200 15.7229 0.0411
47.2400 15.7295 0.0490
47.2600 15.7362 0.0560
47.2800 15.7429 0.0382
47.3000 15.7496 0.0448
47.3200 15.7562 0.0583
47.3400 15.7628 0.0361
47.3600 15.7695 0.0479
47.3800 15.7762 0.0567
47.4000 15.7829 0.0398
47.4200 15.7896 0.0486
47.4400 15.7962 0.0582
47.4600 15.8029 0.0378
47.4800 15.8096 0.0487
47.5000 15.8162 0.0537
47.5200 15.8228 0.0416
47.5400 15.8295 0.0501
47.5600 15.8362 0.0508
47.5800 15.8429 0.0393
47.6000 15.8496 0.0513
47.6200 15.8563 0.0544
47.6400 15.8630 0.0389
47.6600 15.8696 0.0534
47.6800 15.8762 0.0513
47.7000 15.8828 0.0388
47.7200 15.8895 0.0534
47.7400 15.8962 0.0513
47.7600 15.9029 0.0397
47.7800 15.9096 0.0495
47.8000 15.9162 0.0490
47.8200 15.9229 0.0456
47.8400 15.9296 0.0451
47.8600 15.9362 0.0481
47.8800 15.9428 0.0430
47.9000 15.9495 0.0506
47.9200 15.9561 0.0521
47.9400 15.9628 0.0396
47.9600 15.9695 0.0516
47.9800 15.9762 0.0535
48.0000 15.9829 0.0404
48.0200 15.9896 0.0425
48.0400 15.9962 0.0544
48.0600 16.0028 0.0392
48.0800 16.0095 0.0466
48.1000 16.0162 0.0543
48.1200 16.0229 0.0395
48.1400 16.0296 0.0495
48.1600 16.0363 0.0533
48.1800 16.0429 0.0395
48.2000 16.0496 0.0480
48.2200 16.0562 0.0533
48.2400 16.0628 0.0458
48.2600 16.0695 0.0453
48.2800 16.0762 0.0534
48.3000 16.0829 0.0452
48.3200 16.0896 0.0443
48.3400 16.0963 0.0517
48.3600 16.1029 0.0519
48.3800 16.1096 0.0444
48.4000 16.1162 0.0492
48.4200 16.1228 0.0542
48.4400 16.1295 0.0452
48.4600 16.1361 0.0545
48.4800 16.1429 0.0466
48.5000 16.1495 0.0457
48.5200 16.1562 0.0577
48.5400 16.1629 0.0459
48.5600 16.1696 0.0463
48.5800 16.1762 0.0578
48.6000 16.1828 0.0458
48.6200 16.1894 0.0489
48.6400 16.1961 0.0535
48.6600 16.2029 0.0498
48.6800 16.2095 0.0492
48.7000 16.2162 0.0519
48.7200 16.2229 0.0469
48.7400 16.2295 0.0492
48.7600 16.2362 0.0524
48.7800 16.2428 0.0536
48.8000 16.2495 0.0508
48.8200 16.2562 0.0537
48.8400 16.2629 0.0538
48.8600 16.2696 0.0439
48.8800 16.2763 0.0560
48.9000 16.2830 0.0564
48.9200 16.2896 0.0441
48.9400 16.2963 0.0543
48.9600 16.3028 0.0529
48.9800 16.3095 0.0419
49.0000 16.3162 0.0628
49.0200 16.3229 0.0497
49.0400 16.3296 0.0440
49.0600 16.3363 0.0629
49.0800 16.3429 0.0475
49.1000 16.3496 0.0402
49.1200 16.3562 0.0629
49.1400 16.3628 0.0469
49.1600 16.3695 0.0509
49.1800 16.3762 0.0597
49.2000 16.3829 0.0404
49.2200 16.3895 0.0477
49.2400 16.3962 0.0643
49.2600 16.4029 0.0440
49.2800 16.4095 0.0462
49.3000 16.4162 0.0629
49.3200 16.4228 0.0425
49.3400 16.4294 0.0506
49.3600 16.4361 0.0580
49.3800 16.4428 0.0429
49.4000 16.4495 0.0496
49.4200 16.4562 0.0537
49.4400 16.4629 0.0474
49.4600 16.4696 0.0487
49.4800 16.4762 0.0500
49.5000 16.4828 0.0487
49.5200 16.4895 0.0481
49.5400 16.4962 0.0559
49.5600 16.5029 0.0497
49.5800 16.5096 0.0497
49.6000 16.5163 0.0558
49.6200 16.5229 0.0507
49.6400 16.5296 0.0434
49.6600 16.5362 0.0546
49.6800 16.5428 0.0549
49.7000 16.5495 0.0465
49.7200 16.5562 0.0552
49.7400 16.5629 0.0501
49.7600 16.5696 0.0486
49.7800 16.5763 0.0555
49.8000 16.5829 0.0506
49.8200 16.5896 0.0414
49.8400 16.5963 0.0522
49.8600 16.6029 0.0517
49.8800 16.6095 0.0489
49.9000 16.6162 0.0565
49.9200 16.6229 0.0497
49.9400 16.6296 0.0429
49.9600 16.6362 0.0548
49.9800 16.6430 0.0510
50.0000 16.6496 0.0458
50.0200 16.6563 0.0506
50.0400 16.6628 0.0499
50.0600 16.6694 0.0516
50.0800 16.6761 0.0550
50.1000 16.6828 0.0459
50.1200 16.6895 0.0482
50.1400 16.6962 0.0552
50.1600 16.7029 0.0463
50.1800 16.7096 0.0492
50.2000 16.7162 0.0521
50.2200 16.7228 0.0501
50.2400 16.7295 0.0505
50.2600 16.7361 0.0517
50.2800 16.7429 0.0479
50.3000 16.7496 0.0537
50.3200 16.7562 0.0464
50.3400 16.7629 0.0530
50.3600 16.7696 0.0518
50.3800 16.7762 0.0421
50.4000 16.7828 0.0501
50.4200 16.7895 0.0540
50.4400 16.7962 0.0499
50.4600 16.8029 0.0542
50.4800 16.8096 0.0494
50.5000 16.8163 0.0449
50.5200 16.8230 0.0588
50.5400 16.8296 0.0472
50.5600 16.8363 0.0437
50.5800 16.8428 0.0581
50.6000 16.8495 0.0448
50.6200 16.8562 0.0477
50.6400 16.8629 0.0614
50.6600 16.8696 0.0399
50.6800 16.8763 0.0471
50.7000 16.8829 0.0602
50.7200 16.8896 0.0415
50.7400 16.8962 0.0409
50.7600 16.9028 0.0623
50.7800 16.9094 0.0451
50.8000 16.9161 0.0463
50.8200 16.9229 0.0562
50.8400 16.9295 0.0428
50.8600 16.9362 0.0464
50.8800 16.9429 0.0551
50.9000 16.9496 0.0475
50.9200 16.9562 0.0460
50.9400 16.9628 0.0544
50.9600 16.9695 0.0472
50.9800 16.9761 0.0495
51.0000 16.9828 0.0538
51.0200 16.9896 0.0472
51.0400 16.9963 0.0470
51.0600 17.0029 0.0545
51.0800 17.0096 0.0486
51.1000 17.0163 0.0483
51.1200 17.0229 0.0515
51.1400 17.0295 0.0508
51.1600 17.0362 0.0472
51.1800 17.0429 0.0532
51.2000 17.0496 0.0486
51.2200 17.0562 0.0481
51.2400 17.0629 0.0541
51.2600 17.0696 0.0490
51.2800 17.0762 0.0471
51.3000 17.0828 0.0575
51.3200 17.0895 0.0488
51.3400 17.0961 0.0453
51.3600 17.1028 0.0547
51.3800 17.1096 0.0531
51.4000 17.1162 0.0437
51.4200 17.1229 0.0513
51.4400 17.1296 0.0536
51.4600 17.1362 0.0457
51.4800 17.1429 0.0525
51.5000 17.1495 0.0552
51.5200 17.1561 0.0495
51.5400 17.1628 0.0495
51.5600 17.1695 0.0589
51.5800 17.1762 0.0435
51.6000 17.1829 0.0539
51.6200 17.1896 0.0579
51.6400 17.1963 0.0412
51.6600 17.2029 0.0532
51.6800 17.2095 0.0643
51.7000 17.2161 0.0418
51.7200 17.2228 0.0563
51.7400 17.2295 0.0626
51.7600 17.2362 0.0446
51.7800 17.2429 0.0607
51.8000 17.2496 0.0583
51.8200 17.2563 0.0400
51.8400 17.2629 0.0634
51.8600 17.2695 0.0612
51.8800 17.2762 0.0409
51.9000 17.2829 0.0635
51.9200 17.2896 0.0576
51.9400 17.2963 0.0486
51.9600 17.3030 0.0583
51.9800 17.3096 0.0575
52.0000 17.3163 0.0515
52.0200 17.3229 0.0546
52.0400 17.3295 0.0564
52.0600 17.3361 0.0555
52.0800 17.3428 0.0595
52.1000 17.3495 0.0571
52.1200 17.3562 0.0484
52.1400 17.3629 0.0606
52.1600 17.3696 0.0585
52.1800 17.3762 0.0453
52.2000 17.3828 0.0586
52.2200 17.3894 0.0646
52.2400 17.3961 0.0499
52.2600 17.4028 0.0522
52.2800 17.4095 0.0648
52.3000 17.4162 0.0473
52.3200 17.4228 0.0560
52.3400 17.4295 0.0663
52.3600 17.4362 0.0459
52.3800 17.4428 0.0586
52.4000 17.4495 0.0622
52.4200 17.4561 0.0471
52.4400 17.4629 0.0606
52.4600 17.4696 0.0633
52.4800 17.4763 0.0541
52.5000 17.4829 0.0540
52.5200 17.4896 0.0599
52.5400 17.4963 0.0515
52.5600 17.5029 0.0621
52.5800 17.5095 0.0564
52.6000 17.5161 0.0512
52.6200 17.5229 0.0632
52.6400 17.5296 0.0553
52.6600 17.5363 0.0562
52.6800 17.5430 0.0592
52.7000 17.5496 0.0536
52.7200 17.5563 0.0554
52.7400 17.5629 0.0598
52.7600 17.5695 0.0585
52.7800 17.5761 0.0622
52.8000 17.5828 0.0556
52.8200 17.5896 0.0559
52.8400 17.5962 0.0546
52.8600 17.6029 0.0575
52.8800 17.6096 0.0601
52.9000 17.6162 0.0617
52.9200 17.6229 0.0526
52.9400 17.6295 0.0676
52.9600 17.6361 0.0559
52.9800 17.6428 0.0480
53.0000 17.6495 0.0703
53.0200 17.6562 0.0542
53.0400 17.6629 0.0497
53.0600 17.6696 0.0656
53.0800 17.6762 0.0524
53.1000 17.6829 0.0507
53.1200 17.6895 0.0658
53.1400 17.6961 0.0532
53.1600 17.7028 0.0539
53.1800 17.7096 0.0656
53.2000 17.7163 0.0501
53.2200 17.7229 0.0515
53.2400 17.7296 0.0710
53.2600 17.7363 0.0472
53.2800 17.7429 0.0562
53.3000 17.7495 0.0616
53.3200 17.7562 0.0507
53.3400 17.7629 0.0580
53.3600 17.7696 0.0612
53.3800 17.7763 0.0497
53.4000 17.7829 0.0617
53.4200 17.7896 0.0578
53.4400 17.7963 0.0484
53.4600 17.8029 0.0611
53.4800 17.8095 0.0582
53.5000 17.8161 0.0481
53.5200 17.8228 0.0623
53.5400 17.8295 0.0533
53.5600 17.8362 0.0525
53.5800 17.8429 0.0627
53.6000 17.8496 0.0518
53.6200 17.8562 0.0529
53.6400 17.8629 0.0542
53.6600 17.8695 0.0569
53.6800 17.8761 0.0547
53.7000 17.8828 0.0544
53.7200 17.8895 0.0537
53.7400 17.8962 0.0604
53.7600 17.9029 0.0531
53.7800 17.9096 0.0554
53.8000 17.9162 0.0598
53.8200 17.9229 0.0524
53.8400 17.9295 0.0555
53.8600 17.9361 0.0633
53.8800 17.9428 0.0526
53.9000 17.9495 0.0593
53.9200 17.9562 0.0585
53.9400 17.9629 0.0470
53.9600 17.9696 0.0630
53.9800 17.9763 0.0577
54.0000 17.9829 0.0523
54.0200 17.9895 0.0651
54.0400 17.9961 0.0533
54.0600 18.0028 0.0553
54.0800 18.0095 0.0666
54.1000 18.0162 0.0491
54.1200 18.0229 0.0562
54.1400 18.0296 0.0648
54.1600 18.0363 0.0532
54.1800 18.0429 0.0517
54.2000 18.0495 0.0611
54.2200 18.0561 0.0587
54.2400 18.0628 0.0584
54.2600 18.0696 0.0568
54.2800 18.0763 0.0596
54.3000 18.0829 0.0587
54.3200 18.0896 0.0562
54.3400 18.0963 0.0597
54.3600 18.1029 0.0614
54.3800 18.1095 0.0570
54.4000 18.1161 0.0563
54.4200 18.1228 0.0627
54.4400 18.1295 0.0580
54.4600 18.1362 0.0591
54.4800 18.1429 0.0574
54.5000 18.1495 0.0589
54.5200 18.1562 0.0608
54.5400 18.1629 0.0564
54.5600 18.1695 0.0607
54.5800 18.1761 0.0648
54.6000 18.1828 0.0542
54.6200 18.1895 0.0607
54.6400 18.1962 0.0603
54.6600 18.2029 0.0570
54.6800 18.2097 0.0605
54.7000 18.2163 0.0561
54.7200 18.2229 0.0536
54.7400 18.2295 0.0633
54.7600 18.2362 0.0602
54.7800 18.2428 0.0559
54.8000 18.2496 0.0596
54.8200 18.2563 0.0584
54.8400 18.2630 0.0602
54.8600 18.2696 0.0577
54.8800 18.2763 0.0621
54.9000 18.2829 0.0572
54.9200 18.2895 0.0554
54.9400 18.2961 0.0635
54.9600 18.3028 0.0600
54.9800 18.3095 0.0516
55.0000 18.3162 0.0589
55.0200 18.3229 0.0609
55.0400 18.3296 0.0527
55.0600 18.3362 0.0557
55.0800 18.3429 0.0657
55.1000 18.3495 0.0540
55.1200 18.3561 0.0615
55.1400 18.3628 0.0568
55.1600 18.3695 0.0531
55.1800 18.3762 0.0630
55.2000 18.3828 0.0575
55.2200 18.3895 0.0534
55.2400 18.3962 0.0662
55.2600 18.4029 0.0531
55.2800 18.4095 0.0519
55.3000 18.4161 0.0763
55.3200 18.4228 0.0513
55.3400 18.4295 0.0480
55.3600 18.4363 0.0703
55.3800 18.4429 0.0572
55.4000 18.4496 0.0505
55.4200 18.4563 0.0689
55.4400 18.4629 0.0527
55.4600 18.4696 0.0561
55.4800 18.4762 0.0708
55.5000 18.4829 0.0485
55.5200 18.4895 0.0550
55.5400 18.4962 0.0736
55.5600 18.5029 0.0493
55.5800 18.5096 0.0573
55.6000 18.5163 0.0721
55.6200 18.5229 0.0492
55.6400 18.5295 0.0542
55.6600 18.5361 0.0741
55.6800 18.5428 0.0569
55.7000 18.5495 0.0528
55.7200 18.5562 0.0711
55.7400 18.5629 0.0525
55.7600 18.5696 0.0579
55.7800 18.5763 0.0746
55.8000 18.5829 0.0497
55.8200 18.5895 0.0561
55.8400 18.5961 0.0802
55.8600 18.6028 0.0525
55.8800 18.6095 0.0586
55.9000 18.6162 0.0757
55.9200 18.6229 0.0530
55.9400 18.6296 0.0570
55.9600 18.6363 0.0777
55.9800 18.6429 0.0536
56.0000 18.6495 0.0570
56.0200 18.6561 0.0751
56.0400 18.6628 0.0598
56.0600 18.6695 0.0547
56.0800 18.6762 0.0769
56.1000 18.6829 0.0576
56.1200 18.6896 0.0571
56.1400 18.6963 0.0781
56.1600 18.7030 0.0540
56.1800 18.7095 0.0636
56.2000 18.7161 0.0764
56.2200 18.7228 0.0567
56.2400 18.7295 0.0596
56.2600 18.7362 0.0769
56.2800 18.7429 0.0543
56.3000 18.7496 0.0620
56.3200 18.7563 0.0757
56.3400 18.7629 0.0553
56.3600 18.7695 0.0634
56.3800 18.7762 0.0744
56.4000 18.7828 0.0530
56.4200 18.7895 0.0647
56.4400 18.7962 0.0689
56.4600 18.8029 0.0544
56.4800 18.8096 0.0674
56.5000 18.8162 0.0680
56.5200 18.8229 0.0556
56.5400 18.8295 0.0632
56.5600 18.8361 0.0689
56.5800 18.8428 0.0612
56.6000 18.8495 0.0663
56.6200 18.8562 0.0631
56.6400 18.8629 0.0624
56.6600 18.8696 0.0688
56.6800 18.8763 0.0670
56.7000 18.8829 0.0607
56.7200 18.8895 0.0689
56.7400 18.8961 0.0649
56.7600 18.9028 0.0621
56.7800 18.9095 0.0672
56.8000 18.9163 0.0694
56.8200 18.9230 0.0632
56.8400 18.9296 0.0668
56.8600 18.9363 0.0678
56.8800 18.9429 0.0647
56.9000 18.9495 0.0677
56.9200 18.9561 0.0714
56.9400 18.9628 0.0632
56.9600 18.9696 0.0667
56.9800 18.9763 0.0696
57.0000 18.9829 0.0637
57.0200 18.9896 0.0691
57.0400 18.9963 0.0728
57.0600 19.0029 0.0679
57.0800 19.0095 0.0622
57.1000 19.0161 0.0742
57.1200 19.0228 0.0669
57.1400 19.0295 0.0702
57.1600 19.0362 0.0712
57.1800 19.0429 0.0666
57.2000 19.0496 0.0677
57.2200 19.0563 0.0737
57.2400 19.0629 0.0642
57.2600 19.0695 0.0662
57.2800 19.0761 0.0797
57.3000 19.0828 0.0721
57.3200 19.0895 0.0660
57.3400 19.0962 0.0735
57.3600 19.1029 0.0691
57.3800 19.1096 0.0626
57.4000 19.1163 0.0722
57.4200 19.1229 0.0702
57.4400 19.1295 0.0680
57.4600 19.1361 0.0696
57.4800 19.1428 0.0710
57.5000 19.1495 0.0695
57.5200 19.1562 0.0694
57.5400 19.1629 0.0661
57.5600 19.1696 0.0694
57.5800 19.1763 0.0691
57.6000 19.1829 0.0722
57.6200 19.1896 0.0680
57.6400 19.1962 0.0673
57.6600 19.2028 0.0741
57.6800 19.2095 0.0722
57.7000 19.2162 0.0622
57.7200 19.2229 0.0697
57.7400 19.2296 0.0682
57.7600 19.2363 0.0640
57.7800 19.2430 0.0668
57.8000 19.2496 0.0661
57.8200 19.2562 0.0636
57.8400 19.2628 0.0713
57.8600 19.2695 0.0712
57.8800 19.2762 0.0583
57.9000 19.2829 0.0690
57.9200 19.2896 0.0713
57.9400 19.2962 0.0654
57.9600 19.3029 0.0667
57.9800 19.3095 0.0702
58.0000 19.3161 0.0627
58.0200 19.3228 0.0725
58.0400 19.3295 0.0633
58.0600 19.3362 0.0606
58.0800 19.3429 0.0698
58.1000 19.3495 0.0620
58.1200 19.3562 0.0636
58.1400 19.3629 0.0726
58.1600 19.3695 0.0635
58.1800 19.3762 0.0638
58.2000 19.3828 0.0723
58.2200 19.3895 0.0645
58.2400 19.3962 0.0641
58.2600 19.4029 0.0684
58.2800 19.4096 0.0637
58.3000 19.4163 0.0686
58.3200 19.4230 0.0648
58.3400 19.4296 0.0599
58.3600 19.4362 0.0678
58.3800 19.4428 0.0705
58.4000 19.4495 0.0660
58.4200 19.4562 0.0656
58.4400 19.4629 0.0622
58.4600 19.4696 0.0679
58.4800 19.4763 0.0694
58.5000 19.4830 0.0565
58.5200 19.4896 0.0734
58.5400 19.4962 0.0644
58.5600 19.5028 0.0570
58.5800 19.5095 0.0734
58.6000 19.5162 0.0607
58.6200 19.5229 0.0576
58.6400 19.5296 0.0733
58.6600 19.5363 0.0564
58.6800 19.5429 0.0626
58.7000 19.5496 0.0758
58.7200 19.5561 0.0533
58.7400 19.5628 0.0648
58.7600 19.5694 0.0751
58.7800 19.5762 0.0552
58.8000 19.5829 0.0663
58.8200 19.5896 0.0743
58.8400 19.5962 0.0539
58.8600 19.6029 0.0695
58.8800 19.6095 0.0700
58.9000 19.6161 0.0588
58.9200 19.6228 0.0698
58.9400 19.6295 0.0754
58.9600 19.6362 0.0577
58.9800 19.6429 0.0693
59.0000 19.6496 0.0725
59.0200 19.6563 0.0561
59.0400 19.6630 0.0724
59.0600 19.6696 0.0731
59.0800 19.6762 0.0562
59.1000 19.6829 0.0729
59.1200 19.6895 0.0682
59.1400 19.6962 0.0565
59.1600 19.7029 0.0732
59.1800 19.7096 0.0736
59.2000 19.7163 0.0633
59.2200 19.7229 0.0657
59.2400 19.7296 0.0710
59.2600 19.7362 0.0608
59.2800 19.7428 0.0686
59.3000 19.7495 0.0707
59.3200 19.7562 0.0638
59.3400 19.7629 0.0679
59.3600 19.7695 0.0693
59.3800 19.7762 0.0602
59.4000 19.7829 0.0685
59.4200 19.7895 0.0698
59.4400 19.7962 0.0642
59.4600 19.8028 0.0667
59.4800 19.8095 0.0700
59.5000 19.8162 0.0604
59.5200 19.8229 0.0675
59.5400 19.8296 0.0708
59.5600 19.8362 0.0652
59.5800 19.8429 0.0645
59.6000 19.8496 0.0665
59.6200 19.8562 0.0654
59.6400 19.8628 0.0660
59.6600 19.8695 0.0698
59.6800 19.8762 0.0585
59.7000 19.8829 0.0678
59.7200 19.8896 0.0701
59.7400 19.8963 0.0596
59.7520 19.9002 0.0522
