Raw Data
Time Displacement Force
(s) (mm) (N)
0.0000 0.0000 -0.0019
0.0200 0.0000 0.0069
0.0400 0.0009 0.0424
0.0600 0.0044 0.0328
0.0800 0.0099 0.0046
0.1000 0.0156 0.0017
0.1200 0.0217 0.0243
0.1400 0.0285 0.0171
0.1600 0.0359 0.0021
0.1800 0.0434 0.0047
0.2000 0.0505 0.0058
0.2200 0.0574 -0.0023
0.2400 0.0641 0.0142
0.2600 0.0707 0.0128
0.2800 0.0774 -0.0010
0.3000 0.0841 0.0177
0.3200 0.0907 0.0110
0.3400 0.0974 0.0107
0.3600 0.1041 0.0164
0.3800 0.1108 0.0126
0.4000 0.1175 0.0098
0.4200 0.1242 0.0166
0.4400 0.1309 0.0140
0.4600 0.1376 0.0126
0.4800 0.1442 0.0225
0.5000 0.1508 0.0168
0.5200 0.1574 0.0139
0.5400 0.1641 0.0249
0.5600 0.1708 0.0147
0.5800 0.1775 0.0201
0.6000 0.1842 0.0273
0.6200 0.1909 0.0233
0.6400 0.1976 0.0217
0.6600 0.2042 0.0226
0.6800 0.2108 0.0249
0.7000 0.2174 0.0258
0.7200 0.2241 0.0300
0.7400 0.2308 0.0205
0.7600 0.2375 0.0334
0.7800 0.2442 0.0293
0.8000 0.2509 0.0245
0.8200 0.2575 0.0333
0.8400 0.2642 0.0278
0.8600 0.2707 0.0296
0.8800 0.2774 0.0354
0.9000 0.2840 0.0299
0.9200 0.2908 0.0297
0.9400 0.2975 0.0339
0.9600 0.3041 0.0293
0.9800 0.3108 0.0318
1.0000 0.3175 0.0341
1.0200 0.3241 0.0299
1.0400 0.3307 0.0335
1.0600 0.3374 0.0340
1.0800 0.3441 0.0340
1.1000 0.3508 0.0390
1.1200 0.3575 0.0272
1.1400 0.3642 0.0279
1.1600 0.3709 0.0393
1.1800 0.3776 0.0305
1.2000 0.3842 0.0316
1.2200 0.3908 0.0407
1.2400 0.3975 0.0251
1.2600 0.4042 0.0367
1.2800 0.4109 0.0367
1.3000 0.4176 0.0315
1.3200 0.4242 0.0371
1.3400 0.4309 0.0362
1.3600 0.4376 0.0258
1.3800 0.4442 0.0348
1.4000 0.4508 0.0387
1.4200 0.4574 0.0247
1.4400 0.4641 0.0364
1.4600 0.4708 0.0387
1.4800 0.4775 0.0240
1.5000 0.4841 0.0365
1.5200 0.4908 0.0389
1.5400 0.4975 0.0256
1.5600 0.5042 0.0372
1.5800 0.5108 0.0338
1.6000 0.5174 0.0285
1.6200 0.5241 0.0336
1.6400 0.5308 0.0355
1.6600 0.5375 0.0290
1.6800 0.5442 0.0323
1.7000 0.5508 0.0360
1.7200 0.5575 0.0359
1.7400 0.5642 0.0306
1.7600 0.5708 0.0331
1.7800 0.5774 0.0364
1.8000 0.5841 0.0312
1.8200 0.5908 0.0337
1.8400 0.5975 0.0366
1.8600 0.6042 0.0258
1.8800 0.6109 0.0370
1.9000 0.6176 0.0363
1.9200 0.6242 0.0251
1.9400 0.6308 0.0417
1.9600 0.6374 0.0384
1.9800 0.6441 0.0276
2.0000 0.6508 0.0370
2.0200 0.6575 0.0332
2.0400 0.6642 0.0260
2.0600 0.6709 0.0410
2.0800 0.6775 0.0337
2.1000 0.6842 0.0245
2.1200 0.6908 0.0434
2.1400 0.6974 0.0305
2.1600 0.7041 0.0277
2.1800 0.7108 0.0433
2.2000 0.7175 0.0274
2.2200 0.7242 0.0304
2.2400 0.7308 0.0387
2.2600 0.7375 0.0243
2.2800 0.7442 0.0323
2.3000 0.7508 0.0345
2.3200 0.7574 0.0276
2.3400 0.7641 0.0369
2.3600 0.7708 0.0372
2.3800 0.7775 0.0247
2.4000 0.7842 0.0398
2.4200 0.7909 0.0324
2.4400 0.7976 0.0294
2.4600 0.8042 0.0346
2.4800 0.8108 0.0298
2.5000 0.8174 0.0350
2.5200 0.8241 0.0385
2.5400 0.8308 0.0295
2.5600 0.8375 0.0355
2.5800 0.8442 0.0323
2.6000 0.8509 0.0330
2.6200 0.8576 0.0342
2.6400 0.8642 0.0307
2.6600 0.8708 0.0316
2.6800 0.8774 0.0360
2.7000 0.8841 0.0340
2.7200 0.8908 0.0320
2.7400 0.8975 0.0389
2.7600 0.9042 0.0296
2.7800 0.9109 0.0388
2.8000 0.9176 0.0352
2.8200 0.9242 0.0317
2.8400 0.9308 0.0431
2.8600 0.9374 0.0312
2.8800 0.9441 0.0339
2.9000 0.9508 0.0447
2.9200 0.9575 0.0325
2.9400 0.9642 0.0360
2.9600 0.9709 0.0419
2.9800 0.9776 0.0345
3.0000 0.9842 0.0312
3.0200 0.9908 0.0443
3.0400 0.9974 0.0403
3.0600 1.0040 0.0340
3.0800 1.0108 0.0409
3.1000 1.0175 0.0352
3.1200 1.0242 0.0388
3.1400 1.0308 0.0373
3.1600 1.0375 0.0397
3.1800 1.0442 0.0361
3.2000 1.0508 0.0404
3.2200 1.0574 0.0364
3.2400 1.0641 0.0363
3.2600 1.0708 0.0384
3.2800 1.0775 0.0376
3.3000 1.0842 0.0373
3.3200 1.0909 0.0380
3.3400 1.0976 0.0376
3.3600 1.1043 0.0351
3.3800 1.1109 0.0406
3.4000 1.1175 0.0381
3.4200 1.1241 0.0349
3.4400 1.1308 0.0416
3.4600 1.1375 0.0364
3.4800 1.1442 0.0384
3.5000 1.1509 0.0491
3.5200 1.1576 0.0321
3.5400 1.1642 0.0349
3.5600 1.1708 0.0434
3.5800 1.1774 0.0369
3.6000 1.1841 0.0399
3.6200 1.1908 0.0438
3.6400 1.1975 0.0381
3.6600 1.2042 0.0411
3.6800 1.2109 0.0418
3.7000 1.2175 0.0442
3.7200 1.2242 0.0405
3.7400 1.2308 0.0387
3.7600 1.2374 0.0402
3.7800 1.2441 0.0439
3.8000 1.2508 0.0412
3.8200 1.2575 0.0440
3.8400 1.2642 0.0431
3.8600 1.2708 0.0414
3.8800 1.2775 0.0425
3.9000 1.2842 0.0427
3.9200 1.2908 0.0424
3.9400 1.2974 0.0490
3.9600 1.3041 0.0439
3.9800 1.3108 0.0388
4.0000 1.3175 0.0526
4.0200 1.3242 0.0428
4.0400 1.3309 0.0429
4.0600 1.3375 0.0537
4.0800 1.3442 0.0453
4.1000 1.3508 0.0447
4.1200 1.3575 0.0484
4.1400 1.3641 0.0440
4.1600 1.3708 0.0517
4.1800 1.3775 0.0467
4.2000 1.3842 0.0451
4.2200 1.3909 0.0491
4.2400 1.3976 0.0506
4.2600 1.4042 0.0475
4.2800 1.4108 0.0481
4.3000 1.4174 0.0527
4.3200 1.4241 0.0471
4.3400 1.4308 0.0490
4.3600 1.4375 0.0459
4.3800 1.4442 0.0508
4.4000 1.4508 0.0511
4.4200 1.4575 0.0499
4.4400 1.4642 0.0491
4.4600 1.4708 0.0458
4.4800 1.4774 0.0522
4.5000 1.4841 0.0521
4.5200 1.4908 0.0426
4.5400 1.4975 0.0538
4.5600 1.5042 0.0540
4.5800 1.5109 0.0407
4.6000 1.5175 0.0519
4.6200 1.5242 0.0586
4.6400 1.5308 0.0384
4.6600 1.5374 0.0506
4.6800 1.5441 0.0549
4.7000 1.5508 0.0447
4.7200 1.5576 0.0510
4.7400 1.5642 0.0513
4.7600 1.5709 0.0421
4.7800 1.5776 0.0555
4.8000 1.5842 0.0540
4.8200 1.5909 0.0406
4.8400 1.5975 0.0579
4.8600 1.6041 0.0476
4.8800 1.6108 0.0385
4.9000 1.6175 0.0576
4.9200 1.6242 0.0492
4.9400 1.6309 0.0407
4.9600 1.6376 0.0594
4.9800 1.6442 0.0476
5.0000 1.6509 0.0413
5.0200 1.6575 0.0614
5.0400 1.6641 0.0451
5.0600 1.6708 0.0445
5.0800 1.6775 0.0610
5.1000 1.6842 0.0410
5.1200 1.6909 0.0475
5.1400 1.6976 0.0593
5.1600 1.7042 0.0429
5.1800 1.7108 0.0509
5.2000 1.7174 0.0542
5.2200 1.7241 0.0483
5.2400 1.7308 0.0492
5.2600 1.7375 0.0522
5.2800 1.7442 0.0453
5.3000 1.7508 0.0526
5.3200 1.7575 0.0452
5.3400 1.7642 0.0523
5.3600 1.7708 0.0503
5.3800 1.7774 0.0470
5.4000 1.7841 0.0523
5.4200 1.7908 0.0513
5.4400 1.7975 0.0483
5.4600 1.8042 0.0454
5.4800 1.8109 0.0491
5.5000 1.8176 0.0488
5.5200 1.8243 0.0479
5.5400 1.8309 0.0467
5.5600 1.8375 0.0488
5.5800 1.8441 0.0533
5.6000 1.8508 0.0458
5.6200 1.8575 0.0492
5.6400 1.8642 0.0512
5.6600 1.8709 0.0460
5.6800 1.8776 0.0502
5.7000 1.8842 0.0488
5.7200 1.8908 0.0452
5.7400 1.8974 0.0452
5.7600 1.9041 0.0562
5.7800 1.9108 0.0473
5.8000 1.9175 0.0452
5.8200 1.9242 0.0522
5.8400 1.9308 0.0469
5.8600 1.9375 0.0460
5.8800 1.9442 0.0533
5.9000 1.9508 0.0467
5.9200 1.9574 0.0441
5.9400 1.9641 0.0546
5.9600 1.9707 0.0392
5.9800 1.9774 0.0467
6.0000 1.9842 0.0548
6.0200 1.9908 0.0370
6.0400 1.9975 0.0486
6.0600 2.0042 0.0493
6.0800 2.0109 0.0375
6.1000 2.0175 0.0502
6.1200 2.0241 0.0448
6.1400 2.0308 0.0426
6.1600 2.0375 0.0502
6.1800 2.0442 0.0465
6.2000 2.0509 0.0423
6.2200 2.0576 0.0509
6.2400 2.0643 0.0397
6.2600 2.0709 0.0415
6.2800 2.0775 0.0513
6.3000 2.0841 0.0400
6.3200 2.0908 0.0446
6.3400 2.0975 0.0469
6.3600 2.1042 0.0389
6.3800 2.1109 0.0496
6.4000 2.1175 0.0450
6.4200 2.1242 0.0374
6.4400 2.1309 0.0505
6.4600 2.1375 0.0416
6.4800 2.1441 0.0382
6.5000 2.1508 0.0534
6.5200 2.1575 0.0439
6.5400 2.1642 0.0391
6.5600 2.1708 0.0558
6.5800 2.1775 0.0385
6.6000 2.1842 0.0458
6.6200 2.1909 0.0495
6.6400 2.1975 0.0358
6.6600 2.2041 0.0510
6.6800 2.2107 0.0448
6.7000 2.2174 0.0428
6.7200 2.2242 0.0472
6.7400 2.2308 0.0421
6.7600 2.2375 0.0450
6.7800 2.2442 0.0455
6.8000 2.2508 0.0509
6.8200 2.2575 0.0413
6.8400 2.2641 0.0441
6.8600 2.2708 0.0487
6.8800 2.2775 0.0394
6.9000 2.2842 0.0438
6.9200 2.2909 0.0462
6.9400 2.2975 0.0440
6.9600 2.3042 0.0433
6.9800 2.3109 0.0497
7.0000 2.3175 0.0431
7.0200 2.3241 0.0447
7.0400 2.3308 0.0514
7.0600 2.3375 0.0392
7.0800 2.3442 0.0459
7.1000 2.3509 0.0492
7.1200 2.3576 0.0387
7.1400 2.3642 0.0490
7.1600 2.3709 0.0466
7.1800 2.3775 0.0434
7.2000 2.3841 0.0518
7.2200 2.3908 0.0440
7.2400 2.3975 0.0392
7.2600 2.4042 0.0530
7.2800 2.4109 0.0508
7.3000 2.4175 0.0398
7.3200 2.4242 0.0565
7.3400 2.4309 0.0414
7.3600 2.4375 0.0440
7.3800 2.4441 0.0544
7.4000 2.4508 0.0459
7.4200 2.4575 0.0451
7.4400 2.4642 0.0528
7.4600 2.4708 0.0445
7.4800 2.4775 0.0463
7.5000 2.4842 0.0515
7.5200 2.4908 0.0459
7.5400 2.4975 0.0442
7.5600 2.5041 0.0522
7.5800 2.5108 0.0476
7.6000 2.5175 0.0484
7.6200 2.5242 0.0537
7.6400 2.5309 0.0431
7.6600 2.5376 0.0526
7.6800 2.5443 0.0465
7.7000 2.5509 0.0444
7.7200 2.5575 0.0527
7.7400 2.5641 0.0510
7.7600 2.5708 0.0505
7.7800 2.5775 0.0550
7.8000 2.5842 0.0452
7.8200 2.5909 0.0512
7.8400 2.5976 0.0521
7.8600 2.6042 0.0491
7.8800 2.6109 0.0504
7.9000 2.6175 0.0497
7.9200 2.6241 0.0419
7.9400 2.6308 0.0531
7.9600 2.6375 0.0500
7.9800 2.6442 0.0475
8.0000 2.6508 0.0568
8.0200 2.6575 0.0468
8.0400 2.6642 0.0468
8.0600 2.6709 0.0562
8.0800 2.6775 0.0448
8.1000 2.6841 0.0504
8.1200 2.6907 0.0556
8.1400 2.6974 0.0437
8.1600 2.7042 0.0511
8.1800 2.7109 0.0503
8.2000 2.7175 0.0476
8.2200 2.7242 0.0487
8.2400 2.7309 0.0494
8.2600 2.7375 0.0488
8.2800 2.7441 0.0521
8.3000 2.7508 0.0515
8.3200 2.7575 0.0479
8.3400 2.7642 0.0473
8.3600 2.7709 0.0520
8.3800 2.7775 0.0507
8.4000 2.7842 0.0423
8.4200 2.7909 0.0555
8.4400 2.7975 0.0541
8.4600 2.8041 0.0356
8.4800 2.8108 0.0593
8.5000 2.8175 0.0562
8.5200 2.8242 0.0406
8.5400 2.8309 0.0579
8.5600 2.8375 0.0509
8.5800 2.8442 0.0443
8.6000 2.8509 0.0532
8.6200 2.8575 0.0488
8.6400 2.8641 0.0448
8.6600 2.8708 0.0596
8.6800 2.8774 0.0464
8.7000 2.8842 0.0455
8.7200 2.8908 0.0563
8.7400 2.8975 0.0472
8.7600 2.9042 0.0451
8.7800 2.9109 0.0564
8.8000 2.9175 0.0506
8.8200 2.9241 0.0493
8.8400 2.9307 0.0529
8.8600 2.9374 0.0505
8.8800 2.9441 0.0501
8.9000 2.9508 0.0499
8.9200 2.9575 0.0508
8.9400 2.9642 0.0391
8.9600 2.9709 0.0600
8.9800 2.9775 0.0513
9.0000 2.9841 0.0383
9.0200 2.9908 0.0591
9.0400 2.9975 0.0511
9.0600 3.0042 0.0382
9.0800 3.0109 0.0611
9.1000 3.0176 0.0490
9.1200 3.0243 0.0374
9.1400 3.0309 0.0628
9.1600 3.0376 0.0497
9.1800 3.0441 0.0370
9.2000 3.0508 0.0637
9.2200 3.0575 0.0462
9.2400 3.0642 0.0416
9.2600 3.0709 0.0664
9.2800 3.0776 0.0409
9.3000 3.0843 0.0444
9.3200 3.0909 0.0672
9.3400 3.0975 0.0383
9.3600 3.1041 0.0442
9.3800 3.1107 0.0717
9.4000 3.1174 0.0404
9.4200 3.1242 0.0457
9.4400 3.1309 0.0653
9.4600 3.1375 0.0450
9.4800 3.1442 0.0467
9.5000 3.1509 0.0628
9.5200 3.1575 0.0385
9.5400 3.1641 0.0515
9.5600 3.1708 0.0618
9.5800 3.1774 0.0434
9.6000 3.1841 0.0523
9.6200 3.1908 0.0605
9.6400 3.1975 0.0439
9.6600 3.2042 0.0529
9.6800 3.2109 0.0599
9.7000 3.2175 0.0482
9.7200 3.2241 0.0519
9.7400 3.2307 0.0542
9.7600 3.2374 0.0540
9.7800 3.2442 0.0522
9.8000 3.2509 0.0550
9.8200 3.2576 0.0510
9.8400 3.2643 0.0513
9.8600 3.2709 0.0471
9.8800 3.2775 0.0512
9.9000 3.2841 0.0520
9.9200 3.2908 0.0565
9.9400 3.2975 0.0494
9.9600 3.3042 0.0499
9.9800 3.3109 0.0549
10.0000 3.3175 0.0511
10.0200 3.3242 0.0520
10.0400 3.3309 0.0512
10.0600 3.3375 0.0512
10.0800 3.3441 0.0506
10.1000 3.3508 0.0576
10.1200 3.3575 0.0460
10.1400 3.3641 0.0502
10.1600 3.3708 0.0574
10.1800 3.3775 0.0443
10.2000 3.3842 0.0479
10.2200 3.3909 0.0635
10.2400 3.3975 0.0483
10.2600 3.4041 0.0531
10.2800 3.4107 0.0571
10.3000 3.4174 0.0484
10.3200 3.4241 0.0512
10.3400 3.4308 0.0539
10.3600 3.4375 0.0447
10.3800 3.4442 0.0544
10.4000 3.4509 0.0516
10.4200 3.4575 0.0440
10.4400 3.4641 0.0526
10.4600 3.4708 0.0530
10.4800 3.4775 0.0465
10.5000 3.4842 0.0522
10.5200 3.4909 0.0549
10.5400 3.4975 0.0480
10.5600 3.5042 0.0551
10.5800 3.5109 0.0490
10.6000 3.5176 0.0493
10.6200 3.5242 0.0550
10.6400 3.5308 0.0473
10.6600 3.5374 0.0500
10.6800 3.5441 0.0533
10.7000 3.5508 0.0462
10.7200 3.5575 0.0505
10.7400 3.5642 0.0544
10.7600 3.5709 0.0455
10.7800 3.5776 0.0441
10.8000 3.5841 0.0535
10.8200 3.5908 0.0464
10.8400 3.5974 0.0461
10.8600 3.6042 0.0537
10.8800 3.6109 0.0470
10.9000 3.6176 0.0521
10.9200 3.6242 0.0496
10.9400 3.6309 0.0467
10.9600 3.6375 0.0555
10.9800 3.6441 0.0529
11.0000 3.6507 0.0447
11.0200 3.6574 0.0548
11.0400 3.6641 0.0497
11.0600 3.6708 0.0482
11.0800 3.6775 0.0534
11.1000 3.6842 0.0490
11.1200 3.6909 0.0492
11.1400 3.6975 0.0542
11.1600 3.7041 0.0459
11.1800 3.7107 0.0535
11.2000 3.7174 0.0521
11.2200 3.7241 0.0494
11.2400 3.7309 0.0512
11.2600 3.7376 0.0481
11.2800 3.7443 0.0494
11.3000 3.7510 0.0497
11.3200 3.7576 0.0497
11.3400 3.7642 0.0460
11.3600 3.7708 0.0530
11.3800 3.7774 0.0542
11.4000 3.7842 0.0484
11.4200 3.7909 0.0449
11.4400 3.7976 0.0486
11.4600 3.8042 0.0536
11.4800 3.8109 0.0480
11.5000 3.8176 0.0461
11.5200 3.8242 0.0564
11.5400 3.8308 0.0476
11.5600 3.8374 0.0489
11.5800 3.8441 0.0584
11.6000 3.8508 0.0473
11.6200 3.8575 0.0501
11.6400 3.8642 0.0561
11.6600 3.8708 0.0499
11.6800 3.8775 0.0511
11.7000 3.8841 0.0492
11.7200 3.8907 0.0486
11.7400 3.8974 0.0512
11.7600 3.9041 0.0519
11.7800 3.9108 0.0481
11.8000 3.9175 0.0504
11.8200 3.9242 0.0577
11.8400 3.9309 0.0445
11.8600 3.9375 0.0508
11.8800 3.9441 0.0534
11.9000 3.9507 0.0480
11.9200 3.9574 0.0470
11.9400 3.9642 0.0545
11.9600 3.9709 0.0470
11.9800 3.9776 0.0518
12.0000 3.9842 0.0591
12.0200 3.9909 0.0405
12.0400 3.9975 0.0517
12.0600 4.0042 0.0618
12.0800 4.0108 0.0447
12.1000 4.0175 0.0544
12.1200 4.0242 0.0590
12.1400 4.0309 0.0420
12.1600 4.0375 0.0574
12.1800 4.0442 0.0558
12.2000 4.0509 0.0408
12.2200 4.0576 0.0586
12.2400 4.0642 0.0508
12.2600 4.0708 0.0398
12.2800 4.0774 0.0652
12.3000 4.0841 0.0533
12.3200 4.0908 0.0401
12.3400 4.0975 0.0554
12.3600 4.1042 0.0510
12.3800 4.1109 0.0453
12.4000 4.1175 0.0564
12.4200 4.1241 0.0426
12.4400 4.1307 0.0507
12.4600 4.1374 0.0580
12.4800 4.1441 0.0458
12.5000 4.1508 0.0528
12.5200 4.1575 0.0578
12.5400 4.1642 0.0475
12.5600 4.1709 0.0485
12.5800 4.1775 0.0464
12.6000 4.1842 0.0505
12.6200 4.1908 0.0519
12.6400 4.1974 0.0503
12.6600 4.2041 0.0527
12.6800 4.2108 0.0501
12.7000 4.2175 0.0479
12.7200 4.2242 0.0523
12.7400 4.2309 0.0497
12.7600 4.2376 0.0489
12.7800 4.2442 0.0600
12.8000 4.2508 0.0428
12.8200 4.2574 0.0526
12.8400 4.2641 0.0620
12.8600 4.2708 0.0388
12.8800 4.2776 0.0549
12.9000 4.2842 0.0581
12.9200 4.2909 0.0403
12.9400 4.2976 0.0583
12.9600 4.3042 0.0560
12.9800 4.3108 0.0371
13.0000 4.3174 0.0610
13.0200 4.3241 0.0542
13.0400 4.3309 0.0384
13.0600 4.3375 0.0580
13.0800 4.3442 0.0530
13.1000 4.3509 0.0423
13.1200 4.3575 0.0620
13.1400 4.3642 0.0447
13.1600 4.3708 0.0498
13.1800 4.3774 0.0625
13.2000 4.3841 0.0478
13.2200 4.3908 0.0512
13.2400 4.3975 0.0608
13.2600 4.4042 0.0501
13.2800 4.4109 0.0486
13.3000 4.4176 0.0554
13.3200 4.4242 0.0506
13.3400 4.4308 0.0546
13.3600 4.4374 0.0527
13.3800 4.4441 0.0545
13.4000 4.4509 0.0550
13.4200 4.4576 0.0427
13.4400 4.4643 0.0533
13.4600 4.4709 0.0555
13.4800 4.4776 0.0429
13.5000 4.4842 0.0624
13.5200 4.4908 0.0528
13.5400 4.4975 0.0429
13.5600 4.5042 0.0616
13.5800 4.5109 0.0499
13.6000 4.5175 0.0453
13.6200 4.5242 0.0644
13.6400 4.5309 0.0448
13.6600 4.5375 0.0495
13.6800 4.5441 0.0653
13.7000 4.5507 0.0426
13.7200 4.5574 0.0526
13.7400 4.5641 0.0649
13.7600 4.5708 0.0421
13.7800 4.5775 0.0500
13.8000 4.5842 0.0658
13.8200 4.5909 0.0430
13.8400 4.5976 0.0563
13.8600 4.6042 0.0573
13.8800 4.6108 0.0422
13.9000 4.6174 0.0536
13.9200 4.6241 0.0590
13.9400 4.6308 0.0467
13.9600 4.6375 0.0538
13.9800 4.6442 0.0580
14.0000 4.6509 0.0458
14.0200 4.6575 0.0554
14.0400 4.6641 0.0569
14.0600 4.6707 0.0448
14.0800 4.6774 0.0566
14.1000 4.6841 0.0555
14.1200 4.6908 0.0494
14.1400 4.6975 0.0520
14.1600 4.7042 0.0559
14.1800 4.7109 0.0541
14.2000 4.7176 0.0491
14.2200 4.7242 0.0599
14.2400 4.7308 0.0499
14.2600 4.7375 0.0552
14.2800 4.7441 0.0564
14.3000 4.7508 0.0493
14.3200 4.7576 0.0497
14.3400 4.7642 0.0609
14.3600 4.7709 0.0498
14.3800 4.7776 0.0497
14.4000 4.7842 0.0591
14.4200 4.7908 0.0516
14.4400 4.7974 0.0509
14.4600 4.8041 0.0625
14.4800 4.8108 0.0489
14.5000 4.8175 0.0520
14.5200 4.8242 0.0598
14.5400 4.8308 0.0497
14.5600 4.8375 0.0548
14.5800 4.8441 0.0591
14.6000 4.8508 0.0490
14.6200 4.8574 0.0541
14.6400 4.8641 0.0606
14.6600 4.8708 0.0507
14.6800 4.8775 0.0550
14.7000 4.8841 0.0554
14.7200 4.8908 0.0535
14.7400 4.8975 0.0554
14.7600 4.9042 0.0557
14.7800 4.9108 0.0545
14.8000 4.9174 0.0551
14.8200 4.9241 0.0568
14.8400 4.9308 0.0538
14.8600 4.9375 0.0525
14.8800 4.9442 0.0563
14.9000 4.9509 0.0524
14.9200 4.9576 0.0531
14.9400 4.9642 0.0533
14.9600 4.9708 0.0540
14.9800 4.9774 0.0579
15.0000 4.9841 0.0494
15.0200 4.9908 0.0530
15.0400 4.9976 0.0537
15.0600 5.0042 0.0535
15.0800 5.0109 0.0565
15.1000 5.0176 0.0517
15.1200 5.0242 0.0521
15.1400 5.0308 0.0591
15.1600 5.0375 0.0491
15.1800 5.0441 0.0533
15.2000 5.0508 0.0572
15.2200 5.0575 0.0480
15.2400 5.0642 0.0522
15.2600 5.0709 0.0562
15.2800 5.0776 0.0484
15.3000 5.0842 0.0564
15.3200 5.0908 0.0579
15.3400 5.0974 0.0450
15.3600 5.1040 0.0596
15.3800 5.1108 0.0574
15.4000 5.1175 0.0452
15.4200 5.1242 0.0543
15.4400 5.1308 0.0596
15.4600 5.1375 0.0475
15.4800 5.1442 0.0563
15.5000 5.1508 0.0558
15.5200 5.1574 0.0484
15.5400 5.1641 0.0558
15.5600 5.1708 0.0525
15.5800 5.1775 0.0455
15.6000 5.1842 0.0584
15.6200 5.1909 0.0539
15.6400 5.1976 0.0488
15.6600 5.2042 0.0536
15.6800 5.2108 0.0562
15.7000 5.2175 0.0493
15.7200 5.2241 0.0500
15.7400 5.2309 0.0546
15.7600 5.2376 0.0486
15.7800 5.2442 0.0502
15.8000 5.2509 0.0497
15.8200 5.2576 0.0515
15.8400 5.2642 0.0519
15.8600 5.2708 0.0527
15.8800 5.2774 0.0510
15.9000 5.2841 0.0529
15.9200 5.2908 0.0543
15.9400 5.2975 0.0475
15.9600 5.3042 0.0511
15.9800 5.3109 0.0546
16.0000 5.3175 0.0466
16.0200 5.3242 0.0501
16.0400 5.3308 0.0559
16.0600 5.3374 0.0522
16.0800 5.3441 0.0522
16.1000 5.3508 0.0560
16.1200 5.3575 0.0456
16.1400 5.3642 0.0526
16.1600 5.3708 0.0566
16.1800 5.3775 0.0485
16.2000 5.3842 0.0548
16.2200 5.3908 0.0523
16.2400 5.3975 0.0499
16.2600 5.4041 0.0528
16.2800 5.4108 0.0536
16.3000 5.4175 0.0477
16.3200 5.4242 0.0539
16.3400 5.4309 0.0573
16.3600 5.4376 0.0489
16.3800 5.4442 0.0510
16.4000 5.4508 0.0568
16.4200 5.4574 0.0534
16.4400 5.4641 0.0520
16.4600 5.4708 0.0532
16.4800 5.4775 0.0527
16.5000 5.4842 0.0523
16.5200 5.4909 0.0534
16.5400 5.4975 0.0552
16.5600 5.5042 0.0502
16.5800 5.5108 0.0536
16.6000 5.5174 0.0539
16.6200 5.5241 0.0509
16.6400 5.5308 0.0509
16.6600 5.5375 0.0547
16.6800 5.5442 0.0487
16.7000 5.5508 0.0534
16.7200 5.5575 0.0552
16.7400 5.5642 0.0503
16.7600 5.5708 0.0497
16.7800 5.5774 0.0626
16.8000 5.5841 0.0501
16.8200 5.5908 0.0508
16.8400 5.5975 0.0594
16.8600 5.6042 0.0464
16.8800 5.6109 0.0539
16.9000 5.6176 0.0594
16.9200 5.6242 0.0483
16.9400 5.6308 0.0521
16.9600 5.6374 0.0579
16.9800 5.6441 0.0535
17.0000 5.6508 0.0536
17.0200 5.6575 0.0590
17.0400 5.6642 0.0470
17.0600 5.6709 0.0561
17.0800 5.6776 0.0618
17.1000 5.6842 0.0438
17.1200 5.6908 0.0575
17.1400 5.6974 0.0593
17.1600 5.7041 0.0489
17.1800 5.7108 0.0564
17.2000 5.7175 0.0585
17.2200 5.7242 0.0475
17.2400 5.7309 0.0565
17.2600 5.7376 0.0628
17.2800 5.7442 0.0487
17.3000 5.7508 0.0542
17.3200 5.7574 0.0589
17.3400 5.7641 0.0517
17.3600 5.7708 0.0625
17.3800 5.7775 0.0566
17.4000 5.7842 0.0505
17.4200 5.7909 0.0566
17.4400 5.7976 0.0590
17.4600 5.8042 0.0522
17.4800 5.8108 0.0531
17.5000 5.8174 0.0666
17.5200 5.8240 0.0483
17.5400 5.8308 0.0534
17.5600 5.8375 0.0681
17.5800 5.8442 0.0473
17.6000 5.8508 0.0512
17.6200 5.8575 0.0648
17.6400 5.8642 0.0454
17.6600 5.8708 0.0520
17.6800 5.8774 0.0673
17.7000 5.8841 0.0475
17.7200 5.8908 0.0554
17.7400 5.8975 0.0656
17.7600 5.9042 0.0444
17.7800 5.9109 0.0546
17.8000 5.9176 0.0652
17.8200 5.9243 0.0494
17.8400 5.9309 0.0568
17.8600 5.9375 0.0616
17.8800 5.9441 0.0503
17.9000 5.9508 0.0565
17.9200 5.9575 0.0681
17.9400 5.9642 0.0492
17.9600 5.9709 0.0566
17.9800 5.9776 0.0632
18.0000 5.9842 0.0458
18.0200 5.9908 0.0550
18.0400 5.9974 0.0667
18.0600 6.0041 0.0499
18.0800 6.0108 0.0549
18.1000 6.0175 0.0609
18.1200 6.0242 0.0486
18.1400 6.0309 0.0535
18.1600 6.0375 0.0623
18.1800 6.0442 0.0469
18.2000 6.0508 0.0513
18.2200 6.0575 0.0662
18.2400 6.0641 0.0482
18.2600 6.0708 0.0556
18.2800 6.0775 0.0656
18.3000 6.0841 0.0494
18.3200 6.0908 0.0536
18.3400 6.0975 0.0660
18.3600 6.1042 0.0476
18.3800 6.1109 0.0499
18.4000 6.1175 0.0633
18.4200 6.1241 0.0484
18.4400 6.1308 0.0506
18.4600 6.1375 0.0604
18.4800 6.1442 0.0448
18.5000 6.1509 0.0549
18.5200 6.1576 0.0582
18.5400 6.1642 0.0503
18.5600 6.1708 0.0556
18.5800 6.1774 0.0589
18.6000 6.1841 0.0483
18.6200 6.1908 0.0520
18.6400 6.1975 0.0611
18.6600 6.2042 0.0456
18.6800 6.2109 0.0549
18.7000 6.2176 0.0631
18.7200 6.2242 0.0475
18.7400 6.2309 0.0505
18.7600 6.2375 0.0622
18.7800 6.2441 0.0556
18.8000 6.2508 0.0508
18.8200 6.2575 0.0591
18.8400 6.2642 0.0565
18.8600 6.2708 0.0519
18.8800 6.2775 0.0606
18.9000 6.2842 0.0492
18.9200 6.2909 0.0524
18.9400 6.2975 0.0639
18.9600 6.3041 0.0524
18.9800 6.3107 0.0540
19.0000 6.3174 0.0626
19.0200 6.3241 0.0506
19.0400 6.3308 0.0527
19.0600 6.3375 0.0639
19.0800 6.3442 0.0481
19.1000 6.3508 0.0513
19.1200 6.3574 0.0625
19.1400 6.3641 0.0560
19.1600 6.3708 0.0539
19.1800 6.3775 0.0605
19.2000 6.3842 0.0525
19.2200 6.3909 0.0530
19.2400 6.3976 0.0588
19.2600 6.4042 0.0536
19.2800 6.4109 0.0521
19.3000 6.4175 0.0604
19.3200 6.4241 0.0549
19.3400 6.4308 0.0504
19.3600 6.4375 0.0599
19.3800 6.4442 0.0536
19.4000 6.4509 0.0516
19.4200 6.4575 0.0612
19.4400 6.4642 0.0546
19.4600 6.4709 0.0475
19.4800 6.4775 0.0607
19.5000 6.4841 0.0534
19.5200 6.4908 0.0527
19.5400 6.4975 0.0633
19.5600 6.5042 0.0525
19.5800 6.5108 0.0525
19.6000 6.5175 0.0571
19.6200 6.5242 0.0510
19.6400 6.5308 0.0554
19.6600 6.5374 0.0568
19.6800 6.5440 0.0586
19.7000 6.5507 0.0515
19.7200 6.5575 0.0554
19.7400 6.5642 0.0566
19.7600 6.5708 0.0497
19.7800 6.5775 0.0569
19.8000 6.5842 0.0576
19.8200 6.5908 0.0499
19.8400 6.5975 0.0517
19.8600 6.6041 0.0630
19.8800 6.6108 0.0518
19.9000 6.6175 0.0564
19.9200 6.6242 0.0593
19.9400 6.6309 0.0502
19.9600 6.6376 0.0587
19.9800 6.6443 0.0595
20.0000 6.6509 0.0505
20.0200 6.6575 0.0608
20.0400 6.6641 0.0585
20.0600 6.6708 0.0535
20.0800 6.6775 0.0618
20.1000 6.6842 0.0555
20.1200 6.6909 0.0524
20.1400 6.6976 0.0612
20.1600 6.7042 0.0566
20.1800 6.7109 0.0522
20.2000 6.7175 0.0605
20.2200 6.7241 0.0570
20.2400 6.7308 0.0504
20.2600 6.7375 0.0609
20.2800 6.7442 0.0561
20.3000 6.7508 0.0519
20.3200 6.7575 0.0619
20.3400 6.7642 0.0562
20.3600 6.7708 0.0571
20.3800 6.7775 0.0545
20.4000 6.7841 0.0620
20.4200 6.7907 0.0574
20.4400 6.7974 0.0578
20.4600 6.8041 0.0506
20.4800 6.8108 0.0576
20.5000 6.8175 0.0597
20.5200 6.8242 0.0533
20.5400 6.8309 0.0573
20.5600 6.8375 0.0543
20.5800 6.8441 0.0594
20.6000 6.8508 0.0582
20.6200 6.8575 0.0528
20.6400 6.8642 0.0603
20.6600 6.8709 0.0533
20.6800 6.8776 0.0489
20.7000 6.8843 0.0628
20.7200 6.8909 0.0525
20.7400 6.8975 0.0516
20.7600 6.9041 0.0614
20.7800 6.9108 0.0573
20.8000 6.9175 0.0542
20.8200 6.9242 0.0607
20.8400 6.9309 0.0518
20.8600 6.9375 0.0578
20.8800 6.9442 0.0619
20.9000 6.9509 0.0495
20.9200 6.9575 0.0554
20.9400 6.9641 0.0616
20.9600 6.9708 0.0552
20.9800 6.9775 0.0556
21.0000 6.9842 0.0581
21.0200 6.9908 0.0540
21.0400 6.9975 0.0562
21.0600 7.0042 0.0611
21.0800 7.0109 0.0524
21.1000 7.0175 0.0548
21.1200 7.0241 0.0591
21.1400 7.0307 0.0568
21.1600 7.0374 0.0578
21.1800 7.0441 0.0543
21.2000 7.0508 0.0593
21.2200 7.0575 0.0555
21.2400 7.0642 0.0541
21.2600 7.0708 0.0548
21.2800 7.0774 0.0546
21.3000 7.0841 0.0577
21.3200 7.0907 0.0565
21.3400 7.0974 0.0539
21.3600 7.1042 0.0533
21.3800 7.1109 0.0571
21.4000 7.1175 0.0543
21.4200 7.1242 0.0568
21.4400 7.1309 0.0574
21.4600 7.1375 0.0502
21.4800 7.1441 0.0562
21.5000 7.1508 0.0635
21.5200 7.1575 0.0527
21.5400 7.1642 0.0563
21.5600 7.1709 0.0592
21.5800 7.1776 0.0508
21.6000 7.1842 0.0564
21.6200 7.1909 0.0587
21.6400 7.1975 0.0542
21.6600 7.2041 0.0586
21.6800 7.2108 0.0582
21.7000 7.2175 0.0549
21.7200 7.2242 0.0524
21.7400 7.2309 0.0591
21.7600 7.2375 0.0540
21.7800 7.2442 0.0525
21.8000 7.2509 0.0575
21.8200 7.2575 0.0507
21.8400 7.2641 0.0530
21.8600 7.2707 0.0612
21.8800 7.2774 0.0533
21.9000 7.2841 0.0519
21.9200 7.2908 0.0632
21.9400 7.2975 0.0512
21.9600 7.3042 0.0549
21.9800 7.3109 0.0627
22.0000 7.3175 0.0507
22.0200 7.3241 0.0538
22.0400 7.3308 0.0596
22.0600 7.3375 0.0480
22.0800 7.3442 0.0566
22.1000 7.3509 0.0569
22.1200 7.3576 0.0518
22.1400 7.3643 0.0511
22.1600 7.3709 0.0600
22.1800 7.3775 0.0537
22.2000 7.3841 0.0511
22.2200 7.3908 0.0615
22.2400 7.3975 0.0524
22.2600 7.4042 0.0511
22.2800 7.4109 0.0589
22.3000 7.4176 0.0566
22.3200 7.4242 0.0514
22.3400 7.4309 0.0563
22.3600 7.4375 0.0532
22.3800 7.4441 0.0514
22.4000 7.4507 0.0633
22.4200 7.4574 0.0526
22.4400 7.4641 0.0492
22.4600 7.4708 0.0629
22.4800 7.4775 0.0497
22.5000 7.4842 0.0522
22.5200 7.4909 0.0613
22.5400 7.4975 0.0485
22.5600 7.5041 0.0542
22.5800 7.5107 0.0647
22.6000 7.5174 0.0487
22.6200 7.5241 0.0531
22.6400 7.5309 0.0612
22.6600 7.5376 0.0437
22.6800 7.5442 0.0534
22.7000 7.5509 0.0612
22.7200 7.5575 0.0455
22.7400 7.5641 0.0564
22.7600 7.5708 0.0630
22.7800 7.5775 0.0451
22.8000 7.5842 0.0582
22.8200 7.5909 0.0576
22.8400 7.5975 0.0458
22.8600 7.6042 0.0541
22.8800 7.6109 0.0568
22.9000 7.6175 0.0466
22.9200 7.6242 0.0596
22.9400 7.6308 0.0546
22.9600 7.6375 0.0465
22.9800 7.6442 0.0554
23.0000 7.6509 0.0551
23.0200 7.6576 0.0537
23.0400 7.6642 0.0534
23.0600 7.6709 0.0507
23.0800 7.6775 0.0498
23.1000 7.6841 0.0565
23.1200 7.6908 0.0582
23.1400 7.6974 0.0544
23.1600 7.7041 0.0522
23.1800 7.7109 0.0541
23.2000 7.7175 0.0545
23.2200 7.7242 0.0533
23.2400 7.7309 0.0531
23.2600 7.7375 0.0585
23.2800 7.7441 0.0510
23.3000 7.7507 0.0584
23.3200 7.7574 0.0536
23.3400 7.7641 0.0471
23.3600 7.7708 0.0613
23.3800 7.7775 0.0555
23.4000 7.7841 0.0493
23.4200 7.7908 0.0569
23.4400 7.7975 0.0543
23.4600 7.8041 0.0528
23.4800 7.8107 0.0566
23.5000 7.8174 0.0588
23.5200 7.8242 0.0505
23.5400 7.8309 0.0544
23.5600 7.8376 0.0587
23.5800 7.8442 0.0486
23.6000 7.8509 0.0615
23.6200 7.8576 0.0556
23.6400 7.8642 0.0456
23.6600 7.8708 0.0604
23.6800 7.8775 0.0619
23.7000 7.8842 0.0439
23.7200 7.8909 0.0585
23.7400 7.8976 0.0626
23.7600 7.9043 0.0449
23.7800 7.9109 0.0560
23.8000 7.9175 0.0582
23.8200 7.9241 0.0448
23.8400 7.9308 0.0606
23.8600 7.9374 0.0558
23.8800 7.9442 0.0437
23.9000 7.9508 0.0635
23.9200 7.9575 0.0547
23.9400 7.9642 0.0442
23.9600 7.9709 0.0627
23.9800 7.9775 0.0569
24.0000 7.9842 0.0455
24.0200 7.9908 0.0627
24.0400 7.9974 0.0537
24.0600 8.0041 0.0467
24.0800 8.0108 0.0595
24.1000 8.0175 0.0544
24.1200 8.0242 0.0511
24.1400 8.0309 0.0606
24.1600 8.0375 0.0487
24.1800 8.0441 0.0472
24.2000 8.0507 0.0644
24.2200 8.0574 0.0535
24.2400 8.0641 0.0446
24.2600 8.0709 0.0609
24.2800 8.0776 0.0514
24.3000 8.0843 0.0504
24.3200 8.0909 0.0598
24.3400 8.0975 0.0549
24.3600 8.1041 0.0556
24.3800 8.1108 0.0576
24.4000 8.1175 0.0523
24.4200 8.1242 0.0514
24.4400 8.1309 0.0581
24.4600 8.1376 0.0511
24.4800 8.1442 0.0542
24.5000 8.1509 0.0580
24.5200 8.1575 0.0545
24.5400 8.1641 0.0532
24.5600 8.1708 0.0582
24.5800 8.1774 0.0555
24.6000 8.1841 0.0530
24.6200 8.1908 0.0529
24.6400 8.1975 0.0569
24.6600 8.2042 0.0521
24.6800 8.2109 0.0504
24.7000 8.2175 0.0579
24.7200 8.2241 0.0500
24.7400 8.2307 0.0527
24.7600 8.2374 0.0628
24.7800 8.2441 0.0514
24.8000 8.2508 0.0524
24.8200 8.2575 0.0603
24.8400 8.2642 0.0468
24.8600 8.2709 0.0572
24.8800 8.2775 0.0590
24.9000 8.2841 0.0481
24.9200 8.2908 0.0563
24.9400 8.2974 0.0601
24.9600 8.3042 0.0426
24.9800 8.3108 0.0569
25.0000 8.3175 0.0581
25.0200 8.3242 0.0491
25.0400 8.3309 0.0570
25.0600 8.3376 0.0504
25.0800 8.3442 0.0502
25.1000 8.3508 0.0612
25.1200 8.3574 0.0538
25.1400 8.3641 0.0451
25.1600 8.3708 0.0538
25.1800 8.3775 0.0563
25.2000 8.3842 0.0501
25.2200 8.3909 0.0521
25.2400 8.3976 0.0553
25.2600 8.4041 0.0522
25.2800 8.4108 0.0522
25.3000 8.4174 0.0463
25.3200 8.4241 0.0566
25.3400 8.4309 0.0514
25.3600 8.4375 0.0489
25.3800 8.4442 0.0566
25.4000 8.4509 0.0505
25.4200 8.4575 0.0538
25.4400 8.4642 0.0493
25.4600 8.4707 0.0502
25.4800 8.4774 0.0609
25.5000 8.4841 0.0490
25.5200 8.4908 0.0451
25.5400 8.4975 0.0552
25.5600 8.5042 0.0532
25.5800 8.5108 0.0488
25.6000 8.5175 0.0549
25.6200 8.5241 0.0544
25.6400 8.5307 0.0447
25.6600 8.5374 0.0616
25.6800 8.5441 0.0478
25.7000 8.5508 0.0513
25.7200 8.5576 0.0577
25.7400 8.5643 0.0479
25.7600 8.5710 0.0502
25.7800 8.5776 0.0550
25.8000 8.5842 0.0475
25.8200 8.5908 0.0548
25.8400 8.5974 0.0615
25.8600 8.6041 0.0459
25.8800 8.6109 0.0472
25.9000 8.6176 0.0580
25.9200 8.6243 0.0474
25.9400 8.6309 0.0516
25.9600 8.6376 0.0549
25.9800 8.6442 0.0504
26.0000 8.6508 0.0553
26.0200 8.6574 0.0480
26.0400 8.6641 0.0527
26.0600 8.6708 0.0523
26.0800 8.6775 0.0510
26.1000 8.6842 0.0540
26.1200 8.6909 0.0508
26.1400 8.6975 0.0468
26.1600 8.7041 0.0505
26.1800 8.7107 0.0534
26.2000 8.7174 0.0531
26.2200 8.7241 0.0496
26.2400 8.7308 0.0496
26.2600 8.7375 0.0524
26.2800 8.7442 0.0600
26.3000 8.7509 0.0486
26.3200 8.7575 0.0485
26.3400 8.7641 0.0539
26.3600 8.7708 0.0487
26.3800 8.7774 0.0554
26.4000 8.7841 0.0524
26.4200 8.7909 0.0539
26.4400 8.7976 0.0497
26.4600 8.8042 0.0515
26.4800 8.8109 0.0500
26.5000 8.8176 0.0548
26.5200 8.8242 0.0511
26.5400 8.8308 0.0501
26.5600 8.8375 0.0515
26.5800 8.8442 0.0491
26.6000 8.8508 0.0533
26.6200 8.8575 0.0527
26.6400 8.8642 0.0485
26.6600 8.8709 0.0527
26.6800 8.8776 0.0465
26.7000 8.8842 0.0506
26.7200 8.8908 0.0561
26.7400 8.8974 0.0460
26.7600 8.9041 0.0565
26.7800 8.9108 0.0505
26.8000 8.9175 0.0466
26.8200 8.9242 0.0570
26.8400 8.9309 0.0563
26.8600 8.9375 0.0439
26.8800 8.9442 0.0549
26.9000 8.9507 0.0554
26.9200 8.9574 0.0478
26.9400 8.9641 0.0573
26.9600 8.9708 0.0550
26.9800 8.9775 0.0471
27.0000 8.9842 0.0613
27.0200 8.9909 0.0493
27.0400 8.9975 0.0466
27.0600 9.0042 0.0615
27.0800 9.0108 0.0491
27.1000 9.0174 0.0470
27.1200 9.0241 0.0564
27.1400 9.0308 0.0489
27.1600 9.0375 0.0496
27.1800 9.0442 0.0557
27.2000 9.0509 0.0435
27.2200 9.0576 0.0523
27.2400 9.0642 0.0544
27.2600 9.0708 0.0459
27.2800 9.0774 0.0523
27.3000 9.0841 0.0563
27.3200 9.0909 0.0469
27.3400 9.0976 0.0492
27.3600 9.1042 0.0509
27.3800 9.1109 0.0568
27.4000 9.1176 0.0448
27.4200 9.1242 0.0527
27.4400 9.1308 0.0556
27.4600 9.1374 0.0429
27.4800 9.1441 0.0540
27.5000 9.1508 0.0524
27.5200 9.1575 0.0363
27.5400 9.1642 0.0576
27.5600 9.1709 0.0543
27.5800 9.1776 0.0379
27.6000 9.1842 0.0572
27.6200 9.1908 0.0517
27.6400 9.1974 0.0386
27.6600 9.2041 0.0573
27.6800 9.2108 0.0502
27.7000 9.2175 0.0374
27.7200 9.2242 0.0655
27.7400 9.2309 0.0453
27.7600 9.2375 0.0382
27.7800 9.2442 0.0630
27.8000 9.2508 0.0495
27.8200 9.2574 0.0406
27.8400 9.2641 0.0581
27.8600 9.2709 0.0452
27.8800 9.2776 0.0405
27.9000 9.2842 0.0576
27.9200 9.2909 0.0471
27.9400 9.2976 0.0420
27.9600 9.3042 0.0558
27.9800 9.3108 0.0483
28.0000 9.3175 0.0436
28.0200 9.3242 0.0563
28.0400 9.3309 0.0430
28.0600 9.3375 0.0422
28.0800 9.3442 0.0563
28.1000 9.3509 0.0474
28.1200 9.3576 0.0420
28.1400 9.3642 0.0566
28.1600 9.3708 0.0461
28.1800 9.3774 0.0439
28.2000 9.3841 0.0554
28.2200 9.3908 0.0472
28.2400 9.3975 0.0413
28.2600 9.4042 0.0564
28.2800 9.4109 0.0442
28.3000 9.4176 0.0410
28.3200 9.4242 0.0593
28.3400 9.4308 0.0474
28.3600 9.4374 0.0423
28.3800 9.4441 0.0575
28.4000 9.4508 0.0461
28.4200 9.4575 0.0449
28.4400 9.4642 0.0565
28.4600 9.4709 0.0441
28.4800 9.4775 0.0436
28.5000 9.4842 0.0529
28.5200 9.4908 0.0464
28.5400 9.4974 0.0464
28.5600 9.5041 0.0577
28.5800 9.5108 0.0410
28.6000 9.5175 0.0431
28.6200 9.5242 0.0592
28.6400 9.5309 0.0423
28.6600 9.5376 0.0468
28.6800 9.5442 0.0595
28.7000 9.5508 0.0402
28.7200 9.5575 0.0524
28.7400 9.5641 0.0531
28.7600 9.5708 0.0439
28.7800 9.5775 0.0497
28.8000 9.5842 0.0530
28.8200 9.5909 0.0457
28.8400 9.5976 0.0471
28.8600 9.6042 0.0534
28.8800 9.6108 0.0482
28.9000 9.6174 0.0512
28.9200 9.6241 0.0537
28.9400 9.6308 0.0466
28.9600 9.6375 0.0468
28.9800 9.6442 0.0534
29.0000 9.6508 0.0518
29.0200 9.6575 0.0445
29.0400 9.6642 0.0497
29.0600 9.6708 0.0507
29.0800 9.6774 0.0442
29.1000 9.6841 0.0495
29.1200 9.6908 0.0539
29.1400 9.6975 0.0475
29.1600 9.7042 0.0458
29.1800 9.7108 0.0548
29.2000 9.7175 0.0466
29.2200 9.7242 0.0475
29.2400 9.7308 0.0569
29.2600 9.7374 0.0451
29.2800 9.7441 0.0496
29.3000 9.7508 0.0550
29.3200 9.7575 0.0440
29.3400 9.7642 0.0524
29.3600 9.7709 0.0552
29.3800 9.7776 0.0407
29.4000 9.7842 0.0493
29.4200 9.7908 0.0566
29.4400 9.7974 0.0447
29.4600 9.8041 0.0482
29.4800 9.8108 0.0577
29.5000 9.8175 0.0465
29.5200 9.8242 0.0515
29.5400 9.8309 0.0510
29.5600 9.8376 0.0448
29.5800 9.8442 0.0495
29.6000 9.8508 0.0512
29.6200 9.8574 0.0476
29.6400 9.8641 0.0503
29.6600 9.8708 0.0522
29.6800 9.8775 0.0514
29.7000 9.8842 0.0514
29.7200 9.8909 0.0449
29.7400 9.8975 0.0530
29.7600 9.9042 0.0436
29.7800 9.9108 0.0495
29.8000 9.9174 0.0532
29.8200 9.9240 0.0474
29.8400 9.9308 0.0515
29.8600 9.9375 0.0485
29.8800 9.9442 0.0459
29.9000 9.9508 0.0554
29.9200 9.9575 0.0537
29.9400 9.9642 0.0431
29.9600 9.9708 0.0545
29.9800 9.9774 0.0538
30.0000 9.9841 0.0444
30.0200 9.9908 0.0552
30.0400 9.9975 0.0477
30.0600 10.0042 0.0467
30.0800 10.0109 0.0570
30.1000 10.0176 0.0520
30.1200 10.0242 0.0439
30.1400 10.0309 0.0546
30.1600 10.0375 0.0523
30.1800 10.0441 0.0424
30.2000 10.0508 0.0536
30.2200 10.0575 0.0488
30.2400 10.0642 0.0522
30.2600 10.0709 0.0548
30.2800 10.0776 0.0474
30.3000 10.0842 0.0485
30.3200 10.0908 0.0523
30.3400 10.0974 0.0473
30.3600 10.1041 0.0519
30.3800 10.1108 0.0530
30.4000 10.1175 0.0471
30.4200 10.1242 0.0447
30.4400 10.1308 0.0538
30.4600 10.1375 0.0529
30.4800 10.1442 0.0461
30.5000 10.1508 0.0494
30.5200 10.1574 0.0474
30.5400 10.1641 0.0532
30.5600 10.1708 0.0494
30.5800 10.1775 0.0471
30.6000 10.1842 0.0467
30.6200 10.1909 0.0562
30.6400 10.1975 0.0491
30.6600 10.2042 0.0454
30.6800 10.2108 0.0520
30.7000 10.2175 0.0509
30.7200 10.2241 0.0464
30.7400 10.2308 0.0539
30.7600 10.2375 0.0541
30.7800 10.2442 0.0461
30.8000 10.2509 0.0492
30.8200 10.2576 0.0541
30.8400 10.2643 0.0444
30.8600 10.2709 0.0539
30.8800 10.2774 0.0567
30.9000 10.2841 0.0404
30.9200 10.2908 0.0540
30.9400 10.2975 0.0547
30.9600 10.3042 0.0400
30.9800 10.3109 0.0529
31.0000 10.3176 0.0513
31.0200 10.3242 0.0389
31.0400 10.3308 0.0541
31.0600 10.3374 0.0544
31.0800 10.3441 0.0424
31.1000 10.3508 0.0523
31.1200 10.3575 0.0549
31.1400 10.3642 0.0401
31.1600 10.3708 0.0564
31.1800 10.3775 0.0523
31.2000 10.3842 0.0423
31.2200 10.3908 0.0516
31.2400 10.3974 0.0462
31.2600 10.4041 0.0494
31.2800 10.4108 0.0510
31.3000 10.4175 0.0510
31.3200 10.4242 0.0453
31.3400 10.4308 0.0533
31.3600 10.4376 0.0491
31.3800 10.4442 0.0493
31.4000 10.4509 0.0542
31.4200 10.4574 0.0528
31.4400 10.4641 0.0462
31.4600 10.4708 0.0519
31.4800 10.4775 0.0534
31.5000 10.4842 0.0470
31.5200 10.4909 0.0499
31.5400 10.4976 0.0528
31.5600 10.5042 0.0424
31.5800 10.5109 0.0532
31.6000 10.5175 0.0510
31.6200 10.5241 0.0459
31.6400 10.5308 0.0533
31.6600 10.5375 0.0520
31.6800 10.5442 0.0404
31.7000 10.5509 0.0436
31.7200 10.5576 0.0638
31.7400 10.5642 0.0432
31.7600 10.5709 0.0413
31.7800 10.5775 0.0633
31.8000 10.5841 0.0507
31.8200 10.5908 0.0426
31.8400 10.5975 0.0594
31.8600 10.6042 0.0436
31.8800 10.6109 0.0426
31.9000 10.6176 0.0574
31.9200 10.6242 0.0444
31.9400 10.6308 0.0419
31.9600 10.6374 0.0633
31.9800 10.6440 0.0401
32.0000 10.6507 0.0457
32.0200 10.6575 0.0674
32.0400 10.6642 0.0381
32.0600 10.6708 0.0489
32.0800 10.6775 0.0611
32.1000 10.6842 0.0343
32.1200 10.6908 0.0502
32.1400 10.6975 0.0627
32.1600 10.7041 0.0342
32.1800 10.7108 0.0525
32.2000 10.7175 0.0601
32.2200 10.7242 0.0358
32.2400 10.7309 0.0527
32.2600 10.7376 0.0539
32.2800 10.7443 0.0380
32.3000 10.7509 0.0590
32.3200 10.7575 0.0521
32.3400 10.7641 0.0451
32.3600 10.7708 0.0504
32.3800 10.7775 0.0479
32.4000 10.7842 0.0466
32.4200 10.7909 0.0528
32.4400 10.7976 0.0440
32.4600 10.8042 0.0438
32.4800 10.8108 0.0521
32.5000 10.8174 0.0465
32.5200 10.8241 0.0508
32.5400 10.8308 0.0493
32.5600 10.8375 0.0497
32.5800 10.8442 0.0450
32.6000 10.8509 0.0443
32.6200 10.8575 0.0562
32.6400 10.8642 0.0501
32.6600 10.8708 0.0421
32.6800 10.8775 0.0533
32.7000 10.8841 0.0485
32.7200 10.8908 0.0495
32.7400 10.8975 0.0528
32.7600 10.9042 0.0484
32.7800 10.9108 0.0432
32.8000 10.9175 0.0532
32.8200 10.9242 0.0476
32.8400 10.9309 0.0444
32.8600 10.9375 0.0533
32.8800 10.9441 0.0474
32.9000 10.9508 0.0486
32.9200 10.9575 0.0486
32.9400 10.9642 0.0464
32.9600 10.9709 0.0502
32.9800 10.9776 0.0492
33.0000 10.9842 0.0436
33.0200 10.9908 0.0532
33.0400 10.9974 0.0528
33.0600 11.0041 0.0439
33.0800 11.0108 0.0500
33.1000 11.0175 0.0533
33.1200 11.0242 0.0423
33.1400 11.0309 0.0537
33.1600 11.0376 0.0526
33.1800 11.0443 0.0468
33.2000 11.0509 0.0504
33.2200 11.0575 0.0462
33.2400 11.0641 0.0505
33.2600 11.0708 0.0545
33.2800 11.0775 0.0443
33.3000 11.0842 0.0453
33.3200 11.0909 0.0558
33.3400 11.0975 0.0472
33.3600 11.1042 0.0427
33.3800 11.1109 0.0513
33.4000 11.1175 0.0518
33.4200 11.1241 0.0449
33.4400 11.1307 0.0513
33.4600 11.1374 0.0440
33.4800 11.1441 0.0536
33.5000 11.1508 0.0537
33.5200 11.1575 0.0452
33.5400 11.1642 0.0464
33.5600 11.1709 0.0563
33.5800 11.1775 0.0507
33.6000 11.1841 0.0524
33.6200 11.1908 0.0465
33.6400 11.1975 0.0512
33.6600 11.2042 0.0528
33.6800 11.2109 0.0478
33.7000 11.2176 0.0472
33.7200 11.2243 0.0527
33.7400 11.2309 0.0487
33.7600 11.2375 0.0466
33.7800 11.2441 0.0585
33.8000 11.2508 0.0435
33.8200 11.2575 0.0491
33.8400 11.2642 0.0527
33.8600 11.2709 0.0462
33.8800 11.2775 0.0548
33.9000 11.2842 0.0557
33.9200 11.2909 0.0381
33.9400 11.2975 0.0568
33.9600 11.3041 0.0583
33.9800 11.3107 0.0422
34.0000 11.3174 0.0576
34.0200 11.3242 0.0542
34.0400 11.3309 0.0392
34.0600 11.3376 0.0636
34.0800 11.3442 0.0549
34.1000 11.3509 0.0373
34.1200 11.3574 0.0625
34.1400 11.3640 0.0541
34.1600 11.3707 0.0449
34.1800 11.3774 0.0593
34.2000 11.3842 0.0476
34.2200 11.3908 0.0428
34.2400 11.3975 0.0596
34.2600 11.4042 0.0472
34.2800 11.4109 0.0478
34.3000 11.4175 0.0615
34.3200 11.4241 0.0504
34.3400 11.4308 0.0457
34.3600 11.4375 0.0601
34.3800 11.4442 0.0502
34.4000 11.4509 0.0480
34.4200 11.4576 0.0550
34.4400 11.4643 0.0522
34.4600 11.4709 0.0501
34.4800 11.4775 0.0504
34.5000 11.4841 0.0547
34.5200 11.4908 0.0581
34.5400 11.4975 0.0505
34.5600 11.5042 0.0480
34.5800 11.5109 0.0540
34.6000 11.5176 0.0502
34.6200 11.5242 0.0564
34.6400 11.5309 0.0565
34.6600 11.5375 0.0513
34.6800 11.5441 0.0516
34.7000 11.5508 0.0561
34.7200 11.5575 0.0449
34.7400 11.5642 0.0573
34.7600 11.5708 0.0533
34.7800 11.5775 0.0440
34.8000 11.5842 0.0614
34.8200 11.5908 0.0574
34.8400 11.5975 0.0437
34.8600 11.6041 0.0568
34.8800 11.6107 0.0566
34.9000 11.6174 0.0421
34.9200 11.6241 0.0541
34.9400 11.6308 0.0552
34.9600 11.6375 0.0405
34.9800 11.6442 0.0553
35.0000 11.6509 0.0581
35.0200 11.6575 0.0405
35.0400 11.6641 0.0599
35.0600 11.6708 0.0542
35.0800 11.6775 0.0378
35.1000 11.6842 0.0563
35.1200 11.6909 0.0614
35.1400 11.6976 0.0414
35.1600 11.7042 0.0535
35.1800 11.7109 0.0554
35.2000 11.7175 0.0401
35.2200 11.7241 0.0565
35.2400 11.7308 0.0599
35.2600 11.7375 0.0397
35.2800 11.7442 0.0575
35.3000 11.7509 0.0581
35.3200 11.7575 0.0412
35.3400 11.7642 0.0588
35.3600 11.7709 0.0488
35.3800 11.7775 0.0437
35.4000 11.7842 0.0599
35.4200 11.7908 0.0516
35.4400 11.7975 0.0473
35.4600 11.8042 0.0572
35.4800 11.8108 0.0462
35.5000 11.8175 0.0456
35.5200 11.8242 0.0552
35.5400 11.8309 0.0484
35.5600 11.8375 0.0467
35.5800 11.8441 0.0586
35.6000 11.8507 0.0480
35.6200 11.8574 0.0519
35.6400 11.8641 0.0537
35.6600 11.8708 0.0476
35.6800 11.8775 0.0525
35.7000 11.8842 0.0506
35.7200 11.8908 0.0457
35.7400 11.8975 0.0525
35.7600 11.9041 0.0544
35.7800 11.9108 0.0477
35.8000 11.9174 0.0533
35.8200 11.9242 0.0508
35.8400 11.9308 0.0510
35.8600 11.9375 0.0505
35.8800 11.9442 0.0512
35.9000 11.9509 0.0565
35.9200 11.9575 0.0472
35.9400 11.9641 0.0478
35.9600 11.9708 0.0569
35.9800 11.9775 0.0457
36.0000 11.9842 0.0523
36.0200 11.9909 0.0503
36.0400 11.9975 0.0484
36.0600 12.0042 0.0543
36.0800 12.0109 0.0525
36.1000 12.0175 0.0465
36.1200 12.0241 0.0542
36.1400 12.0307 0.0594
36.1600 12.0375 0.0428
36.1800 12.0442 0.0554
36.2000 12.0509 0.0550
36.2200 12.0575 0.0468
36.2400 12.0642 0.0553
36.2600 12.0709 0.0529
36.2800 12.0775 0.0486
36.3000 12.0841 0.0486
36.3200 12.0907 0.0559
36.3400 12.0974 0.0549
36.3600 12.1041 0.0435
36.3800 12.1108 0.0563
36.4000 12.1175 0.0490
36.4200 12.1242 0.0439
36.4400 12.1309 0.0624
36.4600 12.1375 0.0528
36.4800 12.1441 0.0392
36.5000 12.1508 0.0584
36.5200 12.1575 0.0513
36.5400 12.1642 0.0426
36.5600 12.1709 0.0697
36.5800 12.1776 0.0501
36.6000 12.1842 0.0373
36.6200 12.1909 0.0694
36.6400 12.1975 0.0460
36.6600 12.2041 0.0369
36.6800 12.2108 0.0785
36.7000 12.2175 0.0418
36.7200 12.2242 0.0341
36.7400 12.2309 0.0705
36.7600 12.2376 0.0421
36.7800 12.2442 0.0424
36.8000 12.2509 0.0770
36.8200 12.2575 0.0355
36.8400 12.2641 0.0438
36.8600 12.2708 0.0736
36.8800 12.2774 0.0336
36.9000 12.2841 0.0528
36.9200 12.2908 0.0674
36.9400 12.2975 0.0304
36.9600 12.3042 0.0538
36.9800 12.3109 0.0621
37.0000 12.3175 0.0381
37.0200 12.3241 0.0629
37.0400 12.3307 0.0531
37.0600 12.3374 0.0388
37.0800 12.3441 0.0578
37.1000 12.3508 0.0503
37.1200 12.3575 0.0439
37.1400 12.3642 0.0615
37.1600 12.3709 0.0474
37.1800 12.3775 0.0457
37.2000 12.3841 0.0562
37.2200 12.3908 0.0504
37.2400 12.3974 0.0555
37.2600 12.4042 0.0525
37.2800 12.4109 0.0424
37.3000 12.4175 0.0572
37.3200 12.4242 0.0510
37.3400 12.4309 0.0455
37.3600 12.4376 0.0586
37.3800 12.4442 0.0486
37.4000 12.4508 0.0490
37.4200 12.4575 0.0548
37.4400 12.4642 0.0479
37.4600 12.4709 0.0504
37.4800 12.4775 0.0568
37.5000 12.4842 0.0480
37.5200 12.4909 0.0516
37.5400 12.4976 0.0526
37.5600 12.5042 0.0488
37.5800 12.5108 0.0538
37.6000 12.5174 0.0557
37.6200 12.5241 0.0475
37.6400 12.5308 0.0539
37.6600 12.5375 0.0541
37.6800 12.5442 0.0478
37.7000 12.5509 0.0530
37.7200 12.5575 0.0567
37.7400 12.5641 0.0465
37.7600 12.5707 0.0567
37.7800 12.5774 0.0533
37.8000 12.5841 0.0508
37.8200 12.5908 0.0589
37.8400 12.5975 0.0510
37.8600 12.6042 0.0521
37.8800 12.6109 0.0561
37.9000 12.6175 0.0545
37.9200 12.6241 0.0472
37.9400 12.6308 0.0545
37.9600 12.6374 0.0518
37.9800 12.6442 0.0555
38.0000 12.6509 0.0531
38.0200 12.6576 0.0516
38.0400 12.6642 0.0556
38.0600 12.6709 0.0524
38.0800 12.6776 0.0582
38.1000 12.6842 0.0535
38.1200 12.6908 0.0541
38.1400 12.6974 0.0594
38.1600 12.7042 0.0512
38.1800 12.7109 0.0539
38.2000 12.7176 0.0591
38.2200 12.7242 0.0515
38.2400 12.7309 0.0504
38.2600 12.7375 0.0599
38.2800 12.7441 0.0501
38.3000 12.7507 0.0488
38.3200 12.7574 0.0619
38.3400 12.7642 0.0513
38.3600 12.7709 0.0550
38.3800 12.7775 0.0603
38.4000 12.7842 0.0497
38.4200 12.7909 0.0490
38.4400 12.7975 0.0620
38.4600 12.8042 0.0512
38.4800 12.8108 0.0514
38.5000 12.8174 0.0598
38.5200 12.8241 0.0453
38.5400 12.8308 0.0504
38.5600 12.8375 0.0627
38.5800 12.8442 0.0493
38.6000 12.8509 0.0487
38.6200 12.8575 0.0628
38.6400 12.8641 0.0486
38.6600 12.8708 0.0540
38.6800 12.8774 0.0671
38.7000 12.8841 0.0462
38.7200 12.8909 0.0497
38.7400 12.8976 0.0632
38.7600 12.9042 0.0489
38.7800 12.9109 0.0523
38.8000 12.9176 0.0582
38.8200 12.9241 0.0494
38.8400 12.9308 0.0512
38.8600 12.9374 0.0637
38.8800 12.9442 0.0510
38.9000 12.9509 0.0540
38.9200 12.9576 0.0549
38.9400 12.9642 0.0514
38.9600 12.9709 0.0527
38.9800 12.9775 0.0556
39.0000 12.9842 0.0521
39.0200 12.9908 0.0510
39.0400 12.9974 0.0573
39.0600 13.0041 0.0484
39.0800 13.0108 0.0536
39.1000 13.0175 0.0576
39.1200 13.0242 0.0517
39.1400 13.0309 0.0527
39.1600 13.0375 0.0577
39.1800 13.0441 0.0452
39.2000 13.0507 0.0551
39.2200 13.0574 0.0640
39.2400 13.0641 0.0491
39.2600 13.0708 0.0470
39.2800 13.0775 0.0611
39.3000 13.0842 0.0525
39.3200 13.0909 0.0509
39.3400 13.0975 0.0582
39.3600 13.1042 0.0508
39.3800 13.1108 0.0567
39.4000 13.1174 0.0596
39.4200 13.1242 0.0536
39.4400 13.1309 0.0525
39.4600 13.1375 0.0588
39.4800 13.1442 0.0533
39.5000 13.1509 0.0523
39.5200 13.1575 0.0614
39.5400 13.1642 0.0544
39.5600 13.1708 0.0504
39.5800 13.1774 0.0562
39.6000 13.1841 0.0580
39.6200 13.1908 0.0508
39.6400 13.1975 0.0549
39.6600 13.2042 0.0593
39.6800 13.2109 0.0450
39.7000 13.2176 0.0597
39.7200 13.2242 0.0580
39.7400 13.2308 0.0411
39.7600 13.2374 0.0618
39.7800 13.2441 0.0622
39.8000 13.2509 0.0449
39.8200 13.2576 0.0609
39.8400 13.2642 0.0586
39.8600 13.2709 0.0414
39.8800 13.2776 0.0596
39.9000 13.2842 0.0593
39.9200 13.2908 0.0456
39.9400 13.2974 0.0616
39.9600 13.3041 0.0540
39.9800 13.3108 0.0435
40.0000 13.3175 0.0655
40.0200 13.3242 0.0518
40.0400 13.3308 0.0461
40.0600 13.3375 0.0615
40.0800 13.3442 0.0494
40.1000 13.3508 0.0496
40.1200 13.3574 0.0665
40.1400 13.3641 0.0474
40.1600 13.3708 0.0486
40.1800 13.3775 0.0674
40.2000 13.3842 0.0519
40.2200 13.3910 0.0541
40.2400 13.3976 0.0580
40.2600 13.4042 0.0489
40.2800 13.4108 0.0517
40.3000 13.4174 0.0613
40.3200 13.4242 0.0495
40.3400 13.4309 0.0533
40.3600 13.4376 0.0551
40.3800 13.4442 0.0478
40.4000 13.4509 0.0527
40.4200 13.4576 0.0616
40.4400 13.4642 0.0489
40.4600 13.4708 0.0519
40.4800 13.4774 0.0585
40.5000 13.4841 0.0565
40.5200 13.4908 0.0519
40.5400 13.4975 0.0548
40.5600 13.5042 0.0547
40.5800 13.5109 0.0538
40.6000 13.5175 0.0545
40.6200 13.5242 0.0572
40.6400 13.5308 0.0526
40.6600 13.5374 0.0542
40.6800 13.5441 0.0575
40.7000 13.5508 0.0581
40.7200 13.5575 0.0563
40.7400 13.5642 0.0561
40.7600 13.5709 0.0529
40.7800 13.5775 0.0515
40.8000 13.5842 0.0590
40.8200 13.5907 0.0545
40.8400 13.5974 0.0581
40.8600 13.6041 0.0604
40.8800 13.6108 0.0534
40.9000 13.6176 0.0527
40.9200 13.6242 0.0605
40.9400 13.6309 0.0541
40.9600 13.6376 0.0505
40.9800 13.6442 0.0580
41.0000 13.6508 0.0561
41.0200 13.6575 0.0532
41.0400 13.6642 0.0602
41.0600 13.6708 0.0539
41.0800 13.6775 0.0528
41.1000 13.6842 0.0563
41.1200 13.6909 0.0572
41.1400 13.6976 0.0511
41.1600 13.7042 0.0544
41.1800 13.7108 0.0571
41.2000 13.7174 0.0482
41.2200 13.7241 0.0607
41.2400 13.7308 0.0574
41.2600 13.7375 0.0520
41.2800 13.7442 0.0581
41.3000 13.7509 0.0560
41.3200 13.7576 0.0473
41.3400 13.7642 0.0593
41.3600 13.7707 0.0565
41.3800 13.7774 0.0487
41.4000 13.7841 0.0580
41.4200 13.7908 0.0556
41.4400 13.7975 0.0503
41.4600 13.8042 0.0584
41.4800 13.8109 0.0555
41.5000 13.8175 0.0469
41.5200 13.8242 0.0572
41.5400 13.8308 0.0581
41.5600 13.8374 0.0511
41.5800 13.8441 0.0557
41.6000 13.8508 0.0548
41.6200 13.8575 0.0467
41.6400 13.8642 0.0578
41.6600 13.8709 0.0565
41.6800 13.8776 0.0508
41.7000 13.8842 0.0521
41.7200 13.8908 0.0589
41.7400 13.8974 0.0502
41.7600 13.9041 0.0557
41.7800 13.9108 0.0545
41.8000 13.9176 0.0506
41.8200 13.9242 0.0533
41.8400 13.9309 0.0537
41.8600 13.9376 0.0487
41.8800 13.9442 0.0559
41.9000 13.9508 0.0580
41.9200 13.9574 0.0482
41.9400 13.9641 0.0574
41.9600 13.9708 0.0557
41.9800 13.9775 0.0499
42.0000 13.9842 0.0555
42.0200 13.9909 0.0577
42.0400 13.9976 0.0437
42.0600 14.0042 0.0567
42.0800 14.0108 0.0599
42.1000 14.0174 0.0498
42.1200 14.0241 0.0535
42.1400 14.0308 0.0563
42.1600 14.0375 0.0465
42.1800 14.0442 0.0561
42.2000 14.0509 0.0573
42.2200 14.0576 0.0474
42.2400 14.0642 0.0511
42.2600 14.0708 0.0584
42.2800 14.0774 0.0486
42.3000 14.0841 0.0549
42.3200 14.0908 0.0621
42.3400 14.0976 0.0449
42.3600 14.1042 0.0526
42.3800 14.1109 0.0598
42.4000 14.1176 0.0464
42.4200 14.1242 0.0545
42.4400 14.1308 0.0649
42.4600 14.1375 0.0446
42.4800 14.1441 0.0542
42.5000 14.1509 0.0611
42.5200 14.1576 0.0429
42.5400 14.1642 0.0564
42.5600 14.1709 0.0650
42.5800 14.1776 0.0374
42.6000 14.1842 0.0551
42.6200 14.1908 0.0612
42.6400 14.1974 0.0400
42.6600 14.2041 0.0602
42.6800 14.2108 0.0657
42.7000 14.2175 0.0395
42.7200 14.2242 0.0567
42.7400 14.2309 0.0596
42.7600 14.2376 0.0442
42.7800 14.2442 0.0639
42.8000 14.2508 0.0573
42.8200 14.2574 0.0414
42.8400 14.2641 0.0589
42.8600 14.2708 0.0645
42.8800 14.2775 0.0451
42.9000 14.2842 0.0588
42.9200 14.2909 0.0572
42.9400 14.2975 0.0442
42.9600 14.3042 0.0582
42.9800 14.3108 0.0601
43.0000 14.3174 0.0490
43.0200 14.3241 0.0538
43.0400 14.3308 0.0555
43.0600 14.3375 0.0494
43.0800 14.3442 0.0541
43.1000 14.3509 0.0645
43.1200 14.3576 0.0425
43.1400 14.3642 0.0487
43.1600 14.3708 0.0676
43.1800 14.3775 0.0472
43.2000 14.3841 0.0514
43.2200 14.3908 0.0621
43.2400 14.3975 0.0467
43.2600 14.4042 0.0516
43.2800 14.4109 0.0629
43.3000 14.4176 0.0475
43.3200 14.4242 0.0521
43.3400 14.4308 0.0542
43.3600 14.4374 0.0532
43.3800 14.4441 0.0594
43.4000 14.4508 0.0522
43.4200 14.4575 0.0452
43.4400 14.4642 0.0597
43.4600 14.4709 0.0548
43.4800 14.4775 0.0533
43.5000 14.4842 0.0600
43.5200 14.4908 0.0525
43.5400 14.4974 0.0452
43.5600 14.5041 0.0612
43.5800 14.5108 0.0577
43.6000 14.5175 0.0524
43.6200 14.5242 0.0553
43.6400 14.5308 0.0521
43.6600 14.5375 0.0543
43.6800 14.5442 0.0515
43.7000 14.5508 0.0571
43.7200 14.5574 0.0583
43.7400 14.5641 0.0511
43.7600 14.5708 0.0502
43.7800 14.5775 0.0591
43.8000 14.5842 0.0567
43.8200 14.5909 0.0562
43.8400 14.5976 0.0508
43.8600 14.6042 0.0516
43.8800 14.6108 0.0541
43.9000 14.6174 0.0566
43.9200 14.6241 0.0512
43.9400 14.6308 0.0522
43.9600 14.6375 0.0538
43.9800 14.6442 0.0526
44.0000 14.6509 0.0563
44.0200 14.6575 0.0557
44.0400 14.6642 0.0460
44.0600 14.6708 0.0567
44.0800 14.6774 0.0576
44.1000 14.6841 0.0524
44.1200 14.6908 0.0574
44.1400 14.6975 0.0484
44.1600 14.7042 0.0497
44.1800 14.7109 0.0666
44.2000 14.7176 0.0547
44.2200 14.7242 0.0413
44.2400 14.7308 0.0548
44.2600 14.7374 0.0546
44.2800 14.7440 0.0609
44.3000 14.7507 0.0586
44.3200 14.7575 0.0477
44.3400 14.7642 0.0496
44.3600 14.7708 0.0568
44.3800 14.7775 0.0559
44.4000 14.7842 0.0595
44.4200 14.7908 0.0560
44.4400 14.7974 0.0462
44.4600 14.8041 0.0584
44.4800 14.8108 0.0588
44.5000 14.8175 0.0546
44.5200 14.8242 0.0486
44.5400 14.8309 0.0526
44.5600 14.8376 0.0510
44.5800 14.8443 0.0613
44.6000 14.8509 0.0584
44.6200 14.8575 0.0501
44.6400 14.8641 0.0569
44.6600 14.8708 0.0581
44.6800 14.8775 0.0537
44.7000 14.8842 0.0600
44.7200 14.8909 0.0534
44.7400 14.8976 0.0463
44.7600 14.9042 0.0606
44.7800 14.9108 0.0612
44.8000 14.9174 0.0540
44.8200 14.9241 0.0547
44.8400 14.9308 0.0523
44.8600 14.9375 0.0561
44.8800 14.9442 0.0624
44.9000 14.9508 0.0513
44.9200 14.9575 0.0516
44.9400 14.9642 0.0605
44.9600 14.9708 0.0541
44.9800 14.9774 0.0561
45.0000 14.9841 0.0636
45.0200 14.9908 0.0540
45.0400 14.9975 0.0576
45.0600 15.0042 0.0566
45.0800 15.0109 0.0532
45.1000 15.0175 0.0500
45.1200 15.0242 0.0582
45.1400 15.0309 0.0576
45.1600 15.0375 0.0566
45.1800 15.0441 0.0574
45.2000 15.0508 0.0525
45.2200 15.0575 0.0547
45.2400 15.0642 0.0605
45.2600 15.0709 0.0565
45.2800 15.0776 0.0559
45.3000 15.0843 0.0530
45.3200 15.0909 0.0518
45.3400 15.0975 0.0640
45.3600 15.1041 0.0575
45.3800 15.1108 0.0480
45.4000 15.1175 0.0604
45.4200 15.1242 0.0551
45.4400 15.1309 0.0508
45.4600 15.1376 0.0656
45.4800 15.1442 0.0486
45.5000 15.1508 0.0485
45.5200 15.1574 0.0652
45.5400 15.1641 0.0550
45.5600 15.1708 0.0511
45.5800 15.1775 0.0594
45.6000 15.1842 0.0488
45.6200 15.1909 0.0556
45.6400 15.1975 0.0681
45.6600 15.2042 0.0462
45.6800 15.2108 0.0495
45.7000 15.2175 0.0641
45.7200 15.2241 0.0556
45.7400 15.2308 0.0541
45.7600 15.2375 0.0594
45.7800 15.2441 0.0515
45.8000 15.2508 0.0657
45.8200 15.2575 0.0567
45.8400 15.2642 0.0404
45.8600 15.2709 0.0629
45.8800 15.2774 0.0679
45.9000 15.2841 0.0439
45.9200 15.2908 0.0579
45.9400 15.2975 0.0585
45.9600 15.3042 0.0499
45.9800 15.3109 0.0597
46.0000 15.3176 0.0597
46.0200 15.3242 0.0545
46.0400 15.3309 0.0551
46.0600 15.3375 0.0544
46.0800 15.3441 0.0573
46.1000 15.3508 0.0619
46.1200 15.3575 0.0565
46.1400 15.3642 0.0493
46.1600 15.3709 0.0492
46.1800 15.3776 0.0656
46.2000 15.3842 0.0610
46.2200 15.3909 0.0445
46.2400 15.3975 0.0541
46.2600 15.4041 0.0640
46.2800 15.4108 0.0572
46.3000 15.4175 0.0579
46.3200 15.4242 0.0483
46.3400 15.4309 0.0517
46.3600 15.4375 0.0625
46.3800 15.4442 0.0566
46.4000 15.4508 0.0467
46.4200 15.4574 0.0603
46.4400 15.4640 0.0561
46.4600 15.4707 0.0515
46.4800 15.4774 0.0608
46.5000 15.4842 0.0545
46.5200 15.4908 0.0537
46.5400 15.4975 0.0603
46.5600 15.5042 0.0547
46.5800 15.5109 0.0501
46.6000 15.5175 0.0656
46.6200 15.5241 0.0528
46.6400 15.5308 0.0531
46.6600 15.5375 0.0619
46.6800 15.5442 0.0510
46.7000 15.5509 0.0502
46.7200 15.5576 0.0661
46.7400 15.5643 0.0574
46.7600 15.5709 0.0500
46.7800 15.5775 0.0571
46.8000 15.5841 0.0583
46.8200 15.5908 0.0521
46.8400 15.5975 0.0557
46.8600 15.6042 0.0514
46.8800 15.6109 0.0638
46.9000 15.6176 0.0635
46.9200 15.6242 0.0359
46.9400 15.6309 0.0494
46.9600 15.6375 0.0737
46.9800 15.6441 0.0673
47.0000 15.6508 0.0465
47.0200 15.6575 0.0398
47.0400 15.6642 0.0509
47.0600 15.6709 0.0696
47.0800 15.6775 0.0688
47.1000 15.6842 0.0518
47.1200 15.6909 0.0411
47.1400 15.6975 0.0444
47.1600 15.7041 0.0572
47.1800 15.7108 0.0799
47.2000 15.7175 0.0662
47.2200 15.7242 0.0337
47.2400 15.7308 0.0375
47.2600 15.7375 0.0644
47.2800 15.7442 0.0758
47.3000 15.7509 0.0589
47.3200 15.7575 0.0432
47.3400 15.7641 0.0391
47.3600 15.7708 0.0615
47.3800 15.7775 0.0756
47.4000 15.7842 0.0607
47.4200 15.7909 0.0450
47.4400 15.7976 0.0438
47.4600 15.8042 0.0609
47.4800 15.8109 0.0675
47.5000 15.8175 0.0630
47.5200 15.8241 0.0554
47.5400 15.8308 0.0335
47.5600 15.8375 0.0540
47.5800 15.8442 0.0771
47.6000 15.8509 0.0664
47.6200 15.8576 0.0431
47.6400 15.8643 0.0402
47.6600 15.8709 0.0500
47.6800 15.8775 0.0773
47.7000 15.8841 0.0668
47.7200 15.8908 0.0411
47.7400 15.8975 0.0517
47.7600 15.9042 0.0569
47.7800 15.9109 0.0624
47.8000 15.9175 0.0767
47.8200 15.9242 0.0599
47.8400 15.9309 0.0353
47.8600 15.9375 0.0525
47.8800 15.9441 0.0635
47.9000 15.9507 0.0721
47.9200 15.9574 0.0655
47.9400 15.9641 0.0420
47.9600 15.9708 0.0467
47.9800 15.9775 0.0709
48.0000 15.9842 0.0651
48.0200 15.9909 0.0675
48.0400 15.9975 0.0496
48.0600 16.0041 0.0446
48.0800 16.0108 0.0669
48.1000 16.0175 0.0692
48.1200 16.0242 0.0658
48.1400 16.0309 0.0482
48.1600 16.0376 0.0455
48.1800 16.0443 0.0635
48.2000 16.0509 0.0718
48.2200 16.0575 0.0599
48.2400 16.0641 0.0562
48.2600 16.0708 0.0568
48.2800 16.0775 0.0580
48.3000 16.0842 0.0672
48.3200 16.0909 0.0622
48.3400 16.0976 0.0496
48.3600 16.1042 0.0628
48.3800 16.1109 0.0528
48.4000 16.1175 0.0624
48.4200 16.1241 0.0698
48.4400 16.1307 0.0561
48.4600 16.1374 0.0561
48.4800 16.1442 0.0669
48.5000 16.1508 0.0569
48.5200 16.1575 0.0594
48.5400 16.1642 0.0734
48.5600 16.1709 0.0568
48.5800 16.1775 0.0590
48.6000 16.1841 0.0614
48.6200 16.1907 0.0556
48.6400 16.1974 0.0670
48.6600 16.2042 0.0683
48.6800 16.2108 0.0502
48.7000 16.2175 0.0603
48.7200 16.2242 0.0658
48.7400 16.2308 0.0592
48.7600 16.2375 0.0639
48.7800 16.2441 0.0647
48.8000 16.2508 0.0522
48.8200 16.2575 0.0648
48.8400 16.2642 0.0668
48.8600 16.2709 0.0554
48.8800 16.2776 0.0649
48.9000 16.2843 0.0659
48.9200 16.2909 0.0587
48.9400 16.2975 0.0628
48.9600 16.3041 0.0635
48.9800 16.3108 0.0652
49.0000 16.3175 0.0623
49.0200 16.3242 0.0619
49.0400 16.3309 0.0676
49.0600 16.3376 0.0556
49.0800 16.3442 0.0627
49.1000 16.3509 0.0705
49.1200 16.3575 0.0589
49.1400 16.3641 0.0589
49.1600 16.3707 0.0709
49.1800 16.3775 0.0624
49.2000 16.3842 0.0664
49.2200 16.3908 0.0631
49.2400 16.3975 0.0570
49.2600 16.4042 0.0700
49.2800 16.4109 0.0645
49.3000 16.4175 0.0506
49.3200 16.4241 0.0767
49.3400 16.4307 0.0743
49.3600 16.4374 0.0438
49.3800 16.4441 0.0574
49.4000 16.4508 0.0754
49.4200 16.4575 0.0630
49.4400 16.4642 0.0575
49.4600 16.4709 0.0656
49.4800 16.4775 0.0554
49.5000 16.4841 0.0636
49.5200 16.4908 0.0732
49.5400 16.4975 0.0564
49.5600 16.5042 0.0535
49.5800 16.5109 0.0622
49.6000 16.5175 0.0646
49.6200 16.5242 0.0649
49.6400 16.5309 0.0614
49.6600 16.5375 0.0531
49.6800 16.5441 0.0608
49.7000 16.5508 0.0708
49.7200 16.5575 0.0675
49.7400 16.5642 0.0685
49.7600 16.5709 0.0517
49.7800 16.5775 0.0471
49.8000 16.5842 0.0757
49.8200 16.5909 0.0726
49.8400 16.5975 0.0541
49.8600 16.6042 0.0559
49.8800 16.6108 0.0552
49.9000 16.6175 0.0641
49.9200 16.6242 0.0736
49.9400 16.6308 0.0607
49.9600 16.6375 0.0515
49.9800 16.6442 0.0563
50.0000 16.6509 0.0627
50.0200 16.6575 0.0690
50.0400 16.6641 0.0675
50.0600 16.6707 0.0447
50.0800 16.6774 0.0559
50.1000 16.6841 0.0696
50.1200 16.6908 0.0704
50.1400 16.6975 0.0599
50.1600 16.7042 0.0507
50.1800 16.7109 0.0590
50.2000 16.7175 0.0715
50.2200 16.7241 0.0595
50.2400 16.7307 0.0595
50.2600 16.7374 0.0570
50.2800 16.7442 0.0464
50.3000 16.7509 0.0714
50.3200 16.7575 0.0675
50.3400 16.7642 0.0443
50.3600 16.7709 0.0585
50.3800 16.7775 0.0652
50.4000 16.7841 0.0526
50.4200 16.7908 0.0732
50.4400 16.7974 0.0529
50.4600 16.8042 0.0430
50.4800 16.8109 0.0745
50.5000 16.8176 0.0574
50.5200 16.8243 0.0589
50.5400 16.8309 0.0663
50.5600 16.8376 0.0420
50.5800 16.8441 0.0590
50.6000 16.8508 0.0714
50.6200 16.8575 0.0559
50.6400 16.8642 0.0536
50.6600 16.8709 0.0529
50.6800 16.8775 0.0588
50.7000 16.8842 0.0692
50.7200 16.8909 0.0593
50.7400 16.8975 0.0460
50.7600 16.9041 0.0624
50.7800 16.9108 0.0629
50.8000 16.9174 0.0642
50.8200 16.9241 0.0577
50.8400 16.9308 0.0495
50.8600 16.9375 0.0590
50.8800 16.9442 0.0603
50.9000 16.9509 0.0638
50.9200 16.9575 0.0566
50.9400 16.9641 0.0521
50.9600 16.9708 0.0597
50.9800 16.9774 0.0577
51.0000 16.9841 0.0582
51.0200 16.9909 0.0662
51.0400 16.9976 0.0542
51.0600 17.0043 0.0542
51.0800 17.0109 0.0632
51.1000 17.0175 0.0554
51.1200 17.0241 0.0579
51.1400 17.0308 0.0728
51.1600 17.0375 0.0477
51.1800 17.0442 0.0537
51.2000 17.0509 0.0686
51.2200 17.0575 0.0585
51.2400 17.0642 0.0574
51.2600 17.0709 0.0586
51.2800 17.0775 0.0636
51.3000 17.0842 0.0588
51.3200 17.0908 0.0565
51.3400 17.0975 0.0533
51.3600 17.1041 0.0624
51.3800 17.1108 0.0671
51.4000 17.1175 0.0591
51.4200 17.1242 0.0543
51.4400 17.1309 0.0558
51.4600 17.1375 0.0607
51.4800 17.1441 0.0690
51.5000 17.1507 0.0620
51.5200 17.1574 0.0499
51.5400 17.1641 0.0593
51.5600 17.1708 0.0650
51.5800 17.1775 0.0522
51.6000 17.1842 0.0738
51.6200 17.1909 0.0676
51.6400 17.1975 0.0364
51.6600 17.2041 0.0553
51.6800 17.2107 0.0759
51.7000 17.2174 0.0605
51.7200 17.2241 0.0662
51.7400 17.2309 0.0547
51.7600 17.2375 0.0454
51.7800 17.2442 0.0790
51.8000 17.2509 0.0560
51.8200 17.2576 0.0539
51.8400 17.2642 0.0808
51.8600 17.2708 0.0512
51.8800 17.2775 0.0469
51.9000 17.2842 0.0731
51.9200 17.2909 0.0622
51.9400 17.2975 0.0561
51.9600 17.3042 0.0626
51.9800 17.3109 0.0564
52.0000 17.3176 0.0628
52.0200 17.3242 0.0592
52.0400 17.3308 0.0561
52.0600 17.3374 0.0766
52.0800 17.3441 0.0535
52.1000 17.3508 0.0467
52.1200 17.3575 0.0651
52.1400 17.3642 0.0655
52.1600 17.3709 0.0548
52.1800 17.3775 0.0600
52.2000 17.3841 0.0554
52.2200 17.3907 0.0597
52.2400 17.3974 0.0656
52.2600 17.4041 0.0437
52.2800 17.4108 0.0701
52.3000 17.4175 0.0560
52.3200 17.4241 0.0509
52.3400 17.4308 0.0800
52.3600 17.4375 0.0475
52.3800 17.4441 0.0395
52.4000 17.4508 0.0832
52.4200 17.4574 0.0604
52.4400 17.4642 0.0441
52.4600 17.4709 0.0718
52.4800 17.4776 0.0497
52.5000 17.4842 0.0460
52.5200 17.4909 0.0782
52.5400 17.4976 0.0633
52.5600 17.5042 0.0536
52.5800 17.5108 0.0513
52.6000 17.5174 0.0517
52.6200 17.5242 0.0778
52.6400 17.5309 0.0710
52.6600 17.5376 0.0357
52.6800 17.5442 0.0522
52.7000 17.5509 0.0705
52.7200 17.5576 0.0615
52.7400 17.5641 0.0696
52.7600 17.5708 0.0490
52.7800 17.5774 0.0502
52.8000 17.5841 0.0779
52.8200 17.5908 0.0643
52.8400 17.5975 0.0612
52.8600 17.6042 0.0617
52.8800 17.6109 0.0424
52.9000 17.6175 0.0746
52.9200 17.6242 0.0783
52.9400 17.6308 0.0492
52.9600 17.6374 0.0564
52.9800 17.6441 0.0633
53.0000 17.6508 0.0625
53.0200 17.6575 0.0805
53.0400 17.6642 0.0528
53.0600 17.6709 0.0424
53.0800 17.6775 0.0759
53.1000 17.6842 0.0677
53.1200 17.6908 0.0629
53.1400 17.6974 0.0712
53.1600 17.7041 0.0497
53.1800 17.7109 0.0564
53.2000 17.7175 0.0794
53.2200 17.7242 0.0595
53.2400 17.7309 0.0611
53.2600 17.7376 0.0678
53.2800 17.7442 0.0474
53.3000 17.7508 0.0665
53.3200 17.7575 0.0798
53.3400 17.7642 0.0546
53.3600 17.7709 0.0617
53.3800 17.7776 0.0625
53.4000 17.7842 0.0542
53.4200 17.7909 0.0766
53.4400 17.7975 0.0655
53.4600 17.8042 0.0508
53.4800 17.8108 0.0659
53.5000 17.8174 0.0692
53.5200 17.8241 0.0621
53.5400 17.8308 0.0634
53.5600 17.8375 0.0588
53.5800 17.8442 0.0671
53.6000 17.8508 0.0647
53.6200 17.8575 0.0607
53.6400 17.8641 0.0624
53.6600 17.8707 0.0677
53.6800 17.8774 0.0636
53.7000 17.8841 0.0606
53.7200 17.8908 0.0592
53.7400 17.8975 0.0677
53.7600 17.9042 0.0656
53.7800 17.9109 0.0517
53.8000 17.9175 0.0721
53.8200 17.9242 0.0702
53.8400 17.9308 0.0574
53.8600 17.9374 0.0717
53.8800 17.9441 0.0617
53.9000 17.9508 0.0557
53.9200 17.9575 0.0718
53.9400 17.9642 0.0609
53.9600 17.9709 0.0650
53.9800 17.9776 0.0702
54.0000 17.9842 0.0538
54.0200 17.9908 0.0605
54.0400 17.9974 0.0771
54.0600 18.0041 0.0596
54.0800 18.0108 0.0617
54.1000 18.0175 0.0615
54.1200 18.0242 0.0612
54.1400 18.0309 0.0700
54.1600 18.0376 0.0670
54.1800 18.0442 0.0611
54.2000 18.0508 0.0624
54.2200 18.0574 0.0659
54.2400 18.0641 0.0666
54.2600 18.0709 0.0680
54.2800 18.0776 0.0597
54.3000 18.0842 0.0630
54.3200 18.0909 0.0615
54.3400 18.0975 0.0673
54.3600 18.1042 0.0720
54.3800 18.1107 0.0553
54.4000 18.1174 0.0598
54.4200 18.1241 0.0721
54.4400 18.1308 0.0575
54.4600 18.1375 0.0727
54.4800 18.1442 0.0658
54.5000 18.1509 0.0505
54.5200 18.1575 0.0701
54.5400 18.1642 0.0698
54.5600 18.1708 0.0585
54.5800 18.1774 0.0787
54.6000 18.1841 0.0630
54.6200 18.1908 0.0460
54.6400 18.1975 0.0740
54.6600 18.2042 0.0665
54.6800 18.2110 0.0528
54.7000 18.2176 0.0682
54.7200 18.2242 0.0581
54.7400 18.2308 0.0513
54.7600 18.2374 0.0822
54.7800 18.2441 0.0639
54.8000 18.2509 0.0505
54.8200 18.2576 0.0710
54.8400 18.2642 0.0618
54.8600 18.2709 0.0602
54.8800 18.2776 0.0707
54.9000 18.2842 0.0575
54.9200 18.2908 0.0608
54.9400 18.2974 0.0727
54.9600 18.3041 0.0577
54.9800 18.3108 0.0602
55.0000 18.3175 0.0674
55.0200 18.3242 0.0568
55.0400 18.3309 0.0665
55.0600 18.3375 0.0667
55.0800 18.3442 0.0555
55.1000 18.3508 0.0659
55.1200 18.3574 0.0631
55.1400 18.3641 0.0620
55.1600 18.3708 0.0682
55.1800 18.3775 0.0644
55.2000 18.3842 0.0539
55.2200 18.3908 0.0654
55.2400 18.3975 0.0656
55.2600 18.4041 0.0629
55.2800 18.4108 0.0664
55.3000 18.4174 0.0617
55.3200 18.4241 0.0613
55.3400 18.4308 0.0682
55.3600 18.4376 0.0615
55.3800 18.4442 0.0673
55.4000 18.4509 0.0664
55.4200 18.4576 0.0481
55.4400 18.4642 0.0637
55.4600 18.4708 0.0762
55.4800 18.4775 0.0561
55.5000 18.4842 0.0596
55.5200 18.4909 0.0701
55.5400 18.4975 0.0570
55.5600 18.5042 0.0646
55.5800 18.5109 0.0707
55.6000 18.5176 0.0544
55.6200 18.5242 0.0630
55.6400 18.5308 0.0729
55.6600 18.5374 0.0536
55.6800 18.5441 0.0724
55.7000 18.5508 0.0688
55.7200 18.5575 0.0532
55.7400 18.5642 0.0681
55.7600 18.5709 0.0700
55.7800 18.5776 0.0535
55.8000 18.5842 0.0713
55.8200 18.5908 0.0675
55.8400 18.5974 0.0620
55.8600 18.6041 0.0698
55.8800 18.6108 0.0588
55.9000 18.6175 0.0662
55.9200 18.6242 0.0683
55.9400 18.6309 0.0639
55.9600 18.6376 0.0623
55.9800 18.6442 0.0662
56.0000 18.6508 0.0646
56.0200 18.6574 0.0700
56.0400 18.6641 0.0663
56.0600 18.6708 0.0589
56.0800 18.6775 0.0680
56.1000 18.6842 0.0708
56.1200 18.6909 0.0630
56.1400 18.6976 0.0641
56.1600 18.7042 0.0612
56.1800 18.7108 0.0679
56.2000 18.7174 0.0662
56.2200 18.7241 0.0693
56.2400 18.7308 0.0627
56.2600 18.7375 0.0614
56.2800 18.7442 0.0676
56.3000 18.7509 0.0626
56.3200 18.7576 0.0660
56.3400 18.7642 0.0663
56.3600 18.7708 0.0641
56.3800 18.7774 0.0644
56.4000 18.7841 0.0693
56.4200 18.7908 0.0655
56.4400 18.7975 0.0621
56.4600 18.8042 0.0712
56.4800 18.8109 0.0649
56.5000 18.8175 0.0542
56.5200 18.8242 0.0728
56.5400 18.8308 0.0691
56.5600 18.8374 0.0604
56.5800 18.8440 0.0665
56.6000 18.8508 0.0708
56.6200 18.8575 0.0634
56.6400 18.8642 0.0654
56.6600 18.8709 0.0699
56.6800 18.8776 0.0607
56.7000 18.8842 0.0712
56.7200 18.8908 0.0692
56.7400 18.8974 0.0577
56.7600 18.9041 0.0671
56.7800 18.9108 0.0732
56.8000 18.9175 0.0702
56.8200 18.9242 0.0656
56.8400 18.9309 0.0651
56.8600 18.9376 0.0686
56.8800 18.9442 0.0595
56.9000 18.9508 0.0727
56.9200 18.9575 0.0686
56.9400 18.9641 0.0646
56.9600 18.9708 0.0632
56.9800 18.9775 0.0647
57.0000 18.9842 0.0706
57.0200 18.9909 0.0728
57.0400 18.9976 0.0664
57.0600 19.0042 0.0617
57.0800 19.0108 0.0731
57.1000 19.0174 0.0679
57.1200 19.0240 0.0720
57.1400 19.0308 0.0720
57.1600 19.0375 0.0573
57.1800 19.0442 0.0684
57.2000 19.0509 0.0735
57.2200 19.0576 0.0617
57.2400 19.0642 0.0727
57.2600 19.0708 0.0682
57.2800 19.0774 0.0633
57.3000 19.0841 0.0714
57.3200 19.0908 0.0680
57.3400 19.0975 0.0619
57.3600 19.1042 0.0767
57.3800 19.1109 0.0649
57.4000 19.1175 0.0607
57.4200 19.1242 0.0762
57.4400 19.1308 0.0661
57.4600 19.1374 0.0645
57.4800 19.1441 0.0775
57.5000 19.1508 0.0644
57.5200 19.1575 0.0599
57.5400 19.1642 0.0745
57.5600 19.1709 0.0727
57.5800 19.1776 0.0656
57.6000 19.1842 0.0694
57.6200 19.1909 0.0630
57.6400 19.1975 0.0673
57.6600 19.2041 0.0831
57.6800 19.2108 0.0661
57.7000 19.2175 0.0641
57.7200 19.2242 0.0654
57.7400 19.2309 0.0658
57.7600 19.2376 0.0780
57.7800 19.2443 0.0708
57.8000 19.2508 0.0566
57.8200 19.2574 0.0690
57.8400 19.2641 0.0736
57.8600 19.2708 0.0688
57.8800 19.2775 0.0682
57.9000 19.2842 0.0667
57.9200 19.2909 0.0698
57.9400 19.2975 0.0734
57.9600 19.3042 0.0692
57.9800 19.3108 0.0686
58.0000 19.3174 0.0751
58.0200 19.3241 0.0709
58.0400 19.3308 0.0678
58.0600 19.3375 0.0695
58.0800 19.3441 0.0676
58.1000 19.3508 0.0714
58.1200 19.3575 0.0703
58.1400 19.3642 0.0685
58.1600 19.3708 0.0772
58.1800 19.3775 0.0680
58.2000 19.3841 0.0699
58.2200 19.3908 0.0739
58.2400 19.3975 0.0701
58.2600 19.4042 0.0710
58.2800 19.4109 0.0773
58.3000 19.4176 0.0681
58.3200 19.4242 0.0662
58.3400 19.4309 0.0761
58.3600 19.4375 0.0719
58.3800 19.4441 0.0683
58.4000 19.4508 0.0734
58.4200 19.4575 0.0723
58.4400 19.4642 0.0715
58.4600 19.4709 0.0698
58.4800 19.4776 0.0699
58.5000 19.4842 0.0777
58.5200 19.4908 0.0706
58.5400 19.4974 0.0722
58.5600 19.5041 0.0754
58.5800 19.5108 0.0763
58.6000 19.5175 0.0695
58.6200 19.5242 0.0767
58.6400 19.5309 0.0716
58.6600 19.5375 0.0719
58.6800 19.5442 0.0778
58.7000 19.5508 0.0727
58.7200 19.5574 0.0742
58.7400 19.5640 0.0789
58.7600 19.5707 0.0739
58.7800 19.5775 0.0718
58.8000 19.5842 0.0807
58.8200 19.5908 0.0769
58.8400 19.5975 0.0648
58.8600 19.6042 0.0776
58.8800 19.6108 0.0818
58.9000 19.6174 0.0716
58.9200 19.6241 0.0791
58.9400 19.6308 0.0732
58.9600 19.6375 0.0680
58.9800 19.6442 0.0834
59.0000 19.6509 0.0836
59.0200 19.6576 0.0643
59.0400 19.6642 0.0765
59.0600 19.6709 0.0747
59.0800 19.6775 0.0655
59.1000 19.6841 0.0851
59.1200 19.6908 0.0821
59.1400 19.6975 0.0624
59.1600 19.7042 0.0725
59.1800 19.7109 0.0789
59.2000 19.7176 0.0806
59.2200 19.7242 0.0797
59.2400 19.7309 0.0695
59.2600 19.7375 0.0736
59.2800 19.7441 0.0765
59.3000 19.7508 0.0729
59.3200 19.7575 0.0815
59.3400 19.7642 0.0794
59.3600 19.7708 0.0666
59.3800 19.7775 0.0780
59.4000 19.7842 0.0701
59.4200 19.7908 0.0684
59.4400 19.7974 0.0877
59.4600 19.8041 0.0734
59.4800 19.8108 0.0644
59.5000 19.8175 0.0784
59.5200 19.8242 0.0744
59.5400 19.8309 0.0775
59.5600 19.8375 0.0800
59.5800 19.8442 0.0720
59.6000 19.8509 0.0699
59.6200 19.8575 0.0816
59.6400 19.8641 0.0763
59.6600 19.8708 0.0776
59.6800 19.8775 0.0784
59.7000 19.8842 0.0720
59.7200 19.8909 0.0777
59.7400 19.8976 0.0668
59.7480 19.9002 0.0604
