Raw Data
Time Displacement Force
(s) (mm) (N)
0.0000 0.0000 -0.0014
0.0200 0.0000 0.0109
0.0400 0.0009 0.0266
0.0600 0.0044 0.0338
0.0800 0.0099 0.0073
0.1000 0.0157 -0.0110
0.1200 0.0218 0.0232
0.1400 0.0286 0.0149
0.1600 0.0359 -0.0109
0.1800 0.0434 0.0156
0.2000 0.0505 0.0000
0.2200 0.0574 -0.0053
0.2400 0.0641 0.0186
0.2600 0.0707 0.0015
0.2800 0.0774 -0.0041
0.3000 0.0841 0.0185
0.3200 0.0907 0.0035
0.3400 0.0974 0.0042
0.3600 0.1041 0.0146
0.3800 0.1108 0.0040
0.4000 0.1175 0.0115
0.4200 0.1242 0.0138
0.4400 0.1309 0.0084
0.4600 0.1376 0.0144
0.4800 0.1442 0.0124
0.5000 0.1508 0.0108
0.5200 0.1574 0.0138
0.5400 0.1641 0.0232
0.5600 0.1708 0.0113
0.5800 0.1775 0.0132
0.6000 0.1842 0.0227
0.6200 0.1909 0.0141
0.6400 0.1975 0.0219
0.6600 0.2042 0.0215
0.6800 0.2108 0.0202
0.7000 0.2174 0.0186
0.7200 0.2241 0.0233
0.7400 0.2308 0.0204
0.7600 0.2375 0.0194
0.7800 0.2442 0.0281
0.8000 0.2508 0.0252
0.8200 0.2575 0.0199
0.8400 0.2641 0.0276
0.8600 0.2707 0.0299
0.8800 0.2774 0.0246
0.9000 0.2840 0.0297
0.9200 0.2908 0.0315
0.9400 0.2975 0.0253
0.9600 0.3041 0.0313
0.9800 0.3108 0.0283
1.0000 0.3175 0.0284
1.0200 0.3241 0.0381
1.0400 0.3307 0.0281
1.0600 0.3374 0.0272
1.0800 0.3441 0.0391
1.1000 0.3508 0.0311
1.1200 0.3575 0.0333
1.1400 0.3642 0.0382
1.1600 0.3709 0.0287
1.1800 0.3776 0.0303
1.2000 0.3842 0.0373
1.2200 0.3908 0.0331
1.2400 0.3975 0.0343
1.2600 0.4042 0.0389
1.2800 0.4109 0.0319
1.3000 0.4175 0.0314
1.3200 0.4242 0.0387
1.3400 0.4309 0.0351
1.3600 0.4375 0.0328
1.3800 0.4442 0.0368
1.4000 0.4508 0.0334
1.4200 0.4574 0.0358
1.4400 0.4641 0.0360
1.4600 0.4708 0.0351
1.4800 0.4775 0.0362
1.5000 0.4842 0.0384
1.5200 0.4908 0.0350
1.5400 0.4975 0.0275
1.5600 0.5041 0.0402
1.5800 0.5108 0.0343
1.6000 0.5174 0.0331
1.6200 0.5241 0.0385
1.6400 0.5308 0.0347
1.6600 0.5375 0.0314
1.6800 0.5442 0.0371
1.7000 0.5508 0.0377
1.7200 0.5575 0.0318
1.7400 0.5642 0.0344
1.7600 0.5708 0.0381
1.7800 0.5774 0.0355
1.8000 0.5841 0.0384
1.8200 0.5908 0.0343
1.8400 0.5975 0.0301
1.8600 0.6042 0.0379
1.8800 0.6109 0.0355
1.9000 0.6175 0.0320
1.9200 0.6242 0.0339
1.9400 0.6308 0.0323
1.9600 0.6374 0.0360
1.9800 0.6441 0.0355
2.0000 0.6508 0.0300
2.0200 0.6575 0.0347
2.0400 0.6642 0.0342
2.0600 0.6709 0.0357
2.0800 0.6775 0.0383
2.1000 0.6842 0.0355
2.1200 0.6908 0.0296
2.1400 0.6974 0.0357
2.1600 0.7041 0.0318
2.1800 0.7108 0.0348
2.2000 0.7175 0.0353
2.2200 0.7242 0.0324
2.2400 0.7308 0.0328
2.2600 0.7375 0.0333
2.2800 0.7442 0.0348
2.3000 0.7508 0.0322
2.3200 0.7574 0.0360
2.3400 0.7641 0.0306
2.3600 0.7708 0.0302
2.3800 0.7775 0.0350
2.4000 0.7842 0.0333
2.4200 0.7908 0.0285
2.4400 0.7975 0.0378
2.4600 0.8042 0.0375
2.4800 0.8108 0.0291
2.5000 0.8174 0.0349
2.5200 0.8241 0.0440
2.5400 0.8308 0.0282
2.5600 0.8375 0.0343
2.5800 0.8442 0.0379
2.6000 0.8509 0.0297
2.6200 0.8575 0.0352
2.6400 0.8642 0.0324
2.6600 0.8708 0.0294
2.6800 0.8774 0.0422
2.7000 0.8841 0.0367
2.7200 0.8908 0.0273
2.7400 0.8975 0.0385
2.7600 0.9042 0.0388
2.7800 0.9109 0.0326
2.8000 0.9175 0.0372
2.8200 0.9242 0.0359
2.8400 0.9308 0.0308
2.8600 0.9374 0.0396
2.8800 0.9441 0.0292
2.9000 0.9508 0.0390
2.9200 0.9575 0.0414
2.9400 0.9642 0.0273
2.9600 0.9709 0.0340
2.9800 0.9775 0.0404
3.0000 0.9842 0.0317
3.0200 0.9908 0.0326
3.0400 0.9974 0.0360
3.0600 1.0040 0.0372
3.0800 1.0108 0.0318
3.1000 1.0175 0.0313
3.1200 1.0242 0.0361
3.1400 1.0308 0.0341
3.1600 1.0375 0.0349
3.1800 1.0442 0.0329
3.2000 1.0508 0.0382
3.2200 1.0574 0.0384
3.2400 1.0641 0.0371
3.2600 1.0708 0.0319
3.2800 1.0775 0.0363
3.3000 1.0842 0.0385
3.3200 1.0909 0.0372
3.3400 1.0976 0.0351
3.3600 1.1042 0.0391
3.3800 1.1109 0.0371
3.4000 1.1175 0.0357
3.4200 1.1241 0.0390
3.4400 1.1308 0.0397
3.4600 1.1375 0.0388
3.4800 1.1442 0.0344
3.5000 1.1509 0.0339
3.5200 1.1575 0.0428
3.5400 1.1642 0.0359
3.5600 1.1708 0.0365
3.5800 1.1774 0.0438
3.6000 1.1841 0.0332
3.6200 1.1908 0.0395
3.6400 1.1975 0.0415
3.6600 1.2042 0.0318
3.6800 1.2108 0.0446
3.7000 1.2175 0.0400
3.7200 1.2242 0.0325
3.7400 1.2308 0.0429
3.7600 1.2374 0.0444
3.7800 1.2441 0.0293
3.8000 1.2508 0.0426
3.8200 1.2575 0.0463
3.8400 1.2641 0.0288
3.8600 1.2708 0.0449
3.8800 1.2775 0.0389
3.9000 1.2842 0.0321
3.9200 1.2908 0.0504
3.9400 1.2974 0.0391
3.9600 1.3041 0.0316
3.9800 1.3108 0.0485
4.0000 1.3175 0.0358
4.0200 1.3242 0.0361
4.0400 1.3309 0.0493
4.0600 1.3375 0.0330
4.0800 1.3442 0.0384
4.1000 1.3508 0.0460
4.1200 1.3574 0.0323
4.1400 1.3641 0.0435
4.1600 1.3708 0.0471
4.1800 1.3775 0.0316
4.2000 1.3842 0.0447
4.2200 1.3909 0.0395
4.2400 1.3975 0.0364
4.2600 1.4042 0.0471
4.2800 1.4108 0.0375
4.3000 1.4174 0.0414
4.3200 1.4241 0.0482
4.3400 1.4308 0.0353
4.3600 1.4375 0.0405
4.3800 1.4441 0.0490
4.4000 1.4508 0.0346
4.4200 1.4575 0.0421
4.4400 1.4642 0.0470
4.4600 1.4708 0.0326
4.4800 1.4774 0.0436
4.5000 1.4841 0.0511
4.5200 1.4908 0.0307
4.5400 1.4975 0.0498
4.5600 1.5042 0.0466
4.5800 1.5108 0.0326
4.6000 1.5175 0.0442
4.6200 1.5242 0.0425
4.6400 1.5308 0.0341
4.6600 1.5374 0.0471
4.6800 1.5441 0.0454
4.7000 1.5508 0.0403
4.7200 1.5575 0.0459
4.7400 1.5642 0.0400
4.7600 1.5709 0.0411
4.7800 1.5776 0.0462
4.8000 1.5842 0.0372
4.8200 1.5908 0.0372
4.8400 1.5974 0.0456
4.8600 1.6041 0.0412
4.8800 1.6108 0.0385
4.9000 1.6175 0.0419
4.9200 1.6242 0.0434
4.9400 1.6308 0.0357
4.9600 1.6375 0.0450
4.9800 1.6442 0.0396
5.0000 1.6508 0.0373
5.0200 1.6574 0.0476
5.0400 1.6641 0.0382
5.0600 1.6707 0.0451
5.0800 1.6775 0.0467
5.1000 1.6841 0.0371
5.1200 1.6908 0.0421
5.1400 1.6975 0.0424
5.1600 1.7042 0.0374
5.1800 1.7108 0.0374
5.2000 1.7174 0.0453
5.2200 1.7241 0.0382
5.2400 1.7307 0.0397
5.2600 1.7375 0.0411
5.2800 1.7442 0.0355
5.3000 1.7508 0.0483
5.3200 1.7575 0.0376
5.3400 1.7642 0.0372
5.3600 1.7708 0.0416
5.3800 1.7774 0.0380
5.4000 1.7841 0.0416
5.4200 1.7908 0.0437
5.4400 1.7975 0.0353
5.4600 1.8042 0.0373
5.4800 1.8109 0.0432
5.5000 1.8176 0.0389
5.5200 1.8243 0.0397
5.5400 1.8309 0.0397
5.5600 1.8375 0.0336
5.5800 1.8441 0.0414
5.6000 1.8508 0.0426
5.6200 1.8575 0.0298
5.6400 1.8642 0.0409
5.6600 1.8709 0.0425
5.6800 1.8775 0.0330
5.7000 1.8842 0.0411
5.7200 1.8908 0.0404
5.7400 1.8974 0.0295
5.7600 1.9041 0.0454
5.7800 1.9108 0.0365
5.8000 1.9175 0.0305
5.8200 1.9242 0.0479
5.8400 1.9308 0.0345
5.8600 1.9375 0.0302
5.8800 1.9442 0.0465
5.9000 1.9508 0.0348
5.9200 1.9574 0.0378
5.9400 1.9640 0.0453
5.9600 1.9707 0.0276
5.9800 1.9774 0.0411
6.0000 1.9841 0.0426
6.0200 1.9908 0.0267
6.0400 1.9975 0.0423
6.0600 2.0042 0.0406
6.0800 2.0109 0.0249
6.1000 2.0175 0.0462
6.1200 2.0241 0.0382
6.1400 2.0308 0.0304
6.1600 2.0375 0.0459
6.1800 2.0442 0.0345
6.2000 2.0509 0.0295
6.2200 2.0576 0.0482
6.2400 2.0642 0.0324
6.2600 2.0709 0.0315
6.2800 2.0775 0.0450
6.3000 2.0841 0.0347
6.3200 2.0908 0.0352
6.3400 2.0975 0.0411
6.3600 2.1042 0.0297
6.3800 2.1109 0.0391
6.4000 2.1175 0.0360
6.4200 2.1242 0.0295
6.4400 2.1309 0.0406
6.4600 2.1375 0.0358
6.4800 2.1441 0.0352
6.5000 2.1508 0.0354
6.5200 2.1575 0.0367
6.5400 2.1641 0.0366
6.5600 2.1708 0.0361
6.5800 2.1775 0.0332
6.6000 2.1842 0.0393
6.6200 2.1909 0.0353
6.6400 2.1975 0.0330
6.6600 2.2041 0.0358
6.6800 2.2107 0.0402
6.7000 2.2174 0.0332
6.7200 2.2241 0.0388
6.7400 2.2308 0.0350
6.7600 2.2375 0.0324
6.7800 2.2442 0.0405
6.8000 2.2508 0.0379
6.8200 2.2574 0.0336
6.8400 2.2641 0.0343
6.8600 2.2707 0.0369
6.8800 2.2774 0.0336
6.9000 2.2842 0.0384
6.9200 2.2908 0.0346
6.9400 2.2975 0.0373
6.9600 2.3042 0.0330
6.9800 2.3109 0.0350
7.0000 2.3175 0.0385
7.0200 2.3241 0.0357
7.0400 2.3308 0.0391
7.0600 2.3375 0.0347
7.0800 2.3442 0.0310
7.1000 2.3508 0.0432
7.1200 2.3575 0.0349
7.1400 2.3642 0.0284
7.1600 2.3709 0.0392
7.1800 2.3775 0.0343
7.2000 2.3841 0.0323
7.2200 2.3907 0.0458
7.2400 2.3975 0.0343
7.2600 2.4042 0.0261
7.2800 2.4109 0.0418
7.3000 2.4175 0.0321
7.3200 2.4242 0.0341
7.3400 2.4308 0.0416
7.3600 2.4375 0.0276
7.3800 2.4441 0.0364
7.4000 2.4508 0.0472
7.4200 2.4575 0.0303
7.4400 2.4641 0.0364
7.4600 2.4708 0.0403
7.4800 2.4775 0.0337
7.5000 2.4842 0.0355
7.5200 2.4908 0.0407
7.5400 2.4975 0.0343
7.5600 2.5041 0.0405
7.5800 2.5108 0.0370
7.6000 2.5175 0.0327
7.6200 2.5242 0.0435
7.6400 2.5309 0.0385
7.6600 2.5376 0.0408
7.6800 2.5443 0.0381
7.7000 2.5509 0.0334
7.7200 2.5575 0.0386
7.7400 2.5641 0.0427
7.7600 2.5708 0.0381
7.7800 2.5775 0.0402
7.8000 2.5842 0.0356
7.8200 2.5909 0.0368
7.8400 2.5975 0.0380
7.8600 2.6042 0.0381
7.8800 2.6108 0.0387
7.9000 2.6175 0.0422
7.9200 2.6241 0.0337
7.9400 2.6308 0.0395
7.9600 2.6375 0.0420
7.9800 2.6442 0.0313
8.0000 2.6508 0.0423
8.0200 2.6575 0.0379
8.0400 2.6642 0.0302
8.0600 2.6709 0.0426
8.0800 2.6775 0.0338
8.1000 2.6841 0.0360
8.1200 2.6907 0.0468
8.1400 2.6974 0.0311
8.1600 2.7041 0.0356
8.1800 2.7108 0.0429
8.2000 2.7175 0.0334
8.2200 2.7242 0.0374
8.2400 2.7309 0.0452
8.2600 2.7375 0.0292
8.2800 2.7441 0.0404
8.3000 2.7508 0.0412
8.3200 2.7575 0.0322
8.3400 2.7642 0.0421
8.3600 2.7709 0.0383
8.3800 2.7775 0.0300
8.4000 2.7842 0.0405
8.4200 2.7909 0.0360
8.4400 2.7975 0.0338
8.4600 2.8041 0.0426
8.4800 2.8108 0.0365
8.5000 2.8175 0.0336
8.5200 2.8242 0.0392
8.5400 2.8309 0.0404
8.5600 2.8375 0.0376
8.5800 2.8442 0.0404
8.6000 2.8509 0.0378
8.6200 2.8575 0.0418
8.6400 2.8641 0.0365
8.6600 2.8708 0.0439
8.6800 2.8774 0.0419
8.7000 2.8841 0.0307
8.7200 2.8908 0.0398
8.7400 2.8975 0.0407
8.7600 2.9042 0.0347
8.7800 2.9109 0.0436
8.8000 2.9175 0.0326
8.8200 2.9241 0.0376
8.8400 2.9307 0.0453
8.8600 2.9374 0.0377
8.8800 2.9441 0.0356
8.9000 2.9508 0.0447
8.9200 2.9574 0.0383
8.9400 2.9641 0.0363
8.9600 2.9708 0.0400
8.9800 2.9775 0.0333
9.0000 2.9841 0.0382
9.0200 2.9908 0.0355
9.0400 2.9974 0.0387
9.0600 3.0042 0.0374
9.0800 3.0109 0.0396
9.1000 3.0176 0.0352
9.1200 3.0242 0.0394
9.1400 3.0309 0.0411
9.1600 3.0375 0.0344
9.1800 3.0441 0.0372
9.2000 3.0507 0.0424
9.2200 3.0574 0.0386
9.2400 3.0642 0.0366
9.2600 3.0709 0.0376
9.2800 3.0776 0.0394
9.3000 3.0842 0.0420
9.3200 3.0909 0.0409
9.3400 3.0975 0.0349
9.3600 3.1041 0.0356
9.3800 3.1107 0.0424
9.4000 3.1174 0.0363
9.4200 3.1242 0.0357
9.4400 3.1308 0.0400
9.4600 3.1375 0.0387
9.4800 3.1442 0.0358
9.5000 3.1509 0.0424
9.5200 3.1575 0.0390
9.5400 3.1641 0.0405
9.5600 3.1708 0.0398
9.5800 3.1774 0.0388
9.6000 3.1841 0.0430
9.6200 3.1908 0.0416
9.6400 3.1975 0.0367
9.6600 3.2042 0.0380
9.6800 3.2108 0.0387
9.7000 3.2175 0.0409
9.7200 3.2241 0.0418
9.7400 3.2307 0.0395
9.7600 3.2374 0.0379
9.7800 3.2441 0.0414
9.8000 3.2509 0.0395
9.8200 3.2576 0.0364
9.8400 3.2642 0.0413
9.8600 3.2709 0.0414
9.8800 3.2775 0.0362
9.9000 3.2841 0.0396
9.9200 3.2908 0.0463
9.9400 3.2975 0.0375
9.9600 3.3042 0.0382
9.9800 3.3109 0.0421
10.0000 3.3175 0.0390
10.0200 3.3242 0.0363
10.0400 3.3309 0.0425
10.0600 3.3375 0.0364
10.0800 3.3441 0.0373
10.1000 3.3508 0.0424
10.1200 3.3574 0.0412
10.1400 3.3641 0.0399
10.1600 3.3708 0.0368
10.1800 3.3775 0.0411
10.2000 3.3842 0.0389
10.2200 3.3909 0.0367
10.2400 3.3975 0.0398
10.2600 3.4041 0.0424
10.2800 3.4107 0.0346
10.3000 3.4174 0.0392
10.3200 3.4241 0.0457
10.3400 3.4308 0.0348
10.3600 3.4375 0.0319
10.3800 3.4442 0.0443
10.4000 3.4509 0.0379
10.4200 3.4575 0.0384
10.4400 3.4641 0.0415
10.4600 3.4708 0.0400
10.4800 3.4774 0.0411
10.5000 3.4842 0.0428
10.5200 3.4908 0.0303
10.5400 3.4975 0.0381
10.5600 3.5042 0.0470
10.5800 3.5109 0.0327
10.6000 3.5175 0.0400
10.6200 3.5241 0.0418
10.6400 3.5308 0.0349
10.6600 3.5374 0.0394
10.6800 3.5441 0.0447
10.7000 3.5508 0.0347
10.7200 3.5575 0.0426
10.7400 3.5642 0.0434
10.7600 3.5709 0.0325
10.7800 3.5775 0.0466
10.8000 3.5841 0.0454
10.8200 3.5907 0.0285
10.8400 3.5974 0.0457
10.8600 3.6042 0.0411
10.8800 3.6109 0.0361
10.9000 3.6175 0.0415
10.9200 3.6242 0.0434
10.9400 3.6309 0.0369
10.9600 3.6375 0.0400
10.9800 3.6441 0.0402
11.0000 3.6507 0.0415
11.0200 3.6574 0.0423
11.0400 3.6641 0.0383
11.0600 3.6708 0.0387
11.0800 3.6775 0.0389
11.1000 3.6842 0.0446
11.1200 3.6908 0.0395
11.1400 3.6975 0.0376
11.1600 3.7041 0.0438
11.1800 3.7107 0.0338
11.2000 3.7174 0.0382
11.2200 3.7241 0.0519
11.2400 3.7309 0.0367
11.2600 3.7376 0.0364
11.2800 3.7443 0.0467
11.3000 3.7510 0.0340
11.3200 3.7576 0.0375
11.3400 3.7641 0.0549
11.3600 3.7708 0.0346
11.3800 3.7774 0.0387
11.4000 3.7842 0.0471
11.4200 3.7909 0.0284
11.4400 3.7976 0.0442
11.4600 3.8042 0.0469
11.4800 3.8109 0.0348
11.5000 3.8175 0.0435
11.5200 3.8241 0.0398
11.5400 3.8308 0.0330
11.5600 3.8374 0.0472
11.5800 3.8441 0.0425
11.6000 3.8508 0.0349
11.6200 3.8575 0.0419
11.6400 3.8641 0.0431
11.6600 3.8708 0.0340
11.6800 3.8775 0.0479
11.7000 3.8841 0.0388
11.7200 3.8907 0.0340
11.7400 3.8974 0.0484
11.7600 3.9041 0.0388
11.7800 3.9108 0.0342
11.8000 3.9175 0.0465
11.8200 3.9242 0.0383
11.8400 3.9308 0.0288
11.8600 3.9375 0.0474
11.8800 3.9441 0.0429
11.9000 3.9507 0.0300
11.9200 3.9574 0.0495
11.9400 3.9641 0.0381
11.9600 3.9709 0.0275
11.9800 3.9775 0.0497
12.0000 3.9842 0.0376
12.0200 3.9909 0.0328
12.0400 3.9975 0.0439
12.0600 4.0042 0.0408
12.0800 4.0108 0.0310
12.1000 4.0175 0.0479
12.1200 4.0241 0.0344
12.1400 4.0308 0.0317
12.1600 4.0375 0.0499
12.1800 4.0442 0.0387
12.2000 4.0509 0.0317
12.2200 4.0576 0.0453
12.2400 4.0642 0.0427
12.2600 4.0707 0.0318
12.2800 4.0774 0.0449
12.3000 4.0841 0.0390
12.3200 4.0908 0.0352
12.3400 4.0975 0.0427
12.3600 4.1042 0.0354
12.3800 4.1109 0.0340
12.4000 4.1175 0.0496
12.4200 4.1241 0.0342
12.4400 4.1307 0.0361
12.4600 4.1374 0.0472
12.4800 4.1441 0.0388
12.5000 4.1508 0.0337
12.5200 4.1575 0.0466
12.5400 4.1642 0.0372
12.5600 4.1709 0.0327
12.5800 4.1775 0.0452
12.6000 4.1842 0.0397
12.6200 4.1908 0.0354
12.6400 4.1974 0.0467
12.6600 4.2041 0.0367
12.6800 4.2108 0.0360
12.7000 4.2175 0.0482
12.7200 4.2242 0.0353
12.7400 4.2309 0.0371
12.7600 4.2376 0.0474
12.7800 4.2442 0.0326
12.8000 4.2508 0.0311
12.8200 4.2574 0.0547
12.8400 4.2641 0.0314
12.8600 4.2708 0.0351
12.8800 4.2775 0.0510
12.9000 4.2842 0.0316
12.9200 4.2909 0.0391
12.9400 4.2975 0.0473
12.9600 4.3042 0.0335
12.9800 4.3108 0.0434
13.0000 4.3174 0.0438
13.0200 4.3241 0.0344
13.0400 4.3308 0.0422
13.0600 4.3375 0.0462
13.0800 4.3442 0.0348
13.1000 4.3509 0.0444
13.1200 4.3575 0.0440
13.1400 4.3642 0.0318
13.1600 4.3707 0.0463
13.1800 4.3774 0.0422
13.2000 4.3841 0.0370
13.2200 4.3908 0.0432
13.2400 4.3975 0.0437
13.2600 4.4042 0.0391
13.2800 4.4109 0.0437
13.3000 4.4176 0.0424
13.3200 4.4242 0.0421
13.3400 4.4308 0.0438
13.3600 4.4374 0.0435
13.3800 4.4441 0.0421
13.4000 4.4508 0.0465
13.4200 4.4576 0.0420
13.4400 4.4642 0.0392
13.4600 4.4709 0.0453
13.4800 4.4776 0.0389
13.5000 4.4842 0.0385
13.5200 4.4908 0.0426
13.5400 4.4974 0.0451
13.5600 4.5042 0.0380
13.5800 4.5109 0.0399
13.6000 4.5175 0.0418
13.6200 4.5242 0.0455
13.6400 4.5309 0.0415
13.6600 4.5375 0.0396
13.6800 4.5441 0.0431
13.7000 4.5507 0.0462
13.7200 4.5574 0.0383
13.7400 4.5641 0.0436
13.7600 4.5708 0.0444
13.7800 4.5775 0.0393
13.8000 4.5842 0.0394
13.8200 4.5909 0.0466
13.8400 4.5975 0.0383
13.8600 4.6042 0.0406
13.8800 4.6108 0.0475
13.9000 4.6174 0.0379
13.9200 4.6241 0.0429
13.9400 4.6308 0.0368
13.9600 4.6375 0.0421
13.9800 4.6442 0.0404
14.0000 4.6509 0.0418
14.0200 4.6575 0.0393
14.0400 4.6641 0.0441
14.0600 4.6707 0.0410
14.0800 4.6774 0.0421
14.1000 4.6841 0.0472
14.1200 4.6908 0.0396
14.1400 4.6975 0.0408
14.1600 4.7042 0.0424
14.1800 4.7109 0.0392
14.2000 4.7176 0.0445
14.2200 4.7242 0.0385
14.2400 4.7308 0.0396
14.2600 4.7374 0.0445
14.2800 4.7441 0.0430
14.3000 4.7508 0.0386
14.3200 4.7575 0.0402
14.3400 4.7642 0.0449
14.3600 4.7709 0.0374
14.3800 4.7776 0.0429
14.4000 4.7842 0.0392
14.4200 4.7908 0.0425
14.4400 4.7974 0.0462
14.4600 4.8041 0.0401
14.4800 4.8108 0.0391
14.5000 4.8175 0.0438
14.5200 4.8242 0.0403
14.5400 4.8308 0.0430
14.5600 4.8375 0.0410
14.5800 4.8441 0.0394
14.6000 4.8507 0.0490
14.6200 4.8574 0.0438
14.6400 4.8641 0.0376
14.6600 4.8708 0.0455
14.6800 4.8775 0.0359
14.7000 4.8841 0.0419
14.7200 4.8908 0.0471
14.7400 4.8975 0.0367
14.7600 4.9042 0.0395
14.7800 4.9108 0.0447
14.8000 4.9174 0.0387
14.8200 4.9241 0.0445
14.8400 4.9308 0.0449
14.8600 4.9375 0.0374
14.8800 4.9442 0.0465
14.9000 4.9509 0.0403
14.9200 4.9576 0.0405
14.9400 4.9642 0.0399
14.9600 4.9708 0.0432
14.9800 4.9774 0.0439
15.0000 4.9841 0.0412
15.0200 4.9908 0.0408
15.0400 4.9975 0.0431
15.0600 5.0042 0.0430
15.0800 5.0109 0.0409
15.1000 5.0176 0.0435
15.1200 5.0242 0.0372
15.1400 5.0308 0.0464
15.1600 5.0374 0.0461
15.1800 5.0441 0.0317
15.2000 5.0508 0.0464
15.2200 5.0575 0.0436
15.2400 5.0642 0.0388
15.2600 5.0709 0.0483
15.2800 5.0776 0.0353
15.3000 5.0842 0.0404
15.3200 5.0908 0.0492
15.3400 5.0974 0.0397
15.3600 5.1040 0.0385
15.3800 5.1107 0.0563
15.4000 5.1174 0.0341
15.4200 5.1241 0.0381
15.4400 5.1308 0.0525
15.4600 5.1375 0.0316
15.4800 5.1441 0.0394
15.5000 5.1508 0.0510
15.5200 5.1574 0.0344
15.5400 5.1641 0.0436
15.5600 5.1708 0.0492
15.5800 5.1775 0.0309
15.6000 5.1842 0.0470
15.6200 5.1909 0.0466
15.6400 5.1976 0.0304
15.6600 5.2042 0.0457
15.6800 5.2108 0.0523
15.7000 5.2175 0.0321
15.7200 5.2241 0.0474
15.7400 5.2309 0.0426
15.7600 5.2375 0.0376
15.7800 5.2442 0.0492
15.8000 5.2509 0.0427
15.8200 5.2576 0.0393
15.8400 5.2642 0.0447
15.8600 5.2708 0.0461
15.8800 5.2774 0.0423
15.9000 5.2841 0.0432
15.9200 5.2908 0.0443
15.9400 5.2975 0.0370
15.9600 5.3042 0.0448
15.9800 5.3108 0.0450
16.0000 5.3175 0.0415
16.0200 5.3242 0.0433
16.0400 5.3308 0.0435
16.0600 5.3374 0.0456
16.0800 5.3441 0.0391
16.1000 5.3508 0.0478
16.1200 5.3575 0.0406
16.1400 5.3642 0.0395
16.1600 5.3708 0.0453
16.1800 5.3775 0.0388
16.2000 5.3842 0.0427
16.2200 5.3908 0.0489
16.2400 5.3975 0.0382
16.2600 5.4041 0.0419
16.2800 5.4108 0.0463
16.3000 5.4175 0.0410
16.3200 5.4242 0.0381
16.3400 5.4309 0.0533
16.3600 5.4376 0.0386
16.3800 5.4442 0.0378
16.4000 5.4508 0.0496
16.4200 5.4574 0.0400
16.4400 5.4640 0.0437
16.4600 5.4708 0.0485
16.4800 5.4775 0.0400
16.5000 5.4842 0.0411
16.5200 5.4909 0.0473
16.5400 5.4975 0.0357
16.5600 5.5042 0.0479
16.5800 5.5108 0.0496
16.6000 5.5174 0.0355
16.6200 5.5241 0.0446
16.6400 5.5308 0.0501
16.6600 5.5375 0.0390
16.6800 5.5442 0.0487
16.7000 5.5508 0.0478
16.7200 5.5575 0.0369
16.7400 5.5642 0.0457
16.7600 5.5708 0.0450
16.7800 5.5774 0.0360
16.8000 5.5841 0.0485
16.8200 5.5908 0.0524
16.8400 5.5975 0.0335
16.8600 5.6041 0.0422
16.8800 5.6108 0.0500
16.9000 5.6175 0.0430
16.9200 5.6242 0.0426
16.9400 5.6308 0.0529
16.9600 5.6374 0.0407
16.9800 5.6441 0.0401
17.0000 5.6508 0.0507
17.0200 5.6575 0.0442
17.0400 5.6642 0.0357
17.0600 5.6709 0.0530
17.0800 5.6776 0.0429
17.1000 5.6842 0.0309
17.1200 5.6908 0.0514
17.1400 5.6974 0.0504
17.1600 5.7041 0.0301
17.1800 5.7108 0.0496
17.2000 5.7175 0.0472
17.2200 5.7242 0.0325
17.2400 5.7309 0.0588
17.2600 5.7376 0.0417
17.2800 5.7442 0.0296
17.3000 5.7508 0.0607
17.3200 5.7574 0.0435
17.3400 5.7640 0.0342
17.3600 5.7707 0.0652
17.3800 5.7775 0.0380
17.4000 5.7842 0.0374
17.4200 5.7909 0.0573
17.4400 5.7975 0.0380
17.4600 5.8042 0.0413
17.4800 5.8108 0.0511
17.5000 5.8174 0.0423
17.5200 5.8240 0.0461
17.5400 5.8307 0.0484
17.5600 5.8375 0.0410
17.5800 5.8442 0.0543
17.6000 5.8508 0.0458
17.6200 5.8575 0.0326
17.6400 5.8642 0.0564
17.6600 5.8708 0.0416
17.6800 5.8774 0.0384
17.7000 5.8841 0.0604
17.7200 5.8908 0.0376
17.7400 5.8975 0.0394
17.7600 5.9042 0.0479
17.7800 5.9109 0.0412
17.8000 5.9176 0.0495
17.8200 5.9243 0.0468
17.8400 5.9309 0.0335
17.8600 5.9375 0.0515
17.8800 5.9441 0.0442
17.9000 5.9508 0.0395
17.9200 5.9575 0.0517
17.9400 5.9642 0.0368
17.9600 5.9709 0.0425
17.9800 5.9776 0.0505
18.0000 5.9842 0.0299
18.0200 5.9908 0.0482
18.0400 5.9974 0.0525
18.0600 6.0041 0.0282
18.0800 6.0108 0.0489
18.1000 6.0175 0.0457
18.1200 6.0242 0.0355
18.1400 6.0308 0.0516
18.1600 6.0375 0.0384
18.1800 6.0442 0.0368
18.2000 6.0508 0.0547
18.2200 6.0574 0.0373
18.2400 6.0641 0.0421
18.2600 6.0708 0.0550
18.2800 6.0775 0.0388
18.3000 6.0841 0.0420
18.3200 6.0908 0.0534
18.3400 6.0975 0.0358
18.3600 6.1042 0.0492
18.3800 6.1108 0.0427
18.4000 6.1174 0.0369
18.4200 6.1241 0.0560
18.4400 6.1308 0.0388
18.4600 6.1375 0.0383
18.4800 6.1442 0.0511
18.5000 6.1509 0.0336
18.5200 6.1575 0.0412
18.5400 6.1642 0.0549
18.5600 6.1708 0.0321
18.5800 6.1774 0.0424
18.6000 6.1841 0.0542
18.6200 6.1908 0.0311
18.6400 6.1975 0.0482
18.6600 6.2042 0.0498
18.6800 6.2109 0.0308
18.7000 6.2175 0.0499
18.7200 6.2242 0.0422
18.7400 6.2308 0.0339
18.7600 6.2375 0.0503
18.7800 6.2441 0.0451
18.8000 6.2508 0.0377
18.8200 6.2575 0.0516
18.8400 6.2642 0.0364
18.8600 6.2708 0.0453
18.8800 6.2775 0.0549
18.9000 6.2842 0.0305
18.9200 6.2908 0.0504
18.9400 6.2974 0.0523
18.9600 6.3041 0.0340
18.9800 6.3107 0.0504
19.0000 6.3174 0.0513
19.0200 6.3241 0.0357
19.0400 6.3308 0.0478
19.0600 6.3375 0.0443
19.0800 6.3442 0.0352
19.1000 6.3508 0.0541
19.1200 6.3574 0.0422
19.1400 6.3641 0.0397
19.1600 6.3708 0.0597
19.1800 6.3775 0.0358
19.2000 6.3842 0.0412
19.2200 6.3909 0.0535
19.2400 6.3976 0.0410
19.2600 6.4042 0.0442
19.2800 6.4109 0.0464
19.3000 6.4175 0.0402
19.3200 6.4241 0.0485
19.3400 6.4308 0.0449
19.3600 6.4375 0.0386
19.3800 6.4442 0.0535
19.4000 6.4509 0.0428
19.4200 6.4575 0.0387
19.4400 6.4642 0.0505
19.4600 6.4709 0.0429
19.4800 6.4775 0.0433
19.5000 6.4841 0.0518
19.5200 6.4907 0.0391
19.5400 6.4974 0.0490
19.5600 6.5041 0.0472
19.5800 6.5108 0.0397
19.6000 6.5175 0.0482
19.6200 6.5242 0.0495
19.6400 6.5308 0.0335
19.6600 6.5374 0.0470
19.6800 6.5440 0.0463
19.7000 6.5507 0.0341
19.7200 6.5574 0.0507
19.7400 6.5641 0.0465
19.7600 6.5708 0.0352
19.7800 6.5775 0.0524
19.8000 6.5842 0.0454
19.8200 6.5908 0.0350
19.8400 6.5974 0.0552
19.8600 6.6041 0.0410
19.8800 6.6108 0.0380
19.9000 6.6175 0.0530
19.9200 6.6242 0.0424
19.9400 6.6309 0.0349
19.9600 6.6376 0.0548
19.9800 6.6443 0.0438
20.0000 6.6509 0.0350
20.0200 6.6575 0.0541
20.0400 6.6641 0.0488
20.0600 6.6708 0.0382
20.0800 6.6775 0.0524
20.1000 6.6842 0.0434
20.1200 6.6909 0.0426
20.1400 6.6976 0.0509
20.1600 6.7042 0.0414
20.1800 6.7109 0.0392
20.2000 6.7175 0.0503
20.2200 6.7241 0.0459
20.2400 6.7308 0.0398
20.2600 6.7375 0.0522
20.2800 6.7442 0.0417
20.3000 6.7508 0.0390
20.3200 6.7575 0.0484
20.3400 6.7642 0.0466
20.3600 6.7708 0.0446
20.3800 6.7774 0.0491
20.4000 6.7841 0.0427
20.4200 6.7907 0.0491
20.4400 6.7974 0.0523
20.4600 6.8041 0.0421
20.4800 6.8108 0.0432
20.5000 6.8175 0.0492
20.5200 6.8242 0.0440
20.5400 6.8309 0.0450
20.5600 6.8375 0.0457
20.5800 6.8441 0.0460
20.6000 6.8508 0.0477
20.6200 6.8575 0.0433
20.6400 6.8642 0.0509
20.6600 6.8709 0.0469
20.6800 6.8776 0.0453
20.7000 6.8843 0.0500
20.7200 6.8909 0.0437
20.7400 6.8975 0.0466
20.7600 6.9041 0.0535
20.7800 6.9107 0.0433
20.8000 6.9175 0.0495
20.8200 6.9242 0.0534
20.8400 6.9309 0.0451
20.8600 6.9375 0.0398
20.8800 6.9442 0.0551
20.9000 6.9509 0.0407
20.9200 6.9575 0.0519
20.9400 6.9641 0.0527
20.9600 6.9708 0.0412
20.9800 6.9775 0.0493
21.0000 6.9842 0.0488
21.0200 6.9908 0.0434
21.0400 6.9975 0.0528
21.0600 7.0042 0.0492
21.0800 7.0109 0.0409
21.1000 7.0175 0.0517
21.1200 7.0241 0.0477
21.1400 7.0307 0.0441
21.1600 7.0374 0.0556
21.1800 7.0441 0.0441
21.2000 7.0508 0.0450
21.2200 7.0575 0.0553
21.2400 7.0641 0.0437
21.2600 7.0708 0.0462
21.2800 7.0774 0.0553
21.3000 7.0841 0.0448
21.3200 7.0907 0.0439
21.3400 7.0974 0.0494
21.3600 7.1041 0.0427
21.3800 7.1108 0.0494
21.4000 7.1175 0.0461
21.4200 7.1242 0.0488
21.4400 7.1309 0.0429
21.4600 7.1375 0.0455
21.4800 7.1441 0.0554
21.5000 7.1508 0.0475
21.5200 7.1574 0.0472
21.5400 7.1641 0.0513
21.5600 7.1708 0.0423
21.5800 7.1775 0.0448
21.6000 7.1842 0.0569
21.6200 7.1909 0.0375
21.6400 7.1975 0.0499
21.6600 7.2041 0.0541
21.6800 7.2107 0.0373
21.7000 7.2175 0.0482
21.7200 7.2242 0.0526
21.7400 7.2309 0.0323
21.7600 7.2375 0.0541
21.7800 7.2442 0.0483
21.8000 7.2508 0.0314
21.8200 7.2575 0.0551
21.8400 7.2641 0.0459
21.8600 7.2707 0.0375
21.8800 7.2774 0.0541
21.9000 7.2841 0.0415
21.9200 7.2908 0.0404
21.9400 7.2975 0.0539
21.9600 7.3042 0.0410
21.9800 7.3108 0.0461
22.0000 7.3175 0.0504
22.0200 7.3241 0.0407
22.0400 7.3307 0.0474
22.0600 7.3374 0.0511
22.0800 7.3442 0.0382
22.1000 7.3509 0.0511
22.1200 7.3575 0.0476
22.1400 7.3642 0.0418
22.1600 7.3709 0.0487
22.1800 7.3775 0.0480
22.2000 7.3841 0.0405
22.2200 7.3908 0.0494
22.2400 7.3975 0.0484
22.2600 7.4042 0.0402
22.2800 7.4109 0.0524
22.3000 7.4175 0.0393
22.3200 7.4242 0.0437
22.3400 7.4309 0.0516
22.3600 7.4375 0.0391
22.3800 7.4441 0.0469
22.4000 7.4507 0.0551
22.4200 7.4574 0.0423
22.4400 7.4641 0.0397
22.4600 7.4708 0.0473
22.4800 7.4775 0.0442
22.5000 7.4842 0.0450
22.5200 7.4909 0.0440
22.5400 7.4975 0.0379
22.5600 7.5041 0.0508
22.5800 7.5107 0.0430
22.6000 7.5174 0.0439
22.6200 7.5241 0.0501
22.6400 7.5308 0.0450
22.6600 7.5375 0.0440
22.6800 7.5442 0.0485
22.7000 7.5509 0.0433
22.7200 7.5575 0.0456
22.7400 7.5641 0.0481
22.7600 7.5708 0.0415
22.7800 7.5775 0.0488
22.8000 7.5842 0.0485
22.8200 7.5908 0.0383
22.8400 7.5975 0.0486
22.8600 7.6042 0.0484
22.8800 7.6109 0.0434
22.9000 7.6175 0.0478
22.9200 7.6242 0.0454
22.9400 7.6308 0.0474
22.9600 7.6375 0.0433
22.9800 7.6442 0.0412
23.0000 7.6509 0.0475
23.0200 7.6575 0.0480
23.0400 7.6642 0.0423
23.0600 7.6709 0.0487
23.0800 7.6775 0.0409
23.1000 7.6841 0.0434
23.1200 7.6907 0.0497
23.1400 7.6974 0.0411
23.1600 7.7041 0.0437
23.1800 7.7108 0.0501
23.2000 7.7175 0.0427
23.2200 7.7242 0.0438
23.2400 7.7309 0.0494
23.2600 7.7375 0.0384
23.2800 7.7441 0.0501
23.3000 7.7507 0.0449
23.3200 7.7574 0.0371
23.3400 7.7641 0.0479
23.3600 7.7708 0.0476
23.3800 7.7775 0.0425
23.4000 7.7841 0.0471
23.4200 7.7908 0.0465
23.4400 7.7975 0.0414
23.4600 7.8041 0.0439
23.4800 7.8108 0.0473
23.5000 7.8174 0.0464
23.5200 7.8242 0.0465
23.5400 7.8309 0.0430
23.5600 7.8375 0.0466
23.5800 7.8442 0.0476
23.6000 7.8509 0.0480
23.6200 7.8575 0.0452
23.6400 7.8641 0.0431
23.6600 7.8708 0.0498
23.6800 7.8774 0.0449
23.7000 7.8842 0.0422
23.7200 7.8909 0.0512
23.7400 7.8976 0.0452
23.7600 7.9042 0.0399
23.7800 7.9109 0.0498
23.8000 7.9175 0.0449
23.8200 7.9241 0.0473
23.8400 7.9307 0.0480
23.8600 7.9374 0.0459
23.8800 7.9442 0.0443
23.9000 7.9508 0.0484
23.9200 7.9575 0.0460
23.9400 7.9642 0.0456
23.9600 7.9709 0.0519
23.9800 7.9775 0.0384
24.0000 7.9841 0.0476
24.0200 7.9908 0.0514
24.0400 7.9974 0.0433
24.0600 8.0041 0.0438
24.0800 8.0108 0.0505
24.1000 8.0175 0.0451
24.1200 8.0242 0.0515
24.1400 8.0309 0.0487
24.1600 8.0375 0.0419
24.1800 8.0441 0.0469
24.2000 8.0507 0.0554
24.2200 8.0574 0.0409
24.2400 8.0641 0.0508
24.2600 8.0709 0.0500
24.2800 8.0776 0.0389
24.3000 8.0842 0.0494
24.3200 8.0909 0.0500
24.3400 8.0975 0.0400
24.3600 8.1041 0.0507
24.3800 8.1108 0.0524
24.4000 8.1175 0.0400
24.4200 8.1242 0.0508
24.4400 8.1309 0.0478
24.4600 8.1375 0.0446
24.4800 8.1442 0.0528
24.5000 8.1509 0.0470
24.5200 8.1575 0.0433
24.5400 8.1641 0.0480
24.5600 8.1708 0.0519
24.5800 8.1774 0.0442
24.6000 8.1841 0.0468
24.6200 8.1908 0.0493
24.6400 8.1975 0.0420
24.6600 8.2042 0.0530
24.6800 8.2109 0.0484
24.7000 8.2175 0.0463
24.7200 8.2241 0.0449
24.7400 8.2307 0.0476
24.7600 8.2374 0.0528
24.7800 8.2441 0.0448
24.8000 8.2508 0.0514
24.8200 8.2575 0.0456
24.8400 8.2642 0.0415
24.8600 8.2709 0.0499
24.8800 8.2775 0.0466
24.9000 8.2841 0.0435
24.9200 8.2908 0.0534
24.9400 8.2974 0.0451
24.9600 8.3041 0.0442
24.9800 8.3108 0.0523
25.0000 8.3175 0.0445
25.0200 8.3242 0.0438
25.0400 8.3309 0.0534
25.0600 8.3375 0.0404
25.0800 8.3441 0.0445
25.1000 8.3508 0.0518
25.1200 8.3574 0.0451
25.1400 8.3641 0.0432
25.1600 8.3708 0.0533
25.1800 8.3775 0.0446
25.2000 8.3842 0.0453
25.2200 8.3909 0.0520
25.2400 8.3975 0.0408
25.2600 8.4041 0.0485
25.2800 8.4107 0.0509
25.3000 8.4174 0.0435
25.3200 8.4241 0.0482
25.3400 8.4308 0.0495
25.3600 8.4375 0.0433
25.3800 8.4442 0.0496
25.4000 8.4509 0.0464
25.4200 8.4575 0.0466
25.4400 8.4641 0.0459
25.4600 8.4707 0.0478
25.4800 8.4774 0.0513
25.5000 8.4841 0.0478
25.5200 8.4908 0.0438
25.5400 8.4975 0.0467
25.5600 8.5041 0.0456
25.5800 8.5108 0.0463
25.6000 8.5175 0.0475
25.6200 8.5241 0.0417
25.6400 8.5307 0.0495
25.6600 8.5374 0.0502
25.6800 8.5441 0.0415
25.7000 8.5508 0.0470
25.7200 8.5575 0.0525
25.7400 8.5642 0.0396
25.7600 8.5709 0.0494
25.7800 8.5776 0.0500
25.8000 8.5842 0.0416
25.8200 8.5908 0.0490
25.8400 8.5974 0.0490
25.8600 8.6042 0.0436
25.8800 8.6109 0.0508
25.9000 8.6176 0.0485
25.9200 8.6242 0.0440
25.9400 8.6309 0.0486
25.9600 8.6376 0.0481
25.9800 8.6442 0.0457
26.0000 8.6507 0.0506
26.0200 8.6574 0.0471
26.0400 8.6641 0.0453
26.0600 8.6708 0.0486
26.0800 8.6775 0.0420
26.1000 8.6842 0.0486
26.1200 8.6909 0.0506
26.1400 8.6975 0.0452
26.1600 8.7041 0.0427
26.1800 8.7107 0.0521
26.2000 8.7174 0.0437
26.2200 8.7241 0.0459
26.2400 8.7308 0.0506
26.2600 8.7375 0.0483
26.2800 8.7441 0.0457
26.3000 8.7508 0.0493
26.3200 8.7575 0.0448
26.3400 8.7641 0.0480
26.3600 8.7707 0.0476
26.3800 8.7774 0.0502
26.4000 8.7841 0.0485
26.4200 8.7909 0.0455
26.4400 8.7975 0.0480
26.4600 8.8042 0.0496
26.4800 8.8109 0.0463
26.5000 8.8176 0.0429
26.5200 8.8242 0.0504
26.5400 8.8308 0.0460
26.5600 8.8375 0.0497
26.5800 8.8441 0.0503
26.6000 8.8508 0.0472
26.6200 8.8575 0.0482
26.6400 8.8642 0.0498
26.6600 8.8709 0.0455
26.6800 8.8776 0.0520
26.7000 8.8842 0.0520
26.7200 8.8908 0.0465
26.7400 8.8974 0.0501
26.7600 8.9041 0.0499
26.7800 8.9108 0.0466
26.8000 8.9175 0.0468
26.8200 8.9242 0.0492
26.8400 8.9309 0.0479
26.8600 8.9375 0.0481
26.8800 8.9441 0.0484
26.9000 8.9507 0.0476
26.9200 8.9574 0.0524
26.9400 8.9641 0.0496
26.9600 8.9708 0.0445
26.9800 8.9775 0.0528
27.0000 8.9842 0.0493
27.0200 8.9908 0.0462
27.0400 8.9975 0.0467
27.0600 9.0042 0.0512
27.0800 9.0108 0.0471
27.1000 9.0174 0.0514
27.1200 9.0241 0.0500
27.1400 9.0308 0.0505
27.1600 9.0375 0.0479
27.1800 9.0442 0.0462
27.2000 9.0509 0.0497
27.2200 9.0576 0.0481
27.2400 9.0642 0.0495
27.2600 9.0708 0.0524
27.2800 9.0774 0.0465
27.3000 9.0841 0.0504
27.3200 9.0908 0.0510
27.3400 9.0976 0.0474
27.3600 9.1042 0.0476
27.3800 9.1109 0.0467
27.4000 9.1175 0.0458
27.4200 9.1242 0.0504
27.4400 9.1308 0.0528
27.4600 9.1374 0.0466
27.4800 9.1441 0.0510
27.5000 9.1508 0.0470
27.5200 9.1575 0.0468
27.5400 9.1642 0.0532
27.5600 9.1709 0.0469
27.5800 9.1775 0.0472
27.6000 9.1842 0.0548
27.6200 9.1908 0.0406
27.6400 9.1974 0.0498
27.6600 9.2041 0.0562
27.6800 9.2108 0.0418
27.7000 9.2175 0.0495
27.7200 9.2242 0.0554
27.7400 9.2309 0.0382
27.7600 9.2375 0.0498
27.7800 9.2442 0.0569
27.8000 9.2508 0.0406
27.8200 9.2574 0.0524
27.8400 9.2641 0.0523
27.8600 9.2708 0.0397
27.8800 9.2775 0.0525
27.9000 9.2842 0.0600
27.9200 9.2909 0.0414
27.9400 9.2976 0.0507
27.9600 9.3042 0.0565
27.9800 9.3108 0.0431
28.0000 9.3174 0.0557
28.0200 9.3241 0.0525
28.0400 9.3308 0.0401
28.0600 9.3375 0.0554
28.0800 9.3442 0.0479
28.1000 9.3508 0.0476
28.1200 9.3575 0.0526
28.1400 9.3642 0.0444
28.1600 9.3708 0.0465
28.1800 9.3774 0.0538
28.2000 9.3841 0.0488
28.2200 9.3908 0.0398
28.2400 9.3975 0.0532
28.2600 9.4042 0.0503
28.2800 9.4109 0.0487
28.3000 9.4175 0.0485
28.3200 9.4242 0.0514
28.3400 9.4308 0.0465
28.3600 9.4374 0.0478
28.3800 9.4441 0.0502
28.4000 9.4508 0.0441
28.4200 9.4575 0.0510
28.4400 9.4642 0.0583
28.4600 9.4709 0.0411
28.4800 9.4775 0.0495
28.5000 9.4842 0.0525
28.5200 9.4908 0.0395
28.5400 9.4974 0.0545
28.5600 9.5041 0.0579
28.5800 9.5108 0.0428
28.6000 9.5175 0.0511
28.6200 9.5242 0.0534
28.6400 9.5309 0.0406
28.6600 9.5376 0.0521
28.6800 9.5442 0.0549
28.7000 9.5508 0.0421
28.7200 9.5575 0.0508
28.7400 9.5641 0.0566
28.7600 9.5708 0.0405
28.7800 9.5775 0.0530
28.8000 9.5842 0.0548
28.8200 9.5909 0.0430
28.8400 9.5976 0.0479
28.8600 9.6042 0.0517
28.8800 9.6108 0.0469
28.9000 9.6174 0.0573
28.9200 9.6241 0.0490
28.9400 9.6308 0.0465
28.9600 9.6375 0.0518
28.9800 9.6442 0.0523
29.0000 9.6508 0.0486
29.0200 9.6575 0.0526
29.0400 9.6642 0.0505
29.0600 9.6708 0.0434
29.0800 9.6774 0.0572
29.1000 9.6841 0.0512
29.1200 9.6908 0.0435
29.1400 9.6975 0.0550
29.1600 9.7042 0.0529
29.1800 9.7108 0.0447
29.2000 9.7175 0.0537
29.2200 9.7242 0.0473
29.2400 9.7308 0.0507
29.2600 9.7374 0.0511
29.2800 9.7441 0.0527
29.3000 9.7508 0.0473
29.3200 9.7575 0.0509
29.3400 9.7642 0.0533
29.3600 9.7709 0.0445
29.3800 9.7776 0.0490
29.4000 9.7842 0.0466
29.4200 9.7908 0.0486
29.4400 9.7974 0.0519
29.4600 9.8041 0.0497
29.4800 9.8108 0.0464
29.5000 9.8175 0.0512
29.5200 9.8242 0.0503
29.5400 9.8309 0.0477
29.5600 9.8376 0.0493
29.5800 9.8442 0.0516
29.6000 9.8508 0.0426
29.6200 9.8574 0.0516
29.6400 9.8641 0.0472
29.6600 9.8708 0.0430
29.6800 9.8775 0.0483
29.7000 9.8842 0.0453
29.7200 9.8908 0.0467
29.7400 9.8975 0.0511
29.7600 9.9042 0.0432
29.7800 9.9108 0.0474
29.8000 9.9174 0.0503
29.8200 9.9240 0.0487
29.8400 9.9307 0.0495
29.8600 9.9375 0.0437
29.8800 9.9442 0.0472
29.9000 9.9508 0.0525
29.9200 9.9575 0.0429
29.9400 9.9641 0.0450
29.9600 9.9708 0.0530
29.9800 9.9774 0.0421
30.0000 9.9841 0.0506
30.0200 9.9908 0.0499
30.0400 9.9975 0.0429
30.0600 10.0042 0.0490
30.0800 10.0109 0.0493
30.1000 10.0176 0.0405
30.1200 10.0242 0.0466
30.1400 10.0308 0.0512
30.1600 10.0375 0.0428
30.1800 10.0441 0.0501
30.2000 10.0508 0.0503
30.2200 10.0575 0.0409
30.2400 10.0642 0.0505
30.2600 10.0709 0.0496
30.2800 10.0776 0.0429
30.3000 10.0842 0.0492
30.3200 10.0908 0.0519
30.3400 10.0974 0.0442
30.3600 10.1041 0.0457
30.3800 10.1108 0.0492
30.4000 10.1175 0.0449
30.4200 10.1242 0.0479
30.4400 10.1308 0.0487
30.4600 10.1375 0.0512
30.4800 10.1442 0.0435
30.5000 10.1508 0.0493
30.5200 10.1574 0.0511
30.5400 10.1641 0.0486
30.5600 10.1708 0.0492
30.5800 10.1775 0.0469
30.6000 10.1842 0.0455
30.6200 10.1908 0.0475
30.6400 10.1975 0.0538
30.6600 10.2042 0.0480
30.6800 10.2108 0.0507
30.7000 10.2174 0.0527
30.7200 10.2241 0.0431
30.7400 10.2308 0.0515
30.7600 10.2375 0.0511
30.7800 10.2442 0.0423
30.8000 10.2509 0.0539
30.8200 10.2576 0.0479
30.8400 10.2642 0.0426
30.8600 10.2708 0.0565
30.8800 10.2774 0.0489
30.9000 10.2841 0.0414
30.9200 10.2908 0.0569
30.9400 10.2975 0.0432
30.9600 10.3042 0.0472
30.9800 10.3109 0.0541
31.0000 10.3175 0.0429
31.0200 10.3242 0.0447
31.0400 10.3308 0.0571
31.0600 10.3374 0.0437
31.0800 10.3441 0.0516
31.1000 10.3508 0.0590
31.1200 10.3575 0.0429
31.1400 10.3642 0.0503
31.1600 10.3708 0.0572
31.1800 10.3775 0.0462
31.2000 10.3842 0.0487
31.2200 10.3908 0.0537
31.2400 10.3974 0.0437
31.2600 10.4041 0.0519
31.2800 10.4107 0.0525
31.3000 10.4175 0.0470
31.3200 10.4242 0.0540
31.3400 10.4308 0.0541
31.3600 10.4375 0.0465
31.3800 10.4442 0.0550
31.4000 10.4508 0.0498
31.4200 10.4574 0.0486
31.4400 10.4641 0.0548
31.4600 10.4708 0.0531
31.4800 10.4775 0.0501
31.5000 10.4842 0.0525
31.5200 10.4909 0.0522
31.5400 10.4976 0.0511
31.5600 10.5042 0.0520
31.5800 10.5108 0.0517
31.6000 10.5175 0.0557
31.6200 10.5241 0.0475
31.6400 10.5308 0.0510
31.6600 10.5375 0.0550
31.6800 10.5442 0.0503
31.7000 10.5509 0.0538
31.7200 10.5576 0.0550
31.7400 10.5642 0.0443
31.7600 10.5708 0.0547
31.7800 10.5774 0.0544
31.8000 10.5841 0.0484
31.8200 10.5908 0.0535
31.8400 10.5975 0.0566
31.8600 10.6042 0.0405
31.8800 10.6109 0.0587
31.9000 10.6176 0.0523
31.9200 10.6242 0.0425
31.9400 10.6308 0.0593
31.9600 10.6374 0.0551
31.9800 10.6440 0.0491
32.0000 10.6507 0.0568
32.0200 10.6575 0.0487
32.0400 10.6642 0.0496
32.0600 10.6708 0.0565
32.0800 10.6775 0.0486
32.1000 10.6842 0.0536
32.1200 10.6908 0.0538
32.1400 10.6974 0.0492
32.1600 10.7041 0.0523
32.1800 10.7108 0.0577
32.2000 10.7175 0.0507
32.2200 10.7242 0.0517
32.2400 10.7309 0.0524
32.2600 10.7376 0.0521
32.2800 10.7443 0.0510
32.3000 10.7509 0.0536
32.3200 10.7575 0.0509
32.3400 10.7641 0.0481
32.3600 10.7708 0.0554
32.3800 10.7775 0.0549
32.4000 10.7842 0.0441
32.4200 10.7909 0.0569
32.4400 10.7975 0.0566
32.4600 10.8042 0.0424
32.4800 10.8108 0.0580
32.5000 10.8174 0.0540
32.5200 10.8241 0.0529
32.5400 10.8308 0.0517
32.5600 10.8375 0.0473
32.5800 10.8442 0.0533
32.6000 10.8508 0.0522
32.6200 10.8575 0.0466
32.6400 10.8642 0.0544
32.6600 10.8708 0.0580
32.6800 10.8774 0.0509
32.7000 10.8841 0.0495
32.7200 10.8908 0.0551
32.7400 10.8975 0.0489
32.7600 10.9041 0.0562
32.7800 10.9108 0.0526
32.8000 10.9175 0.0506
32.8200 10.9242 0.0522
32.8400 10.9308 0.0498
32.8600 10.9375 0.0546
32.8800 10.9441 0.0524
32.9000 10.9507 0.0561
32.9200 10.9575 0.0503
32.9400 10.9642 0.0551
32.9600 10.9708 0.0532
32.9800 10.9775 0.0505
33.0000 10.9842 0.0556
33.0200 10.9908 0.0535
33.0400 10.9974 0.0523
33.0600 11.0041 0.0533
33.0800 11.0108 0.0524
33.1000 11.0175 0.0585
33.1200 11.0242 0.0488
33.1400 11.0309 0.0517
33.1600 11.0376 0.0583
33.1800 11.0442 0.0535
33.2000 11.0509 0.0499
33.2200 11.0575 0.0525
33.2400 11.0641 0.0585
33.2600 11.0708 0.0526
33.2800 11.0775 0.0520
33.3000 11.0842 0.0559
33.3200 11.0908 0.0540
33.3400 11.0975 0.0556
33.3600 11.1042 0.0524
33.3800 11.1108 0.0502
33.4000 11.1175 0.0574
33.4200 11.1241 0.0582
33.4400 11.1307 0.0515
33.4600 11.1374 0.0557
33.4800 11.1441 0.0624
33.5000 11.1508 0.0486
33.5200 11.1575 0.0538
33.5400 11.1642 0.0616
33.5600 11.1708 0.0472
33.5800 11.1775 0.0538
33.6000 11.1841 0.0550
33.6200 11.1908 0.0513
33.6400 11.1975 0.0597
33.6600 11.2042 0.0556
33.6800 11.2109 0.0497
33.7000 11.2176 0.0604
33.7200 11.2242 0.0518
33.7400 11.2309 0.0518
33.7600 11.2375 0.0645
33.7800 11.2441 0.0508
33.8000 11.2508 0.0533
33.8200 11.2575 0.0646
33.8400 11.2642 0.0417
33.8600 11.2708 0.0587
33.8800 11.2775 0.0584
33.9000 11.2842 0.0433
33.9200 11.2909 0.0568
33.9400 11.2975 0.0629
33.9600 11.3041 0.0489
33.9800 11.3107 0.0579
34.0000 11.3174 0.0585
34.0200 11.3241 0.0528
34.0400 11.3308 0.0550
34.0600 11.3375 0.0582
34.0800 11.3442 0.0515
34.1000 11.3509 0.0523
34.1200 11.3574 0.0520
34.1400 11.3640 0.0597
34.1600 11.3707 0.0549
34.1800 11.3774 0.0506
34.2000 11.3841 0.0581
34.2200 11.3908 0.0527
34.2400 11.3975 0.0549
34.2600 11.4042 0.0578
34.2800 11.4108 0.0547
34.3000 11.4175 0.0492
34.3200 11.4241 0.0643
34.3400 11.4308 0.0547
34.3600 11.4375 0.0517
34.3800 11.4442 0.0627
34.4000 11.4509 0.0537
34.4200 11.4576 0.0507
34.4400 11.4643 0.0576
34.4600 11.4709 0.0513
34.4800 11.4775 0.0597
34.5000 11.4841 0.0584
34.5200 11.4908 0.0474
34.5400 11.4975 0.0604
34.5600 11.5042 0.0582
34.5800 11.5109 0.0484
34.6000 11.5175 0.0602
34.6200 11.5242 0.0559
34.6400 11.5309 0.0428
34.6600 11.5375 0.0687
34.6800 11.5441 0.0569
34.7000 11.5507 0.0454
34.7200 11.5574 0.0650
34.7400 11.5641 0.0573
34.7600 11.5708 0.0447
34.7800 11.5775 0.0703
34.8000 11.5842 0.0577
34.8200 11.5908 0.0452
34.8400 11.5974 0.0664
34.8600 11.6040 0.0558
34.8800 11.6107 0.0536
34.9000 11.6174 0.0654
34.9200 11.6241 0.0554
34.9400 11.6308 0.0487
34.9600 11.6375 0.0614
34.9800 11.6442 0.0559
35.0000 11.6509 0.0528
35.0200 11.6575 0.0607
35.0400 11.6641 0.0577
35.0600 11.6708 0.0577
35.0800 11.6775 0.0586
35.1000 11.6842 0.0500
35.1200 11.6909 0.0598
35.1400 11.6975 0.0541
35.1600 11.7042 0.0562
35.1800 11.7109 0.0543
35.2000 11.7175 0.0590
35.2200 11.7241 0.0582
35.2400 11.7307 0.0522
35.2600 11.7375 0.0543
35.2800 11.7442 0.0583
35.3000 11.7509 0.0529
35.3200 11.7575 0.0565
35.3400 11.7642 0.0627
35.3600 11.7709 0.0498
35.3800 11.7775 0.0574
35.4000 11.7842 0.0628
35.4200 11.7908 0.0496
35.4400 11.7975 0.0561
35.4600 11.8041 0.0599
35.4800 11.8108 0.0481
35.5000 11.8175 0.0582
35.5200 11.8242 0.0632
35.5400 11.8309 0.0498
35.5600 11.8375 0.0482
35.5800 11.8441 0.0664
35.6000 11.8507 0.0527
35.6200 11.8574 0.0553
35.6400 11.8641 0.0636
35.6600 11.8708 0.0535
35.6800 11.8775 0.0540
35.7000 11.8842 0.0619
35.7200 11.8908 0.0504
35.7400 11.8975 0.0554
35.7600 11.9041 0.0654
35.7800 11.9107 0.0488
35.8000 11.9174 0.0543
35.8200 11.9241 0.0670
35.8400 11.9308 0.0465
35.8600 11.9375 0.0553
35.8800 11.9442 0.0682
35.9000 11.9509 0.0456
35.9200 11.9575 0.0580
35.9400 11.9641 0.0573
35.9600 11.9708 0.0535
35.9800 11.9775 0.0634
36.0000 11.9842 0.0578
36.0200 11.9908 0.0522
36.0400 11.9975 0.0564
36.0600 12.0042 0.0605
36.0800 12.0109 0.0535
36.1000 12.0175 0.0542
36.1200 12.0241 0.0642
36.1400 12.0307 0.0533
36.1600 12.0374 0.0592
36.1800 12.0442 0.0604
36.2000 12.0509 0.0582
36.2200 12.0575 0.0569
36.2400 12.0642 0.0578
36.2600 12.0709 0.0555
36.2800 12.0775 0.0521
36.3000 12.0841 0.0670
36.3200 12.0907 0.0509
36.3400 12.0974 0.0547
36.3600 12.1041 0.0612
36.3800 12.1108 0.0563
36.4000 12.1175 0.0558
36.4200 12.1242 0.0551
36.4400 12.1309 0.0514
36.4600 12.1375 0.0612
36.4800 12.1441 0.0586
36.5000 12.1508 0.0526
36.5200 12.1574 0.0580
36.5400 12.1642 0.0618
36.5600 12.1709 0.0451
36.5800 12.1775 0.0595
36.6000 12.1842 0.0657
36.6200 12.1909 0.0522
36.6400 12.1975 0.0561
36.6600 12.2041 0.0536
36.6800 12.2108 0.0634
36.7000 12.2175 0.0584
36.7200 12.2242 0.0455
36.7400 12.2309 0.0578
36.7600 12.2375 0.0641
36.7800 12.2442 0.0527
36.8000 12.2509 0.0579
36.8200 12.2575 0.0570
36.8400 12.2641 0.0569
36.8600 12.2707 0.0622
36.8800 12.2774 0.0548
36.9000 12.2841 0.0527
36.9200 12.2908 0.0610
36.9400 12.2975 0.0498
36.9600 12.3042 0.0570
36.9800 12.3109 0.0569
37.0000 12.3175 0.0506
37.0200 12.3241 0.0632
37.0400 12.3307 0.0593
37.0600 12.3374 0.0484
37.0800 12.3441 0.0612
37.1000 12.3508 0.0610
37.1200 12.3575 0.0464
37.1400 12.3642 0.0582
37.1600 12.3709 0.0606
37.1800 12.3775 0.0511
37.2000 12.3841 0.0572
37.2200 12.3907 0.0588
37.2400 12.3974 0.0572
37.2600 12.4042 0.0575
37.2800 12.4108 0.0516
37.3000 12.4175 0.0610
37.3200 12.4242 0.0571
37.3400 12.4309 0.0543
37.3600 12.4376 0.0602
37.3800 12.4442 0.0576
37.4000 12.4508 0.0578
37.4200 12.4575 0.0580
37.4400 12.4642 0.0500
37.4600 12.4709 0.0594
37.4800 12.4775 0.0594
37.5000 12.4842 0.0550
37.5200 12.4909 0.0624
37.5400 12.4975 0.0605
37.5600 12.5041 0.0488
37.5800 12.5107 0.0590
37.6000 12.5174 0.0639
37.6200 12.5241 0.0508
37.6400 12.5308 0.0651
37.6600 12.5375 0.0527
37.6800 12.5442 0.0503
37.7000 12.5509 0.0616
37.7200 12.5575 0.0574
37.7400 12.5641 0.0558
37.7600 12.5707 0.0600
37.7800 12.5774 0.0529
37.8000 12.5841 0.0588
37.8200 12.5908 0.0611
37.8400 12.5974 0.0516
37.8600 12.6041 0.0615
37.8800 12.6108 0.0601
37.9000 12.6175 0.0495
37.9200 12.6241 0.0615
37.9400 12.6307 0.0573
37.9600 12.6374 0.0581
37.9800 12.6442 0.0614
38.0000 12.6509 0.0490
38.0200 12.6576 0.0609
38.0400 12.6642 0.0569
38.0600 12.6709 0.0530
38.0800 12.6776 0.0605
38.1000 12.6842 0.0571
38.1200 12.6908 0.0523
38.1400 12.6974 0.0597
38.1600 12.7042 0.0513
38.1800 12.7109 0.0595
38.2000 12.7175 0.0608
38.2200 12.7242 0.0523
38.2400 12.7309 0.0577
38.2600 12.7375 0.0640
38.2800 12.7441 0.0462
38.3000 12.7507 0.0640
38.3200 12.7574 0.0665
38.3400 12.7641 0.0427
38.3600 12.7708 0.0672
38.3800 12.7775 0.0561
38.4000 12.7842 0.0442
38.4200 12.7909 0.0677
38.4400 12.7975 0.0520
38.4600 12.8041 0.0467
38.4800 12.8108 0.0689
38.5000 12.8174 0.0527
38.5200 12.8241 0.0480
38.5400 12.8308 0.0703
38.5600 12.8375 0.0549
38.5800 12.8441 0.0459
38.6000 12.8508 0.0694
38.6200 12.8575 0.0457
38.6400 12.8641 0.0491
38.6600 12.8707 0.0692
38.6800 12.8774 0.0500
38.7000 12.8841 0.0508
38.7200 12.8908 0.0628
38.7400 12.8975 0.0528
38.7600 12.9042 0.0498
38.7800 12.9109 0.0619
38.8000 12.9175 0.0500
38.8200 12.9241 0.0563
38.8400 12.9307 0.0673
38.8600 12.9374 0.0531
38.8800 12.9442 0.0541
38.9000 12.9509 0.0614
38.9200 12.9576 0.0516
38.9400 12.9642 0.0552
38.9600 12.9709 0.0592
38.9800 12.9775 0.0546
39.0000 12.9842 0.0495
39.0200 12.9908 0.0621
39.0400 12.9974 0.0545
39.0600 13.0041 0.0552
39.0800 13.0108 0.0570
39.1000 13.0175 0.0533
39.1200 13.0241 0.0575
39.1400 13.0308 0.0573
39.1600 13.0375 0.0530
39.1800 13.0441 0.0528
39.2000 13.0507 0.0577
39.2200 13.0574 0.0566
39.2400 13.0641 0.0569
39.2600 13.0708 0.0562
39.2800 13.0775 0.0566
39.3000 13.0842 0.0519
39.3200 13.0909 0.0570
39.3400 13.0975 0.0584
39.3600 13.1042 0.0564
39.3800 13.1108 0.0580
39.4000 13.1174 0.0598
39.4200 13.1241 0.0513
39.4400 13.1308 0.0593
39.4600 13.1375 0.0594
39.4800 13.1442 0.0512
39.5000 13.1509 0.0591
39.5200 13.1575 0.0625
39.5400 13.1642 0.0515
39.5600 13.1708 0.0638
39.5800 13.1774 0.0603
39.6000 13.1841 0.0501
39.6200 13.1908 0.0600
39.6400 13.1975 0.0616
39.6600 13.2042 0.0532
39.6800 13.2109 0.0618
39.7000 13.2175 0.0623
39.7200 13.2241 0.0481
39.7400 13.2308 0.0594
39.7600 13.2374 0.0621
39.7800 13.2441 0.0519
39.8000 13.2509 0.0553
39.8200 13.2575 0.0617
39.8400 13.2642 0.0501
39.8600 13.2709 0.0594
39.8800 13.2775 0.0584
39.9000 13.2841 0.0511
39.9200 13.2907 0.0639
39.9400 13.2974 0.0620
39.9600 13.3041 0.0385
39.9800 13.3108 0.0603
40.0000 13.3175 0.0740
40.0200 13.3241 0.0429
40.0400 13.3308 0.0568
40.0600 13.3375 0.0707
40.0800 13.3441 0.0452
40.1000 13.3507 0.0562
40.1200 13.3574 0.0665
40.1400 13.3641 0.0540
40.1600 13.3708 0.0591
40.1800 13.3775 0.0541
40.2000 13.3842 0.0508
40.2200 13.3909 0.0683
40.2400 13.3976 0.0619
40.2600 13.4042 0.0373
40.2800 13.4108 0.0701
40.3000 13.4174 0.0712
40.3200 13.4241 0.0417
40.3400 13.4309 0.0656
40.3600 13.4375 0.0646
40.3800 13.4442 0.0444
40.4000 13.4509 0.0602
40.4200 13.4575 0.0652
40.4400 13.4641 0.0468
40.4600 13.4707 0.0570
40.4800 13.4774 0.0709
40.5000 13.4841 0.0497
40.5200 13.4908 0.0512
40.5400 13.4975 0.0734
40.5600 13.5042 0.0486
40.5800 13.5108 0.0551
40.6000 13.5175 0.0644
40.6200 13.5241 0.0581
40.6400 13.5307 0.0579
40.6600 13.5374 0.0629
40.6800 13.5441 0.0577
40.7000 13.5508 0.0619
40.7200 13.5575 0.0548
40.7400 13.5641 0.0532
40.7600 13.5708 0.0685
40.7800 13.5775 0.0629
40.8000 13.5841 0.0457
40.8200 13.5907 0.0663
40.8400 13.5974 0.0663
40.8600 13.6041 0.0536
40.8800 13.6108 0.0622
40.9000 13.6176 0.0605
40.9200 13.6242 0.0567
40.9400 13.6309 0.0558
40.9600 13.6375 0.0610
40.9800 13.6442 0.0593
41.0000 13.6508 0.0595
41.0200 13.6575 0.0590
41.0400 13.6641 0.0568
41.0600 13.6708 0.0612
41.0800 13.6775 0.0581
41.1000 13.6842 0.0600
41.1200 13.6909 0.0593
41.1400 13.6976 0.0504
41.1600 13.7042 0.0638
41.1800 13.7108 0.0623
41.2000 13.7174 0.0592
41.2200 13.7241 0.0561
41.2400 13.7308 0.0600
41.2600 13.7375 0.0631
41.2800 13.7442 0.0595
41.3000 13.7509 0.0630
41.3200 13.7575 0.0623
41.3400 13.7641 0.0586
41.3600 13.7707 0.0566
41.3800 13.7774 0.0637
41.4000 13.7840 0.0642
41.4200 13.7908 0.0559
41.4400 13.7975 0.0615
41.4600 13.8042 0.0621
41.4800 13.8108 0.0537
41.5000 13.8175 0.0645
41.5200 13.8242 0.0627
41.5400 13.8308 0.0521
41.5600 13.8374 0.0582
41.5800 13.8441 0.0655
41.6000 13.8508 0.0534
41.6200 13.8575 0.0617
41.6400 13.8642 0.0620
41.6600 13.8709 0.0552
41.6800 13.8776 0.0594
41.7000 13.8842 0.0538
41.7200 13.8908 0.0597
41.7400 13.8974 0.0616
41.7600 13.9041 0.0564
41.7800 13.9108 0.0563
41.8000 13.9175 0.0631
41.8200 13.9242 0.0529
41.8400 13.9309 0.0530
41.8600 13.9376 0.0602
41.8800 13.9442 0.0570
41.9000 13.9508 0.0574
41.9200 13.9574 0.0612
41.9400 13.9641 0.0566
41.9600 13.9708 0.0592
41.9800 13.9775 0.0531
42.0000 13.9842 0.0598
42.0200 13.9909 0.0598
42.0400 13.9976 0.0544
42.0600 14.0042 0.0569
42.0800 14.0108 0.0609
42.1000 14.0174 0.0533
42.1200 14.0240 0.0587
42.1400 14.0307 0.0599
42.1600 14.0375 0.0497
42.1800 14.0441 0.0645
42.2000 14.0508 0.0562
42.2200 14.0575 0.0546
42.2400 14.0642 0.0586
42.2600 14.0708 0.0595
42.2800 14.0774 0.0574
42.3000 14.0841 0.0582
42.3200 14.0908 0.0549
42.3400 14.0976 0.0548
42.3600 14.1042 0.0604
42.3800 14.1109 0.0564
42.4000 14.1176 0.0499
42.4200 14.1242 0.0590
42.4400 14.1308 0.0582
42.4600 14.1374 0.0557
42.4800 14.1441 0.0628
42.5000 14.1508 0.0605
42.5200 14.1575 0.0503
42.5400 14.1642 0.0611
42.5600 14.1709 0.0539
42.5800 14.1775 0.0514
42.6000 14.1842 0.0692
42.6200 14.1908 0.0493
42.6400 14.1974 0.0521
42.6600 14.2040 0.0617
42.6800 14.2108 0.0527
42.7000 14.2175 0.0577
42.7200 14.2242 0.0617
42.7400 14.2309 0.0487
42.7600 14.2376 0.0551
42.7800 14.2442 0.0656
42.8000 14.2508 0.0485
42.8200 14.2574 0.0551
42.8400 14.2641 0.0710
42.8600 14.2708 0.0448
42.8800 14.2775 0.0531
42.9000 14.2842 0.0681
42.9200 14.2908 0.0494
42.9400 14.2975 0.0592
42.9600 14.3042 0.0642
42.9800 14.3108 0.0500
43.0000 14.3174 0.0573
43.0200 14.3241 0.0628
43.0400 14.3308 0.0495
43.0600 14.3375 0.0607
43.0800 14.3442 0.0636
43.1000 14.3509 0.0465
43.1200 14.3576 0.0579
43.1400 14.3642 0.0662
43.1600 14.3708 0.0455
43.1800 14.3774 0.0616
43.2000 14.3841 0.0642
43.2200 14.3908 0.0495
43.2400 14.3975 0.0520
43.2600 14.4042 0.0640
43.2800 14.4109 0.0524
43.3000 14.4176 0.0542
43.3200 14.4242 0.0650
43.3400 14.4308 0.0515
43.3600 14.4374 0.0556
43.3800 14.4441 0.0692
43.4000 14.4508 0.0524
43.4200 14.4575 0.0492
43.4400 14.4642 0.0715
43.4600 14.4708 0.0537
43.4800 14.4775 0.0469
43.5000 14.4842 0.0634
43.5200 14.4908 0.0594
43.5400 14.4974 0.0491
43.5600 14.5041 0.0636
43.5800 14.5108 0.0566
43.6000 14.5175 0.0533
43.6200 14.5241 0.0632
43.6400 14.5308 0.0545
43.6600 14.5375 0.0531
43.6800 14.5442 0.0680
43.7000 14.5508 0.0526
43.7200 14.5574 0.0500
43.7400 14.5641 0.0714
43.7600 14.5708 0.0557
43.7800 14.5775 0.0497
43.8000 14.5842 0.0674
43.8200 14.5909 0.0550
43.8400 14.5976 0.0490
43.8600 14.6042 0.0636
43.8800 14.6108 0.0551
43.9000 14.6174 0.0551
43.9200 14.6241 0.0636
43.9400 14.6308 0.0591
43.9600 14.6375 0.0521
43.9800 14.6442 0.0627
44.0000 14.6509 0.0572
44.0200 14.6575 0.0584
44.0400 14.6642 0.0575
44.0600 14.6708 0.0567
44.0800 14.6774 0.0563
44.1000 14.6841 0.0628
44.1200 14.6908 0.0600
44.1400 14.6975 0.0561
44.1600 14.7042 0.0599
44.1800 14.7109 0.0602
44.2000 14.7175 0.0549
44.2200 14.7242 0.0586
44.2400 14.7308 0.0594
44.2600 14.7374 0.0577
44.2800 14.7440 0.0587
44.3000 14.7507 0.0580
44.3200 14.7574 0.0591
44.3400 14.7641 0.0572
44.3600 14.7708 0.0620
44.3800 14.7775 0.0557
44.4000 14.7841 0.0585
44.4200 14.7908 0.0582
44.4400 14.7974 0.0577
44.4600 14.8041 0.0626
44.4800 14.8108 0.0591
44.5000 14.8175 0.0554
44.5200 14.8242 0.0622
44.5400 14.8309 0.0610
44.5600 14.8376 0.0569
44.5800 14.8442 0.0596
44.6000 14.8509 0.0593
44.6200 14.8575 0.0549
44.6400 14.8641 0.0613
44.6600 14.8708 0.0596
44.6800 14.8775 0.0534
44.7000 14.8842 0.0623
44.7200 14.8909 0.0613
44.7400 14.8976 0.0563
44.7600 14.9042 0.0592
44.7800 14.9109 0.0653
44.8000 14.9174 0.0518
44.8200 14.9241 0.0606
44.8400 14.9307 0.0638
44.8600 14.9374 0.0537
44.8800 14.9441 0.0600
44.9000 14.9508 0.0640
44.9200 14.9575 0.0558
44.9400 14.9642 0.0594
44.9600 14.9708 0.0592
44.9800 14.9774 0.0572
45.0000 14.9841 0.0591
45.0200 14.9908 0.0662
45.0400 14.9975 0.0575
45.0600 15.0042 0.0554
45.0800 15.0108 0.0638
45.1000 15.0175 0.0605
45.1200 15.0242 0.0571
45.1400 15.0308 0.0593
45.1600 15.0375 0.0625
45.1800 15.0441 0.0594
45.2000 15.0508 0.0612
45.2200 15.0575 0.0582
45.2400 15.0642 0.0618
45.2600 15.0709 0.0625
45.2800 15.0776 0.0564
45.3000 15.0843 0.0579
45.3200 15.0909 0.0642
45.3400 15.0975 0.0541
45.3600 15.1041 0.0586
45.3800 15.1108 0.0708
45.4000 15.1175 0.0601
45.4200 15.1242 0.0539
45.4400 15.1309 0.0609
45.4600 15.1376 0.0581
45.4800 15.1442 0.0596
45.5000 15.1508 0.0637
45.5200 15.1574 0.0630
45.5400 15.1641 0.0592
45.5600 15.1708 0.0634
45.5800 15.1775 0.0604
45.6000 15.1842 0.0580
45.6200 15.1909 0.0710
45.6400 15.1975 0.0545
45.6600 15.2042 0.0580
45.6800 15.2108 0.0678
45.7000 15.2174 0.0619
45.7200 15.2241 0.0554
45.7400 15.2307 0.0691
45.7600 15.2374 0.0614
45.7800 15.2441 0.0569
45.8000 15.2508 0.0668
45.8200 15.2575 0.0648
45.8400 15.2642 0.0554
45.8600 15.2708 0.0651
45.8800 15.2774 0.0676
45.9000 15.2841 0.0551
45.9200 15.2908 0.0678
45.9400 15.2975 0.0707
45.9600 15.3042 0.0523
45.9800 15.3109 0.0653
46.0000 15.3176 0.0698
46.0200 15.3242 0.0528
46.0400 15.3309 0.0645
46.0600 15.3375 0.0712
46.0800 15.3441 0.0577
46.1000 15.3508 0.0627
46.1200 15.3575 0.0673
46.1400 15.3642 0.0525
46.1600 15.3709 0.0670
46.1800 15.3776 0.0614
46.2000 15.3842 0.0578
46.2200 15.3909 0.0664
46.2400 15.3975 0.0634
46.2600 15.4041 0.0581
46.2800 15.4108 0.0677
46.3000 15.4175 0.0660
46.3200 15.4242 0.0585
46.3400 15.4308 0.0674
46.3600 15.4375 0.0544
46.3800 15.4442 0.0670
46.4000 15.4508 0.0650
46.4200 15.4574 0.0522
46.4400 15.4640 0.0650
46.4600 15.4707 0.0669
46.4800 15.4774 0.0577
46.5000 15.4841 0.0726
46.5200 15.4908 0.0589
46.5400 15.4975 0.0574
46.5600 15.5042 0.0769
46.5800 15.5108 0.0615
46.6000 15.5174 0.0518
46.6200 15.5241 0.0748
46.6400 15.5307 0.0592
46.6600 15.5375 0.0559
46.6800 15.5442 0.0705
46.7000 15.5508 0.0609
46.7200 15.5575 0.0638
46.7400 15.5642 0.0614
46.7600 15.5709 0.0577
46.7800 15.5775 0.0705
46.8000 15.5841 0.0636
46.8200 15.5908 0.0548
46.8400 15.5975 0.0749
46.8600 15.6042 0.0628
46.8800 15.6109 0.0533
46.9000 15.6176 0.0613
46.9200 15.6242 0.0714
46.9400 15.6309 0.0649
46.9600 15.6374 0.0637
46.9800 15.6441 0.0579
47.0000 15.6507 0.0655
47.0200 15.6575 0.0701
47.0400 15.6642 0.0598
47.0600 15.6708 0.0614
47.0800 15.6775 0.0660
47.1000 15.6842 0.0592
47.1200 15.6909 0.0621
47.1400 15.6975 0.0666
47.1600 15.7041 0.0604
47.1800 15.7108 0.0662
47.2000 15.7175 0.0714
47.2200 15.7242 0.0513
47.2400 15.7308 0.0620
47.2600 15.7375 0.0749
47.2800 15.7442 0.0544
47.3000 15.7508 0.0635
47.3200 15.7575 0.0685
47.3400 15.7641 0.0558
47.3600 15.7708 0.0636
47.3800 15.7775 0.0681
47.4000 15.7842 0.0568
47.4200 15.7909 0.0703
47.4400 15.7975 0.0636
47.4600 15.8042 0.0523
47.4800 15.8108 0.0683
47.5000 15.8175 0.0700
47.5200 15.8241 0.0512
47.5400 15.8308 0.0650
47.5600 15.8375 0.0638
47.5800 15.8442 0.0554
47.6000 15.8509 0.0695
47.6200 15.8576 0.0613
47.6400 15.8642 0.0576
47.6600 15.8709 0.0673
47.6800 15.8775 0.0613
47.7000 15.8841 0.0610
47.7200 15.8908 0.0696
47.7400 15.8975 0.0613
47.7600 15.9042 0.0609
47.7800 15.9108 0.0597
47.8000 15.9175 0.0651
47.8200 15.9242 0.0595
47.8400 15.9309 0.0577
47.8600 15.9375 0.0615
47.8800 15.9441 0.0640
47.9000 15.9507 0.0643
47.9200 15.9574 0.0639
47.9400 15.9641 0.0586
47.9600 15.9708 0.0651
47.9800 15.9775 0.0657
48.0000 15.9842 0.0597
48.0200 15.9909 0.0642
48.0400 15.9975 0.0698
48.0600 16.0041 0.0610
48.0800 16.0108 0.0641
48.1000 16.0175 0.0652
48.1200 16.0242 0.0623
48.1400 16.0309 0.0675
48.1600 16.0375 0.0607
48.1800 16.0442 0.0619
48.2000 16.0509 0.0637
48.2200 16.0575 0.0640
48.2400 16.0641 0.0632
48.2600 16.0708 0.0664
48.2800 16.0775 0.0619
48.3000 16.0842 0.0614
48.3200 16.0909 0.0712
48.3400 16.0975 0.0578
48.3600 16.1042 0.0583
48.3800 16.1109 0.0694
48.4000 16.1175 0.0630
48.4200 16.1241 0.0659
48.4400 16.1307 0.0631
48.4600 16.1374 0.0630
48.4800 16.1441 0.0693
48.5000 16.1508 0.0653
48.5200 16.1575 0.0583
48.5400 16.1642 0.0678
48.5600 16.1709 0.0648
48.5800 16.1775 0.0555
48.6000 16.1841 0.0710
48.6200 16.1907 0.0618
48.6400 16.1974 0.0602
48.6600 16.2041 0.0696
48.6800 16.2108 0.0610
48.7000 16.2175 0.0620
48.7200 16.2242 0.0682
48.7400 16.2308 0.0564
48.7600 16.2375 0.0649
48.7800 16.2441 0.0692
48.8000 16.2507 0.0567
48.8200 16.2575 0.0634
48.8400 16.2642 0.0687
48.8600 16.2709 0.0578
48.8800 16.2775 0.0606
48.9000 16.2842 0.0684
48.9200 16.2909 0.0593
48.9400 16.2975 0.0616
48.9600 16.3041 0.0607
48.9800 16.3107 0.0615
49.0000 16.3175 0.0645
49.0200 16.3242 0.0609
49.0400 16.3309 0.0596
49.0600 16.3376 0.0621
49.0800 16.3442 0.0649
49.1000 16.3509 0.0627
49.1200 16.3575 0.0590
49.1400 16.3641 0.0651
49.1600 16.3707 0.0605
49.1800 16.3774 0.0649
49.2000 16.3841 0.0630
49.2200 16.3908 0.0604
49.2400 16.3975 0.0618
49.2600 16.4041 0.0662
49.2800 16.4108 0.0602
49.3000 16.4175 0.0596
49.3200 16.4241 0.0702
49.3400 16.4307 0.0608
49.3600 16.4374 0.0615
49.3800 16.4441 0.0679
49.4000 16.4508 0.0616
49.4200 16.4575 0.0640
49.4400 16.4642 0.0651
49.4600 16.4709 0.0584
49.4800 16.4775 0.0648
49.5000 16.4841 0.0629
49.5200 16.4907 0.0650
49.5400 16.4975 0.0648
49.5600 16.5042 0.0630
49.5800 16.5109 0.0616
49.6000 16.5175 0.0631
49.6200 16.5242 0.0663
49.6400 16.5309 0.0606
49.6600 16.5375 0.0656
49.6800 16.5441 0.0602
49.7000 16.5508 0.0652
49.7200 16.5575 0.0689
49.7400 16.5642 0.0606
49.7600 16.5709 0.0582
49.7800 16.5775 0.0646
49.8000 16.5842 0.0704
49.8200 16.5909 0.0606
49.8400 16.5975 0.0604
49.8600 16.6042 0.0717
49.8800 16.6108 0.0626
49.9000 16.6175 0.0610
49.9200 16.6241 0.0720
49.9400 16.6308 0.0657
49.9600 16.6375 0.0493
49.9800 16.6442 0.0774
50.0000 16.6509 0.0587
50.0200 16.6575 0.0538
50.0400 16.6641 0.0867
50.0600 16.6707 0.0613
50.0800 16.6774 0.0494
50.1000 16.6841 0.0813
50.1200 16.6908 0.0577
50.1400 16.6975 0.0505
50.1600 16.7042 0.0892
50.1800 16.7108 0.0547
50.2000 16.7175 0.0480
50.2200 16.7241 0.0871
50.2400 16.7307 0.0562
50.2600 16.7374 0.0485
50.2800 16.7441 0.0864
50.3000 16.7508 0.0561
50.3200 16.7575 0.0484
50.3400 16.7642 0.0840
50.3600 16.7709 0.0590
50.3800 16.7775 0.0530
50.4000 16.7841 0.0879
50.4200 16.7908 0.0521
50.4400 16.7974 0.0550
50.4600 16.8041 0.0794
50.4800 16.8108 0.0571
50.5000 16.8175 0.0625
50.5200 16.8242 0.0745
50.5400 16.8309 0.0563
50.5600 16.8375 0.0578
50.5800 16.8441 0.0744
50.6000 16.8507 0.0601
50.6200 16.8574 0.0619
50.6400 16.8642 0.0681
50.6600 16.8709 0.0610
50.6800 16.8775 0.0603
50.7000 16.8842 0.0702
50.7200 16.8909 0.0649
50.7400 16.8975 0.0597
50.7600 16.9041 0.0676
50.7800 16.9107 0.0663
50.8000 16.9174 0.0573
50.8200 16.9241 0.0705
50.8400 16.9308 0.0626
50.8600 16.9375 0.0579
50.8800 16.9441 0.0676
50.9000 16.9508 0.0641
50.9200 16.9575 0.0587
50.9400 16.9641 0.0730
50.9600 16.9707 0.0655
50.9800 16.9774 0.0567
51.0000 16.9841 0.0731
51.0200 16.9908 0.0598
51.0400 16.9975 0.0585
51.0600 17.0042 0.0756
51.0800 17.0109 0.0587
51.1000 17.0175 0.0545
51.1200 17.0241 0.0765
51.1400 17.0308 0.0635
51.1600 17.0375 0.0584
51.1800 17.0442 0.0718
51.2000 17.0508 0.0639
51.2200 17.0575 0.0579
51.2400 17.0642 0.0735
51.2600 17.0709 0.0625
51.2800 17.0775 0.0578
51.3000 17.0841 0.0735
51.3200 17.0907 0.0645
51.3400 17.0974 0.0567
51.3600 17.1041 0.0723
51.3800 17.1108 0.0627
51.4000 17.1175 0.0590
51.4200 17.1242 0.0740
51.4400 17.1309 0.0629
51.4600 17.1375 0.0599
51.4800 17.1441 0.0701
51.5000 17.1507 0.0649
51.5200 17.1574 0.0593
51.5400 17.1641 0.0711
51.5600 17.1708 0.0644
51.5800 17.1775 0.0575
51.6000 17.1842 0.0689
51.6200 17.1909 0.0664
51.6400 17.1975 0.0591
51.6600 17.2041 0.0671
51.6800 17.2107 0.0668
51.7000 17.2174 0.0601
51.7200 17.2241 0.0665
51.7400 17.2308 0.0657
51.7600 17.2375 0.0604
51.7800 17.2442 0.0666
51.8000 17.2509 0.0674
51.8200 17.2576 0.0603
51.8400 17.2642 0.0652
51.8600 17.2708 0.0707
51.8800 17.2774 0.0631
51.9000 17.2842 0.0612
51.9200 17.2909 0.0731
51.9400 17.2975 0.0624
51.9600 17.3042 0.0643
51.9800 17.3109 0.0674
52.0000 17.3176 0.0615
52.0200 17.3241 0.0657
52.0400 17.3307 0.0714
52.0600 17.3374 0.0583
52.0800 17.3441 0.0636
52.1000 17.3508 0.0686
52.1200 17.3575 0.0586
52.1400 17.3642 0.0649
52.1600 17.3709 0.0683
52.1800 17.3775 0.0595
52.2000 17.3841 0.0657
52.2200 17.3907 0.0712
52.2400 17.3974 0.0615
52.2600 17.4041 0.0673
52.2800 17.4108 0.0692
52.3000 17.4174 0.0576
52.3200 17.4241 0.0694
52.3400 17.4308 0.0705
52.3600 17.4375 0.0513
52.3800 17.4441 0.0667
52.4000 17.4507 0.0744
52.4200 17.4574 0.0585
52.4400 17.4641 0.0601
52.4600 17.4709 0.0742
52.4800 17.4775 0.0643
52.5000 17.4842 0.0632
52.5200 17.4909 0.0698
52.5400 17.4976 0.0621
52.5600 17.5042 0.0668
52.5800 17.5108 0.0697
52.6000 17.5174 0.0598
52.6200 17.5241 0.0685
52.6400 17.5309 0.0706
52.6600 17.5376 0.0616
52.6800 17.5442 0.0647
52.7000 17.5509 0.0691
52.7200 17.5575 0.0613
52.7400 17.5641 0.0618
52.7600 17.5707 0.0735
52.7800 17.5774 0.0609
52.8000 17.5841 0.0661
52.8200 17.5908 0.0734
52.8400 17.5975 0.0630
52.8600 17.6042 0.0627
52.8800 17.6109 0.0770
52.9000 17.6175 0.0603
52.9200 17.6241 0.0584
52.9400 17.6308 0.0803
52.9600 17.6374 0.0651
52.9800 17.6441 0.0568
53.0000 17.6508 0.0802
53.0200 17.6575 0.0636
53.0400 17.6642 0.0609
53.0600 17.6708 0.0794
53.0800 17.6775 0.0570
53.1000 17.6841 0.0634
53.1200 17.6908 0.0816
53.1400 17.6974 0.0638
53.1600 17.7041 0.0614
53.1800 17.7108 0.0770
53.2000 17.7175 0.0635
53.2200 17.7242 0.0626
53.2400 17.7309 0.0778
53.2600 17.7376 0.0655
53.2800 17.7442 0.0659
53.3000 17.7508 0.0786
53.3200 17.7574 0.0685
53.3400 17.7642 0.0700
53.3600 17.7709 0.0680
53.3800 17.7775 0.0658
53.4000 17.7842 0.0692
53.4200 17.7909 0.0697
53.4400 17.7975 0.0676
53.4600 17.8042 0.0706
53.4800 17.8108 0.0663
53.5000 17.8174 0.0689
53.5200 17.8241 0.0690
53.5400 17.8308 0.0698
53.5600 17.8375 0.0731
53.5800 17.8442 0.0649
53.6000 17.8508 0.0732
53.6200 17.8575 0.0754
53.6400 17.8641 0.0634
53.6600 17.8707 0.0695
53.6800 17.8774 0.0776
53.7000 17.8841 0.0623
53.7200 17.8908 0.0767
53.7400 17.8975 0.0717
53.7600 17.9042 0.0628
53.7800 17.9109 0.0734
53.8000 17.9175 0.0756
53.8200 17.9242 0.0598
53.8400 17.9308 0.0739
53.8600 17.9374 0.0768
53.8800 17.9441 0.0635
53.9000 17.9508 0.0771
53.9200 17.9575 0.0711
53.9400 17.9642 0.0641
53.9600 17.9709 0.0785
53.9800 17.9776 0.0701
54.0000 17.9842 0.0660
54.0200 17.9908 0.0793
54.0400 17.9974 0.0693
54.0600 18.0041 0.0689
54.0800 18.0108 0.0796
54.1000 18.0175 0.0725
54.1200 18.0242 0.0660
54.1400 18.0309 0.0788
54.1600 18.0376 0.0723
54.1800 18.0442 0.0675
54.2000 18.0508 0.0724
54.2200 18.0574 0.0776
54.2400 18.0641 0.0696
54.2600 18.0708 0.0666
54.2800 18.0775 0.0749
54.3000 18.0842 0.0728
54.3200 18.0909 0.0760
54.3400 18.0975 0.0745
54.3600 18.1041 0.0683
54.3800 18.1107 0.0752
54.4000 18.1174 0.0794
54.4200 18.1241 0.0661
54.4400 18.1308 0.0751
54.4600 18.1375 0.0764
54.4800 18.1442 0.0686
54.5000 18.1508 0.0704
54.5200 18.1575 0.0839
54.5400 18.1642 0.0647
54.5600 18.1708 0.0728
54.5800 18.1774 0.0833
54.6000 18.1841 0.0667
54.6200 18.1908 0.0672
54.6400 18.1975 0.0800
54.6600 18.2042 0.0631
54.6800 18.2109 0.0701
54.7000 18.2176 0.0770
54.7200 18.2242 0.0634
54.7400 18.2308 0.0754
54.7600 18.2374 0.0790
54.7800 18.2441 0.0658
54.8000 18.2508 0.0733
54.8200 18.2575 0.0801
54.8400 18.2642 0.0644
54.8600 18.2709 0.0678
54.8800 18.2775 0.0792
54.9000 18.2842 0.0691
54.9200 18.2908 0.0691
54.9400 18.2974 0.0805
54.9600 18.3041 0.0690
54.9800 18.3108 0.0685
55.0000 18.3175 0.0726
55.0200 18.3242 0.0747
55.0400 18.3308 0.0664
55.0600 18.3375 0.0734
55.0800 18.3441 0.0776
55.1000 18.3507 0.0637
55.1200 18.3574 0.0735
55.1400 18.3640 0.0764
55.1600 18.3708 0.0674
55.1800 18.3774 0.0748
55.2000 18.3841 0.0740
55.2200 18.3908 0.0676
55.2400 18.3975 0.0713
55.2600 18.4042 0.0726
55.2800 18.4108 0.0689
55.3000 18.4174 0.0702
55.3200 18.4241 0.0761
55.3400 18.4308 0.0666
55.3600 18.4375 0.0734
55.3800 18.4442 0.0683
55.4000 18.4509 0.0702
55.4200 18.4576 0.0734
55.4400 18.4642 0.0701
55.4600 18.4708 0.0676
55.4800 18.4775 0.0778
55.5000 18.4841 0.0719
55.5200 18.4908 0.0669
55.5400 18.4975 0.0730
55.5600 18.5042 0.0692
55.5800 18.5109 0.0665
55.6000 18.5176 0.0790
55.6200 18.5242 0.0703
55.6400 18.5308 0.0681
55.6600 18.5374 0.0790
55.6800 18.5441 0.0667
55.7000 18.5508 0.0692
55.7200 18.5575 0.0778
55.7400 18.5642 0.0705
55.7600 18.5709 0.0650
55.7800 18.5775 0.0767
55.8000 18.5842 0.0756
55.8200 18.5908 0.0661
55.8400 18.5974 0.0767
55.8600 18.6041 0.0706
55.8800 18.6108 0.0712
55.9000 18.6175 0.0754
55.9200 18.6242 0.0701
55.9400 18.6309 0.0757
55.9600 18.6375 0.0657
55.9800 18.6442 0.0701
56.0000 18.6508 0.0774
56.0200 18.6574 0.0774
56.0400 18.6641 0.0754
56.0600 18.6708 0.0676
56.0800 18.6775 0.0781
56.1000 18.6842 0.0724
56.1200 18.6909 0.0737
56.1400 18.6976 0.0708
56.1600 18.7042 0.0726
56.1800 18.7108 0.0725
56.2000 18.7174 0.0703
56.2200 18.7241 0.0752
56.2400 18.7308 0.0715
56.2600 18.7375 0.0661
56.2800 18.7442 0.0730
56.3000 18.7509 0.0703
56.3200 18.7576 0.0698
56.3400 18.7642 0.0728
56.3600 18.7708 0.0691
56.3800 18.7774 0.0727
56.4000 18.7841 0.0769
56.4200 18.7908 0.0633
56.4400 18.7975 0.0752
56.4600 18.8042 0.0791
56.4800 18.8108 0.0642
56.5000 18.8175 0.0737
56.5200 18.8242 0.0742
56.5400 18.8308 0.0648
56.5600 18.8374 0.0712
56.5800 18.8440 0.0762
56.6000 18.8507 0.0738
56.6200 18.8575 0.0726
56.6400 18.8642 0.0697
56.6600 18.8709 0.0734
56.6800 18.8776 0.0726
56.7000 18.8842 0.0728
56.7200 18.8908 0.0751
56.7400 18.8974 0.0755
56.7600 18.9041 0.0723
56.7800 18.9108 0.0784
56.8000 18.9175 0.0669
56.8200 18.9242 0.0766
56.8400 18.9309 0.0804
56.8600 18.9376 0.0615
56.8800 18.9442 0.0785
56.9000 18.9508 0.0864
56.9200 18.9574 0.0668
56.9400 18.9641 0.0781
56.9600 18.9708 0.0865
56.9800 18.9775 0.0637
57.0000 18.9842 0.0789
57.0200 18.9909 0.0808
57.0400 18.9975 0.0668
57.0600 19.0042 0.0777
57.0800 19.0108 0.0826
57.1000 19.0174 0.0630
57.1200 19.0240 0.0835
57.1400 19.0307 0.0805
57.1600 19.0375 0.0622
57.1800 19.0442 0.0835
57.2000 19.0509 0.0818
57.2200 19.0576 0.0619
57.2400 19.0642 0.0845
57.2600 19.0708 0.0792
57.2800 19.0774 0.0696
57.3000 19.0841 0.0842
57.3200 19.0908 0.0737
57.3400 19.0975 0.0686
57.3600 19.1042 0.0816
57.3800 19.1108 0.0739
57.4000 19.1175 0.0710
57.4200 19.1242 0.0829
57.4400 19.1308 0.0680
57.4600 19.1374 0.0741
57.4800 19.1441 0.0825
57.5000 19.1508 0.0740
57.5200 19.1575 0.0709
57.5400 19.1642 0.0787
57.5600 19.1709 0.0725
57.5800 19.1776 0.0694
57.6000 19.1842 0.0766
57.6200 19.1908 0.0792
57.6400 19.1974 0.0733
57.6600 19.2041 0.0780
57.6800 19.2108 0.0754
57.7000 19.2175 0.0741
57.7200 19.2242 0.0741
57.7400 19.2309 0.0786
57.7600 19.2376 0.0716
57.7800 19.2442 0.0735
57.8000 19.2508 0.0781
57.8200 19.2574 0.0717
57.8400 19.2641 0.0755
57.8600 19.2708 0.0814
57.8800 19.2775 0.0736
57.9000 19.2842 0.0703
57.9200 19.2909 0.0840
57.9400 19.2975 0.0728
57.9600 19.3042 0.0778
57.9800 19.3108 0.0786
58.0000 19.3174 0.0703
58.0200 19.3241 0.0801
58.0400 19.3308 0.0828
58.0600 19.3375 0.0683
58.0800 19.3441 0.0796
58.1000 19.3508 0.0808
58.1200 19.3575 0.0703
58.1400 19.3642 0.0752
58.1600 19.3708 0.0805
58.1800 19.3774 0.0760
58.2000 19.3841 0.0803
58.2200 19.3908 0.0768
58.2400 19.3975 0.0694
58.2600 19.4042 0.0837
58.2800 19.4108 0.0783
58.3000 19.4176 0.0731
58.3200 19.4242 0.0845
58.3400 19.4308 0.0786
58.3600 19.4374 0.0719
58.3800 19.4441 0.0857
58.4000 19.4508 0.0787
58.4200 19.4575 0.0765
58.4400 19.4642 0.0788
58.4600 19.4709 0.0744
58.4800 19.4776 0.0782
58.5000 19.4842 0.0807
58.5200 19.4908 0.0724
58.5400 19.4974 0.0830
58.5600 19.5041 0.0835
58.5800 19.5108 0.0729
58.6000 19.5175 0.0737
58.6200 19.5242 0.0829
58.6400 19.5309 0.0770
58.6600 19.5375 0.0744
58.6800 19.5442 0.0746
58.7000 19.5508 0.0798
58.7200 19.5574 0.0805
58.7400 19.5640 0.0710
58.7600 19.5707 0.0809
58.7800 19.5774 0.0755
58.8000 19.5841 0.0804
58.8200 19.5908 0.0731
58.8400 19.5975 0.0761
58.8600 19.6042 0.0814
58.8800 19.6108 0.0817
58.9000 19.6174 0.0694
58.9200 19.6241 0.0833
58.9400 19.6308 0.0870
58.9600 19.6375 0.0680
58.9800 19.6442 0.0819
59.0000 19.6509 0.0793
59.0200 19.6575 0.0678
59.0400 19.6642 0.0806
59.0600 19.6709 0.0816
59.0800 19.6775 0.0716
59.1000 19.6841 0.0786
59.1200 19.6908 0.0811
59.1400 19.6975 0.0733
59.1600 19.7042 0.0752
59.1800 19.7109 0.0815
59.2000 19.7175 0.0722
59.2200 19.7242 0.0820
59.2400 19.7308 0.0768
59.2600 19.7374 0.0734
59.2800 19.7441 0.0840
59.3000 19.7507 0.0843
59.3200 19.7575 0.0678
59.3400 19.7642 0.0839
59.3600 19.7708 0.0839
59.3800 19.7775 0.0714
59.4000 19.7842 0.0803
59.4200 19.7908 0.0817
59.4400 19.7974 0.0748
59.4600 19.8041 0.0811
59.4800 19.8108 0.0835
59.5000 19.8175 0.0677
59.5200 19.8242 0.0838
59.5400 19.8309 0.0874
59.5600 19.8375 0.0708
59.5800 19.8442 0.0824
59.6000 19.8508 0.0880
59.6200 19.8575 0.0747
59.6400 19.8641 0.0801
59.6600 19.8708 0.0803
59.6800 19.8775 0.0763
59.7000 19.8842 0.0757
59.7200 19.8908 0.0841
59.7400 19.8975 0.0724
59.7480 19.9002 0.0653
