Raw Data
Time Displacement Force
(s) (mm) (N)
0.0000 0.0625 0.0021
0.0200 0.0625 -0.0011
0.0400 0.0634 0.0318
0.0600 0.0668 0.0423
0.0800 0.0722 0.0008
0.1000 0.0779 -0.0021
0.1200 0.0839 0.0268
0.1400 0.0906 0.0090
0.1600 0.0979 0.0059
0.1800 0.1054 0.0115
0.2000 0.1127 -0.0029
0.2200 0.1196 0.0065
0.2400 0.1263 0.0184
0.2600 0.1329 0.0058
0.2800 0.1396 0.0098
0.3000 0.1462 0.0207
0.3200 0.1528 0.0097
0.3400 0.1595 0.0162
0.3600 0.1663 0.0240
0.3800 0.1730 0.0022
0.4000 0.1797 0.0245
0.4200 0.1864 0.0244
0.4400 0.1930 0.0116
0.4600 0.1997 0.0205
0.4800 0.2063 0.0261
0.5000 0.2129 0.0168
0.5200 0.2196 0.0234
0.5400 0.2262 0.0308
0.5600 0.2329 0.0148
0.5800 0.2396 0.0299
0.6000 0.2463 0.0324
0.6200 0.2530 0.0171
0.6400 0.2597 0.0366
0.6600 0.2663 0.0292
0.6800 0.2729 0.0261
0.7000 0.2795 0.0375
0.7200 0.2862 0.0302
0.7400 0.2929 0.0283
0.7600 0.2996 0.0386
0.7800 0.3063 0.0343
0.8000 0.3130 0.0269
0.8200 0.3196 0.0397
0.8400 0.3262 0.0322
0.8600 0.3329 0.0330
0.8800 0.3395 0.0403
0.9000 0.3462 0.0336
0.9200 0.3530 0.0309
0.9400 0.3597 0.0416
0.9600 0.3664 0.0333
0.9800 0.3730 0.0304
1.0000 0.3797 0.0373
1.0200 0.3863 0.0365
1.0400 0.3930 0.0310
1.0600 0.3996 0.0390
1.0800 0.4063 0.0391
1.1000 0.4130 0.0355
1.1200 0.4197 0.0358
1.1400 0.4264 0.0321
1.1600 0.4331 0.0367
1.1800 0.4397 0.0321
1.2000 0.4463 0.0355
1.2200 0.4529 0.0362
1.2400 0.4595 0.0405
1.2600 0.4662 0.0310
1.2800 0.4729 0.0348
1.3000 0.4796 0.0395
1.3200 0.4863 0.0356
1.3400 0.4930 0.0319
1.3600 0.4996 0.0394
1.3800 0.5063 0.0351
1.4000 0.5129 0.0336
1.4200 0.5195 0.0380
1.4400 0.5262 0.0355
1.4600 0.5330 0.0297
1.4800 0.5396 0.0355
1.5000 0.5463 0.0367
1.5200 0.5530 0.0321
1.5400 0.5597 0.0371
1.5600 0.5663 0.0310
1.5800 0.5729 0.0327
1.6000 0.5796 0.0394
1.6200 0.5863 0.0324
1.6400 0.5930 0.0299
1.6600 0.5997 0.0404
1.6800 0.6063 0.0347
1.7000 0.6130 0.0288
1.7200 0.6197 0.0383
1.7400 0.6263 0.0381
1.7600 0.6329 0.0287
1.7800 0.6395 0.0378
1.8000 0.6462 0.0354
1.8200 0.6530 0.0338
1.8400 0.6597 0.0348
1.8600 0.6663 0.0316
1.8800 0.6730 0.0356
1.9000 0.6797 0.0319
1.9200 0.6863 0.0292
1.9400 0.6929 0.0346
1.9600 0.6995 0.0406
1.9800 0.7063 0.0322
2.0000 0.7130 0.0233
2.0200 0.7197 0.0331
2.0400 0.7263 0.0400
2.0600 0.7330 0.0327
2.0800 0.7397 0.0293
2.1000 0.7463 0.0328
2.1200 0.7529 0.0304
2.1400 0.7595 0.0317
2.1600 0.7662 0.0393
2.1800 0.7729 0.0226
2.2000 0.7796 0.0339
2.2200 0.7863 0.0333
2.2400 0.7930 0.0348
2.2600 0.7997 0.0346
2.2800 0.8063 0.0277
2.3000 0.8129 0.0336
2.3200 0.8196 0.0353
2.3400 0.8263 0.0329
2.3600 0.8330 0.0359
2.3800 0.8397 0.0395
2.4000 0.8464 0.0281
2.4200 0.8530 0.0314
2.4400 0.8597 0.0397
2.4600 0.8663 0.0327
2.4800 0.8729 0.0313
2.5000 0.8796 0.0367
2.5200 0.8863 0.0380
2.5400 0.8930 0.0315
2.5600 0.8997 0.0292
2.5800 0.9064 0.0393
2.6000 0.9130 0.0296
2.6200 0.9197 0.0318
2.6400 0.9263 0.0382
2.6600 0.9329 0.0311
2.6800 0.9396 0.0315
2.7000 0.9462 0.0386
2.7200 0.9529 0.0338
2.7400 0.9596 0.0337
2.7600 0.9663 0.0406
2.7800 0.9730 0.0282
2.8000 0.9797 0.0343
2.8200 0.9863 0.0397
2.8400 0.9929 0.0341
2.8600 0.9995 0.0396
2.8800 1.0062 0.0339
2.9000 1.0129 0.0352
2.9200 1.0196 0.0426
2.9400 1.0263 0.0274
2.9600 1.0330 0.0339
2.9800 1.0397 0.0419
3.0000 1.0463 0.0277
3.0200 1.0529 0.0292
3.0400 1.0596 0.0461
3.0600 1.0662 0.0307
3.0800 1.0730 0.0306
3.1000 1.0797 0.0378
3.1200 1.0864 0.0336
3.1400 1.0931 0.0362
3.1600 1.0997 0.0350
3.1800 1.1064 0.0309
3.2000 1.1130 0.0414
3.2200 1.1196 0.0374
3.2400 1.1263 0.0315
3.2600 1.1330 0.0334
3.2800 1.1397 0.0283
3.3000 1.1463 0.0365
3.3200 1.1530 0.0344
3.3400 1.1597 0.0348
3.3600 1.1663 0.0331
3.3800 1.1729 0.0388
3.4000 1.1796 0.0334
3.4200 1.1863 0.0353
3.4400 1.1930 0.0349
3.4600 1.1997 0.0326
3.4800 1.2063 0.0374
3.5000 1.2130 0.0346
3.5200 1.2197 0.0291
3.5400 1.2263 0.0372
3.5600 1.2329 0.0421
3.5800 1.2396 0.0407
3.6000 1.2462 0.0342
3.6200 1.2529 0.0353
3.6400 1.2596 0.0380
3.6600 1.2663 0.0339
3.6800 1.2730 0.0443
3.7000 1.2797 0.0337
3.7200 1.2863 0.0341
3.7400 1.2930 0.0411
3.7600 1.2996 0.0360
3.7800 1.3062 0.0379
3.8000 1.3129 0.0491
3.8200 1.3196 0.0286
3.8400 1.3263 0.0320
3.8600 1.3330 0.0559
3.8800 1.3397 0.0351
3.9000 1.3463 0.0239
3.9200 1.3529 0.0580
3.9400 1.3596 0.0385
3.9600 1.3662 0.0330
3.9800 1.3730 0.0504
4.0000 1.3797 0.0361
4.0200 1.3864 0.0360
4.0400 1.3930 0.0494
4.0600 1.3997 0.0363
4.0800 1.4064 0.0355
4.1000 1.4130 0.0541
4.1200 1.4196 0.0334
4.1400 1.4262 0.0442
4.1600 1.4329 0.0488
4.1800 1.4396 0.0318
4.2000 1.4463 0.0416
4.2200 1.4530 0.0491
4.2400 1.4597 0.0430
4.2600 1.4663 0.0455
4.2800 1.4729 0.0331
4.3000 1.4795 0.0405
4.3200 1.4862 0.0528
4.3400 1.4929 0.0383
4.3600 1.4996 0.0389
4.3800 1.5063 0.0490
4.4000 1.5130 0.0312
4.4200 1.5197 0.0446
4.4400 1.5263 0.0557
4.4600 1.5330 0.0279
4.4800 1.5396 0.0439
4.5000 1.5462 0.0563
4.5200 1.5530 0.0335
4.5400 1.5597 0.0445
4.5600 1.5664 0.0553
4.5800 1.5730 0.0295
4.6000 1.5797 0.0398
4.6200 1.5864 0.0497
4.6400 1.5930 0.0404
4.6600 1.5996 0.0479
4.6800 1.6063 0.0407
4.7000 1.6130 0.0343
4.7200 1.6197 0.0572
4.7400 1.6263 0.0385
4.7600 1.6330 0.0356
4.7800 1.6397 0.0455
4.8000 1.6464 0.0391
4.8200 1.6530 0.0469
4.8400 1.6596 0.0419
4.8600 1.6662 0.0304
4.8800 1.6729 0.0499
4.9000 1.6796 0.0442
4.9200 1.6863 0.0390
4.9400 1.6930 0.0525
4.9600 1.6997 0.0358
4.9800 1.7063 0.0306
5.0000 1.7130 0.0544
5.0200 1.7196 0.0438
5.0400 1.7262 0.0334
5.0600 1.7329 0.0498
5.0800 1.7396 0.0316
5.1000 1.7463 0.0474
5.1200 1.7530 0.0517
5.1400 1.7596 0.0265
5.1600 1.7663 0.0430
5.1800 1.7730 0.0466
5.2000 1.7796 0.0374
5.2200 1.7862 0.0451
5.2400 1.7929 0.0408
5.2600 1.7997 0.0404
5.2800 1.8064 0.0390
5.3000 1.8130 0.0423
5.3200 1.8197 0.0412
5.3400 1.8264 0.0419
5.3600 1.8330 0.0372
5.3800 1.8396 0.0387
5.4000 1.8462 0.0430
5.4200 1.8529 0.0365
5.4400 1.8597 0.0436
5.4600 1.8663 0.0388
5.4800 1.8730 0.0366
5.5000 1.8797 0.0378
5.5200 1.8863 0.0418
5.5400 1.8930 0.0379
5.5600 1.8996 0.0386
5.5800 1.9062 0.0380
5.6000 1.9129 0.0406
5.6200 1.9196 0.0375
5.6400 1.9263 0.0342
5.6600 1.9330 0.0416
5.6800 1.9396 0.0400
5.7000 1.9463 0.0318
5.7200 1.9529 0.0393
5.7400 1.9595 0.0411
5.7600 1.9662 0.0361
5.7800 1.9729 0.0374
5.8000 1.9796 0.0379
5.8200 1.9863 0.0400
5.8400 1.9930 0.0343
5.8600 1.9997 0.0403
5.8800 2.0064 0.0368
5.9000 2.0130 0.0388
5.9200 2.0196 0.0413
5.9400 2.0262 0.0370
5.9600 2.0329 0.0381
5.9800 2.0396 0.0447
6.0000 2.0463 0.0361
6.0200 2.0530 0.0386
6.0400 2.0597 0.0394
6.0600 2.0664 0.0353
6.0800 2.0730 0.0374
6.1000 2.0796 0.0375
6.1200 2.0862 0.0376
6.1400 2.0929 0.0433
6.1600 2.0996 0.0370
6.1800 2.1063 0.0349
6.2000 2.1130 0.0408
6.2200 2.1197 0.0395
6.2400 2.1264 0.0380
6.2600 2.1330 0.0378
6.2800 2.1396 0.0347
6.3000 2.1463 0.0411
6.3200 2.1529 0.0410
6.3400 2.1596 0.0301
6.3600 2.1663 0.0445
6.3800 2.1730 0.0351
6.4000 2.1797 0.0313
6.4200 2.1864 0.0409
6.4400 2.1930 0.0368
6.4600 2.1996 0.0368
6.4800 2.2062 0.0406
6.5000 2.2129 0.0355
6.5200 2.2196 0.0394
6.5400 2.2263 0.0406
6.5600 2.2330 0.0358
6.5800 2.2397 0.0371
6.6000 2.2463 0.0374
6.6200 2.2530 0.0433
6.6400 2.2596 0.0387
6.6600 2.2662 0.0299
6.6800 2.2729 0.0428
6.7000 2.2796 0.0402
6.7200 2.2863 0.0267
6.7400 2.2930 0.0415
6.7600 2.2997 0.0435
6.7800 2.3064 0.0336
6.8000 2.3130 0.0420
6.8200 2.3196 0.0408
6.8400 2.3262 0.0303
6.8600 2.3329 0.0462
6.8800 2.3396 0.0328
6.9000 2.3463 0.0317
6.9200 2.3530 0.0491
6.9400 2.3597 0.0348
6.9600 2.3664 0.0261
6.9800 2.3730 0.0481
7.0000 2.3796 0.0348
7.0200 2.3862 0.0366
7.0400 2.3929 0.0452
7.0600 2.3996 0.0307
7.0800 2.4063 0.0407
7.1000 2.4130 0.0427
7.1200 2.4197 0.0312
7.1400 2.4263 0.0438
7.1600 2.4330 0.0415
7.1800 2.4396 0.0306
7.2000 2.4462 0.0451
7.2200 2.4529 0.0344
7.2400 2.4596 0.0386
7.2600 2.4663 0.0440
7.2800 2.4729 0.0358
7.3000 2.4796 0.0396
7.3200 2.4863 0.0441
7.3400 2.4930 0.0289
7.3600 2.4996 0.0395
7.3800 2.5063 0.0458
7.4000 2.5129 0.0309
7.4200 2.5196 0.0419
7.4400 2.5263 0.0421
7.4600 2.5330 0.0340
7.4800 2.5397 0.0417
7.5000 2.5464 0.0390
7.5200 2.5530 0.0332
7.5400 2.5596 0.0413
7.5600 2.5663 0.0402
7.5800 2.5729 0.0370
7.6000 2.5797 0.0426
7.6200 2.5864 0.0417
7.6400 2.5930 0.0306
7.6600 2.5997 0.0502
7.6800 2.6063 0.0394
7.7000 2.6130 0.0294
7.7200 2.6196 0.0492
7.7400 2.6262 0.0396
7.7600 2.6329 0.0317
7.7800 2.6396 0.0504
7.8000 2.6463 0.0416
7.8200 2.6530 0.0306
7.8400 2.6597 0.0433
7.8600 2.6663 0.0436
7.8800 2.6730 0.0314
7.9000 2.6796 0.0440
7.9200 2.6862 0.0440
7.9400 2.6929 0.0303
7.9600 2.6996 0.0440
7.9800 2.7063 0.0409
8.0000 2.7130 0.0356
8.0200 2.7197 0.0379
8.0400 2.7264 0.0429
8.0600 2.7330 0.0365
8.0800 2.7396 0.0375
8.1000 2.7462 0.0426
8.1200 2.7529 0.0412
8.1400 2.7596 0.0326
8.1600 2.7663 0.0404
8.1800 2.7730 0.0372
8.2000 2.7797 0.0379
8.2200 2.7864 0.0443
8.2400 2.7930 0.0356
8.2600 2.7996 0.0345
8.2800 2.8063 0.0454
8.3000 2.8129 0.0339
8.3200 2.8196 0.0393
8.3400 2.8263 0.0501
8.3600 2.8330 0.0295
8.3800 2.8397 0.0411
8.4000 2.8464 0.0412
8.4200 2.8531 0.0281
8.4400 2.8597 0.0491
8.4600 2.8662 0.0470
8.4800 2.8729 0.0271
8.5000 2.8796 0.0490
8.5200 2.8863 0.0445
8.5400 2.8930 0.0275
8.5600 2.8997 0.0509
8.5800 2.9064 0.0405
8.6000 2.9130 0.0279
8.6200 2.9196 0.0535
8.6400 2.9262 0.0325
8.6600 2.9328 0.0358
8.6800 2.9395 0.0568
8.7000 2.9463 0.0249
8.7200 2.9529 0.0353
8.7400 2.9596 0.0565
8.7600 2.9663 0.0291
8.7800 2.9730 0.0354
8.8000 2.9796 0.0537
8.8200 2.9862 0.0316
8.8400 2.9929 0.0364
8.8600 2.9996 0.0495
8.8800 3.0063 0.0337
8.9000 3.0130 0.0399
8.9200 3.0197 0.0509
8.9400 3.0264 0.0323
8.9600 3.0331 0.0419
8.9800 3.0397 0.0429
9.0000 3.0462 0.0397
9.0200 3.0529 0.0463
9.0400 3.0596 0.0447
9.0600 3.0663 0.0390
9.0800 3.0730 0.0387
9.1000 3.0797 0.0487
9.1200 3.0864 0.0428
9.1400 3.0930 0.0371
9.1600 3.0996 0.0463
9.1800 3.1062 0.0456
9.2000 3.1129 0.0394
9.2200 3.1196 0.0469
9.2400 3.1263 0.0469
9.2600 3.1330 0.0419
9.2800 3.1397 0.0457
9.3000 3.1464 0.0454
9.3200 3.1530 0.0365
9.3400 3.1596 0.0451
9.3600 3.1662 0.0462
9.3800 3.1729 0.0409
9.4000 3.1796 0.0428
9.4200 3.1863 0.0507
9.4400 3.1930 0.0422
9.4600 3.1997 0.0398
9.4800 3.2063 0.0456
9.5000 3.2130 0.0428
9.5200 3.2196 0.0483
9.5400 3.2262 0.0505
9.5600 3.2329 0.0363
9.5800 3.2396 0.0454
9.6000 3.2463 0.0506
9.6200 3.2530 0.0456
9.6400 3.2597 0.0418
9.6600 3.2664 0.0448
9.6800 3.2731 0.0421
9.7000 3.2796 0.0483
9.7200 3.2862 0.0499
9.7400 3.2929 0.0345
9.7600 3.2996 0.0480
9.7800 3.3064 0.0431
9.8000 3.3130 0.0409
9.8200 3.3197 0.0606
9.8400 3.3264 0.0335
9.8600 3.3330 0.0296
9.8800 3.3396 0.0709
9.9000 3.3463 0.0472
9.9200 3.3529 0.0205
9.9400 3.3596 0.0459
9.9600 3.3663 0.0516
9.9800 3.3730 0.0479
10.0000 3.3796 0.0471
10.0200 3.3863 0.0306
10.0400 3.3930 0.0351
10.0600 3.3996 0.0605
10.0800 3.4062 0.0454
10.1000 3.4128 0.0354
10.1200 3.4196 0.0321
10.1400 3.4263 0.0508
10.1600 3.4330 0.0547
10.1800 3.4397 0.0362
10.2000 3.4463 0.0406
10.2200 3.4530 0.0455
10.2400 3.4597 0.0386
10.2600 3.4663 0.0557
10.2800 3.4729 0.0362
10.3000 3.4796 0.0301
10.3200 3.4863 0.0524
10.3400 3.4930 0.0460
10.3600 3.4997 0.0376
10.3800 3.5064 0.0512
10.4000 3.5130 0.0340
10.4200 3.5197 0.0415
10.4400 3.5263 0.0605
10.4600 3.5329 0.0313
10.4800 3.5396 0.0418
10.5000 3.5463 0.0475
10.5200 3.5530 0.0378
10.5400 3.5597 0.0469
10.5600 3.5664 0.0440
10.5800 3.5731 0.0312
10.6000 3.5797 0.0484
10.6200 3.5863 0.0433
10.6400 3.5929 0.0385
10.6600 3.5996 0.0504
10.6800 3.6063 0.0398
10.7000 3.6130 0.0380
10.7200 3.6197 0.0484
10.7400 3.6263 0.0335
10.7600 3.6330 0.0480
10.7800 3.6396 0.0500
10.8000 3.6462 0.0249
10.8200 3.6529 0.0499
10.8400 3.6596 0.0509
10.8600 3.6663 0.0359
10.8800 3.6730 0.0449
10.9000 3.6796 0.0447
10.9200 3.6863 0.0378
10.9400 3.6930 0.0531
10.9600 3.6996 0.0400
10.9800 3.7062 0.0352
11.0000 3.7129 0.0531
11.0200 3.7196 0.0401
11.0400 3.7263 0.0396
11.0600 3.7330 0.0485
11.0800 3.7397 0.0291
11.1000 3.7464 0.0481
11.1200 3.7531 0.0486
11.1400 3.7597 0.0338
11.1600 3.7663 0.0509
11.1800 3.7729 0.0454
11.2000 3.7796 0.0384
11.2200 3.7863 0.0554
11.2400 3.7930 0.0406
11.2600 3.7997 0.0367
11.2800 3.8064 0.0567
11.3000 3.8130 0.0416
11.3200 3.8197 0.0370
11.3400 3.8263 0.0516
11.3600 3.8329 0.0431
11.3800 3.8396 0.0436
11.4000 3.8463 0.0490
11.4200 3.8529 0.0350
11.4400 3.8596 0.0443
11.4600 3.8663 0.0472
11.4800 3.8730 0.0432
11.5000 3.8796 0.0435
11.5200 3.8862 0.0445
11.5400 3.8928 0.0438
11.5600 3.8995 0.0532
11.5800 3.9062 0.0441
11.6000 3.9129 0.0439
11.6200 3.9196 0.0497
11.6400 3.9263 0.0380
11.6600 3.9330 0.0425
11.6800 3.9396 0.0479
11.7000 3.9462 0.0459
11.7200 3.9529 0.0486
11.7400 3.9596 0.0449
11.7600 3.9663 0.0391
11.7800 3.9730 0.0498
11.8000 3.9797 0.0404
11.8200 3.9864 0.0399
11.8400 3.9930 0.0545
11.8600 3.9997 0.0393
11.8800 4.0063 0.0381
11.9000 4.0129 0.0591
11.9200 4.0196 0.0348
11.9400 4.0263 0.0472
11.9600 4.0330 0.0498
11.9800 4.0397 0.0361
12.0000 4.0464 0.0472
12.0200 4.0531 0.0522
12.0400 4.0597 0.0374
12.0600 4.0663 0.0449
12.0800 4.0729 0.0509
12.1000 4.0795 0.0376
12.1200 4.0863 0.0483
12.1400 4.0930 0.0496
12.1600 4.0997 0.0334
12.1800 4.1064 0.0468
12.2000 4.1130 0.0471
12.2200 4.1197 0.0356
12.2400 4.1263 0.0457
12.2600 4.1329 0.0477
12.2800 4.1395 0.0405
12.3000 4.1463 0.0414
12.3200 4.1530 0.0467
12.3400 4.1597 0.0415
12.3600 4.1663 0.0405
12.3800 4.1730 0.0439
12.4000 4.1797 0.0448
12.4200 4.1863 0.0401
12.4400 4.1929 0.0481
12.4600 4.1996 0.0466
12.4800 4.2063 0.0414
12.5000 4.2130 0.0483
12.5200 4.2197 0.0417
12.5400 4.2264 0.0356
12.5600 4.2331 0.0503
12.5800 4.2397 0.0388
12.6000 4.2463 0.0366
12.6200 4.2529 0.0549
12.6400 4.2596 0.0415
12.6600 4.2663 0.0398
12.6800 4.2730 0.0481
12.7000 4.2797 0.0448
12.7200 4.2864 0.0383
12.7400 4.2930 0.0472
12.7600 4.2997 0.0407
12.7800 4.3063 0.0380
12.8000 4.3129 0.0473
12.8200 4.3196 0.0436
12.8400 4.3263 0.0369
12.8600 4.3330 0.0463
12.8800 4.3397 0.0431
12.9000 4.3463 0.0380
12.9200 4.3530 0.0440
12.9400 4.3597 0.0434
12.9600 4.3663 0.0375
12.9800 4.3729 0.0459
13.0000 4.3795 0.0442
13.0200 4.3862 0.0432
13.0400 4.3929 0.0399
13.0600 4.3996 0.0333
13.0800 4.4063 0.0500
13.1000 4.4130 0.0465
13.1200 4.4197 0.0297
13.1400 4.4263 0.0442
13.1600 4.4329 0.0531
13.1800 4.4396 0.0321
13.2000 4.4463 0.0412
13.2200 4.4530 0.0504
13.2400 4.4597 0.0393
13.2600 4.4664 0.0381
13.2800 4.4731 0.0483
13.3000 4.4797 0.0435
13.3200 4.4863 0.0393
13.3400 4.4929 0.0417
13.3600 4.4996 0.0476
13.3800 4.5063 0.0462
13.4000 4.5130 0.0376
13.4200 4.5197 0.0454
13.4400 4.5263 0.0396
13.4600 4.5330 0.0377
13.4800 4.5397 0.0500
13.5000 4.5462 0.0428
13.5200 4.5529 0.0371
13.5400 4.5595 0.0505
13.5600 4.5662 0.0412
13.5800 4.5730 0.0396
13.6000 4.5796 0.0455
13.6200 4.5863 0.0472
13.6400 4.5930 0.0465
13.6600 4.5997 0.0396
13.6800 4.6063 0.0348
13.7000 4.6129 0.0479
13.7200 4.6195 0.0485
13.7400 4.6262 0.0335
13.7600 4.6330 0.0471
13.7800 4.6397 0.0468
13.8000 4.6463 0.0329
13.8200 4.6530 0.0469
13.8400 4.6597 0.0526
13.8600 4.6663 0.0358
13.8800 4.6729 0.0365
13.9000 4.6796 0.0488
13.9200 4.6863 0.0449
13.9400 4.6930 0.0360
13.9600 4.6997 0.0460
13.9800 4.7063 0.0445
14.0000 4.7130 0.0405
14.0200 4.7197 0.0414
14.0400 4.7263 0.0466
14.0600 4.7329 0.0399
14.0800 4.7396 0.0424
14.1000 4.7463 0.0491
14.1200 4.7530 0.0442
14.1400 4.7597 0.0402
14.1600 4.7664 0.0398
14.1800 4.7731 0.0456
14.2000 4.7797 0.0490
14.2200 4.7863 0.0375
14.2400 4.7929 0.0421
14.2600 4.7996 0.0455
14.2800 4.8063 0.0377
14.3000 4.8130 0.0443
14.3200 4.8196 0.0435
14.3400 4.8263 0.0369
14.3600 4.8330 0.0407
14.3800 4.8396 0.0507
14.4000 4.8463 0.0420
14.4200 4.8529 0.0395
14.4400 4.8595 0.0448
14.4600 4.8662 0.0413
14.4800 4.8730 0.0445
14.5000 4.8796 0.0447
14.5200 4.8863 0.0383
14.5400 4.8930 0.0492
14.5600 4.8997 0.0411
14.5800 4.9063 0.0406
14.6000 4.9129 0.0458
14.6200 4.9196 0.0412
14.6400 4.9263 0.0380
14.6600 4.9330 0.0444
14.6800 4.9397 0.0496
14.7000 4.9464 0.0402
14.7200 4.9531 0.0436
14.7400 4.9597 0.0421
14.7600 4.9663 0.0413
14.7800 4.9729 0.0479
14.8000 4.9795 0.0504
14.8200 4.9862 0.0413
14.8400 4.9930 0.0389
14.8600 4.9997 0.0453
14.8800 5.0064 0.0482
14.9000 5.0130 0.0393
14.9200 5.0197 0.0471
14.9400 5.0263 0.0468
14.9600 5.0329 0.0384
14.9800 5.0396 0.0457
15.0000 5.0463 0.0536
15.0200 5.0530 0.0375
15.0400 5.0597 0.0457
15.0600 5.0663 0.0513
15.0800 5.0730 0.0397
15.1000 5.0797 0.0457
15.1200 5.0863 0.0493
15.1400 5.0929 0.0414
15.1600 5.0995 0.0487
15.1800 5.1062 0.0464
15.2000 5.1129 0.0366
15.2200 5.1196 0.0511
15.2400 5.1263 0.0479
15.2600 5.1330 0.0375
15.2800 5.1397 0.0495
15.3000 5.1463 0.0483
15.3200 5.1529 0.0408
15.3400 5.1595 0.0504
15.3600 5.1662 0.0444
15.3800 5.1730 0.0432
15.4000 5.1797 0.0492
15.4200 5.1864 0.0432
15.4400 5.1930 0.0359
15.4600 5.1997 0.0530
15.4800 5.2064 0.0472
15.5000 5.2130 0.0377
15.5200 5.2196 0.0511
15.5400 5.2263 0.0464
15.5600 5.2330 0.0369
15.5800 5.2397 0.0470
15.6000 5.2464 0.0484
15.6200 5.2531 0.0378
15.6400 5.2597 0.0477
15.6600 5.2663 0.0453
15.6800 5.2729 0.0386
15.7000 5.2795 0.0504
15.7200 5.2862 0.0476
15.7400 5.2929 0.0350
15.7600 5.2996 0.0509
15.7800 5.3063 0.0480
15.8000 5.3130 0.0365
15.8200 5.3197 0.0507
15.8400 5.3263 0.0492
15.8600 5.3329 0.0341
15.8800 5.3395 0.0519
15.9000 5.3462 0.0477
15.9200 5.3530 0.0358
15.9400 5.3597 0.0509
15.9600 5.3663 0.0487
15.9800 5.3730 0.0381
16.0000 5.3797 0.0448
16.0200 5.3863 0.0555
16.0400 5.3930 0.0322
16.0600 5.3996 0.0524
16.0800 5.4063 0.0529
16.1000 5.4130 0.0384
16.1200 5.4197 0.0468
16.1400 5.4264 0.0499
16.1600 5.4330 0.0368
16.1800 5.4397 0.0508
16.2000 5.4464 0.0493
16.2200 5.4529 0.0382
16.2400 5.4596 0.0485
16.2600 5.4662 0.0486
16.2800 5.4730 0.0376
16.3000 5.4797 0.0485
16.3200 5.4863 0.0532
16.3400 5.4930 0.0417
16.3600 5.4997 0.0423
16.3800 5.5063 0.0534
16.4000 5.5129 0.0415
16.4200 5.5195 0.0459
16.4400 5.5262 0.0534
16.4600 5.5330 0.0409
16.4800 5.5397 0.0442
16.5000 5.5463 0.0496
16.5200 5.5530 0.0448
16.5400 5.5597 0.0442
16.5600 5.5663 0.0519
16.5800 5.5729 0.0415
16.6000 5.5796 0.0520
16.6200 5.5862 0.0520
16.6400 5.5929 0.0427
16.6600 5.5996 0.0458
16.6800 5.6063 0.0557
16.7000 5.6130 0.0426
16.7200 5.6197 0.0451
16.7400 5.6263 0.0541
16.7600 5.6329 0.0409
16.7800 5.6396 0.0489
16.8000 5.6462 0.0583
16.8200 5.6530 0.0403
16.8400 5.6597 0.0427
16.8600 5.6664 0.0590
16.8800 5.6731 0.0439
16.9000 5.6797 0.0461
16.9200 5.6863 0.0583
16.9400 5.6929 0.0417
16.9600 5.6996 0.0461
16.9800 5.7063 0.0602
17.0000 5.7130 0.0428
17.0200 5.7197 0.0435
17.0400 5.7264 0.0552
17.0600 5.7330 0.0465
17.0800 5.7397 0.0461
17.1000 5.7464 0.0575
17.1200 5.7530 0.0432
17.1400 5.7596 0.0503
17.1600 5.7662 0.0547
17.1800 5.7729 0.0456
17.2000 5.7796 0.0538
17.2200 5.7863 0.0542
17.2400 5.7930 0.0451
17.2600 5.7997 0.0503
17.2800 5.8063 0.0567
17.3000 5.8129 0.0411
17.3200 5.8195 0.0483
17.3400 5.8262 0.0578
17.3600 5.8329 0.0495
17.3800 5.8396 0.0484
17.4000 5.8463 0.0489
17.4200 5.8530 0.0499
17.4400 5.8597 0.0563
17.4600 5.8663 0.0462
17.4800 5.8730 0.0506
17.5000 5.8796 0.0472
17.5200 5.8863 0.0489
17.5400 5.8930 0.0606
17.5600 5.8997 0.0476
17.5800 5.9063 0.0486
17.6000 5.9130 0.0607
17.6200 5.9197 0.0414
17.6400 5.9264 0.0430
17.6600 5.9330 0.0628
17.6800 5.9396 0.0409
17.7000 5.9463 0.0494
17.7200 5.9530 0.0581
17.7400 5.9597 0.0424
17.7600 5.9664 0.0568
17.7800 5.9730 0.0528
17.8000 5.9797 0.0386
17.8200 5.9863 0.0616
17.8400 5.9929 0.0508
17.8600 5.9995 0.0435
17.8800 6.0062 0.0591
17.9000 6.0129 0.0510
17.9200 6.0196 0.0416
17.9400 6.0263 0.0645
17.9600 6.0330 0.0434
17.9800 6.0397 0.0443
18.0000 6.0463 0.0632
18.0200 6.0530 0.0438
18.0400 6.0596 0.0490
18.0600 6.0662 0.0585
18.0800 6.0729 0.0445
18.1000 6.0796 0.0499
18.1200 6.0863 0.0480
18.1400 6.0930 0.0487
18.1600 6.0997 0.0562
18.1800 6.1063 0.0482
18.2000 6.1130 0.0490
18.2200 6.1196 0.0553
18.2400 6.1262 0.0530
18.2600 6.1329 0.0446
18.2800 6.1397 0.0565
18.3000 6.1464 0.0496
18.3200 6.1530 0.0506
18.3400 6.1597 0.0474
18.3600 6.1663 0.0476
18.3800 6.1729 0.0531
18.4000 6.1796 0.0493
18.4200 6.1862 0.0498
18.4400 6.1930 0.0506
18.4600 6.1997 0.0501
18.4800 6.2064 0.0502
18.5000 6.2130 0.0501
18.5200 6.2197 0.0482
18.5400 6.2264 0.0465
18.5600 6.2330 0.0513
18.5800 6.2396 0.0498
18.6000 6.2463 0.0461
18.6200 6.2529 0.0550
18.6400 6.2596 0.0481
18.6600 6.2663 0.0481
18.6800 6.2730 0.0525
18.7000 6.2797 0.0469
18.7200 6.2864 0.0457
18.7400 6.2930 0.0521
18.7600 6.2996 0.0461
18.7800 6.3062 0.0523
18.8000 6.3129 0.0506
18.8200 6.3196 0.0466
18.8400 6.3263 0.0469
18.8600 6.3330 0.0531
18.8800 6.3397 0.0419
18.9000 6.3463 0.0499
18.9200 6.3529 0.0539
18.9400 6.3596 0.0419
18.9600 6.3662 0.0550
18.9800 6.3730 0.0557
19.0000 6.3797 0.0469
19.0200 6.3864 0.0495
19.0400 6.3930 0.0496
19.0600 6.3997 0.0500
19.0800 6.4064 0.0480
19.1000 6.4130 0.0478
19.1200 6.4196 0.0530
19.1400 6.4263 0.0445
19.1600 6.4330 0.0540
19.1800 6.4396 0.0505
19.2000 6.4463 0.0481
19.2200 6.4530 0.0539
19.2400 6.4597 0.0511
19.2600 6.4664 0.0386
19.2800 6.4730 0.0547
19.3000 6.4796 0.0559
19.3200 6.4862 0.0384
19.3400 6.4929 0.0557
19.3600 6.4996 0.0517
19.3800 6.5063 0.0442
19.4000 6.5130 0.0568
19.4200 6.5197 0.0490
19.4400 6.5264 0.0406
19.4600 6.5330 0.0590
19.4800 6.5395 0.0513
19.5000 6.5462 0.0382
19.5200 6.5529 0.0586
19.5400 6.5596 0.0481
19.5600 6.5663 0.0412
19.5800 6.5730 0.0614
19.6000 6.5796 0.0457
19.6200 6.5863 0.0407
19.6400 6.5930 0.0585
19.6600 6.5996 0.0521
19.6800 6.6062 0.0407
19.7000 6.6129 0.0574
19.7200 6.6196 0.0511
19.7400 6.6263 0.0383
19.7600 6.6330 0.0587
19.7800 6.6397 0.0487
19.8000 6.6464 0.0406
19.8200 6.6530 0.0550
19.8400 6.6596 0.0502
19.8600 6.6663 0.0417
19.8800 6.6729 0.0591
19.9000 6.6797 0.0475
19.9200 6.6864 0.0384
19.9400 6.6930 0.0615
19.9600 6.6997 0.0452
19.9800 6.7064 0.0366
20.0000 6.7130 0.0615
20.0200 6.7196 0.0506
20.0400 6.7262 0.0410
20.0600 6.7329 0.0560
20.0800 6.7396 0.0526
20.1000 6.7463 0.0399
20.1200 6.7530 0.0585
20.1400 6.7596 0.0547
20.1600 6.7663 0.0415
20.1800 6.7730 0.0575
20.2000 6.7796 0.0487
20.2200 6.7862 0.0401
20.2400 6.7929 0.0589
20.2600 6.7996 0.0472
20.2800 6.8063 0.0408
20.3000 6.8130 0.0605
20.3200 6.8197 0.0453
20.3400 6.8264 0.0408
20.3600 6.8330 0.0553
20.3800 6.8396 0.0507
20.4000 6.8462 0.0448
20.4200 6.8529 0.0599
20.4400 6.8596 0.0466
20.4600 6.8664 0.0419
20.4800 6.8730 0.0506
20.5000 6.8797 0.0543
20.5200 6.8864 0.0441
20.5400 6.8930 0.0476
20.5600 6.8996 0.0594
20.5800 6.9062 0.0448
20.6000 6.9129 0.0515
20.6200 6.9196 0.0535
20.6400 6.9263 0.0416
20.6600 6.9330 0.0529
20.6800 6.9397 0.0547
20.7000 6.9464 0.0368
20.7200 6.9530 0.0567
20.7400 6.9597 0.0544
20.7600 6.9663 0.0397
20.7800 6.9729 0.0564
20.8000 6.9796 0.0526
20.8200 6.9863 0.0399
20.8400 6.9930 0.0621
20.8600 6.9997 0.0505
20.8800 7.0064 0.0367
20.9000 7.0130 0.0568
20.9200 7.0196 0.0487
20.9400 7.0262 0.0423
20.9600 7.0329 0.0582
20.9800 7.0396 0.0484
21.0000 7.0463 0.0503
21.0200 7.0530 0.0539
21.0400 7.0596 0.0435
21.0600 7.0663 0.0543
21.0800 7.0729 0.0514
21.1000 7.0796 0.0420
21.1200 7.0862 0.0521
21.1400 7.0929 0.0521
21.1600 7.0996 0.0473
21.1800 7.1063 0.0546
21.2000 7.1130 0.0428
21.2200 7.1197 0.0507
21.2400 7.1264 0.0522
21.2600 7.1330 0.0465
21.2800 7.1396 0.0542
21.3000 7.1463 0.0555
21.3200 7.1529 0.0414
21.3400 7.1596 0.0536
21.3600 7.1663 0.0532
21.3800 7.1730 0.0416
21.4000 7.1797 0.0562
21.4200 7.1864 0.0493
21.4400 7.1930 0.0446
21.4600 7.1996 0.0575
21.4800 7.2062 0.0451
21.5000 7.2129 0.0466
21.5200 7.2196 0.0611
21.5400 7.2263 0.0432
21.5600 7.2330 0.0513
21.5800 7.2397 0.0574
21.6000 7.2463 0.0463
21.6200 7.2530 0.0459
21.6400 7.2596 0.0572
21.6600 7.2662 0.0486
21.6800 7.2729 0.0506
21.7000 7.2796 0.0521
21.7200 7.2863 0.0505
21.7400 7.2930 0.0523
21.7600 7.2996 0.0507
21.7800 7.3063 0.0503
21.8000 7.3130 0.0498
21.8200 7.3196 0.0498
21.8400 7.3262 0.0524
21.8600 7.3329 0.0496
21.8800 7.3396 0.0490
21.9000 7.3463 0.0533
21.9200 7.3530 0.0468
21.9400 7.3597 0.0495
21.9600 7.3664 0.0514
21.9800 7.3730 0.0480
22.0000 7.3796 0.0542
22.0200 7.3862 0.0593
22.0400 7.3929 0.0417
22.0600 7.3997 0.0547
22.0800 7.4064 0.0558
22.1000 7.4130 0.0438
22.1200 7.4197 0.0523
22.1400 7.4263 0.0561
22.1600 7.4330 0.0453
22.1800 7.4396 0.0525
22.2000 7.4462 0.0574
22.2200 7.4529 0.0452
22.2400 7.4596 0.0550
22.2600 7.4663 0.0569
22.2800 7.4730 0.0432
22.3000 7.4797 0.0581
22.3200 7.4864 0.0582
22.3400 7.4930 0.0387
22.3600 7.4996 0.0589
22.3800 7.5062 0.0567
22.4000 7.5128 0.0424
22.4200 7.5196 0.0569
22.4400 7.5263 0.0516
22.4600 7.5330 0.0455
22.4800 7.5397 0.0633
22.5000 7.5464 0.0539
22.5200 7.5530 0.0425
22.5400 7.5596 0.0614
22.5600 7.5662 0.0553
22.5800 7.5729 0.0452
22.6000 7.5796 0.0581
22.6200 7.5863 0.0556
22.6400 7.5930 0.0489
22.6600 7.5997 0.0553
22.6800 7.6064 0.0539
22.7000 7.6131 0.0528
22.7200 7.6197 0.0517
22.7400 7.6263 0.0535
22.7600 7.6329 0.0519
22.7800 7.6396 0.0527
22.8000 7.6463 0.0568
22.8200 7.6530 0.0521
22.8400 7.6597 0.0504
22.8600 7.6664 0.0618
22.8800 7.6731 0.0465
22.9000 7.6797 0.0487
22.9200 7.6863 0.0610
22.9400 7.6929 0.0489
22.9600 7.6996 0.0508
22.9800 7.7063 0.0614
23.0000 7.7130 0.0480
23.0200 7.7197 0.0521
23.0400 7.7264 0.0629
23.0600 7.7330 0.0441
23.0800 7.7396 0.0514
23.1000 7.7462 0.0636
23.1200 7.7529 0.0474
23.1400 7.7596 0.0537
23.1600 7.7663 0.0624
23.1800 7.7729 0.0440
23.2000 7.7796 0.0559
23.2200 7.7863 0.0592
23.2400 7.7930 0.0447
23.2600 7.7996 0.0528
23.2800 7.8063 0.0604
23.3000 7.8129 0.0471
23.3200 7.8196 0.0516
23.3400 7.8263 0.0602
23.3600 7.8330 0.0473
23.3800 7.8397 0.0556
23.4000 7.8464 0.0567
23.4200 7.8531 0.0497
23.4400 7.8597 0.0516
23.4600 7.8663 0.0570
23.4800 7.8729 0.0498
23.5000 7.8796 0.0521
23.5200 7.8863 0.0587
23.5400 7.8930 0.0473
23.5600 7.8997 0.0534
23.5800 7.9064 0.0640
23.6000 7.9131 0.0419
23.6200 7.9197 0.0511
23.6400 7.9262 0.0627
23.6600 7.9329 0.0499
23.6800 7.9396 0.0507
23.7000 7.9463 0.0609
23.7200 7.9530 0.0480
23.7400 7.9597 0.0477
23.7600 7.9663 0.0593
23.7800 7.9730 0.0508
23.8000 7.9797 0.0526
23.8200 7.9863 0.0601
23.8400 7.9929 0.0475
23.8600 7.9996 0.0512
23.8800 8.0063 0.0629
23.9000 8.0130 0.0499
23.9200 8.0197 0.0445
23.9400 8.0263 0.0642
23.9600 8.0330 0.0495
23.9800 8.0396 0.0414
24.0000 8.0462 0.0703
24.0200 8.0529 0.0485
24.0400 8.0596 0.0478
24.0600 8.0663 0.0666
24.0800 8.0730 0.0499
24.1000 8.0797 0.0499
24.1200 8.0864 0.0632
24.1400 8.0930 0.0453
24.1600 8.0996 0.0517
24.1800 8.1062 0.0637
24.2000 8.1129 0.0444
24.2200 8.1196 0.0516
24.2400 8.1263 0.0668
24.2600 8.1330 0.0421
24.2800 8.1397 0.0535
24.3000 8.1464 0.0630
24.3200 8.1530 0.0417
24.3400 8.1596 0.0559
24.3600 8.1663 0.0641
24.3800 8.1729 0.0473
24.4000 8.1796 0.0553
24.4200 8.1863 0.0606
24.4400 8.1930 0.0413
24.4600 8.1996 0.0584
24.4800 8.2063 0.0591
24.5000 8.2130 0.0502
24.5200 8.2196 0.0568
24.5400 8.2262 0.0575
24.5600 8.2328 0.0490
24.5800 8.2396 0.0535
24.6000 8.2463 0.0525
24.6200 8.2530 0.0506
24.6400 8.2597 0.0532
24.6600 8.2663 0.0556
24.6800 8.2730 0.0506
24.7000 8.2797 0.0526
24.7200 8.2863 0.0559
24.7400 8.2929 0.0542
24.7600 8.2996 0.0553
24.7800 8.3063 0.0526
24.8000 8.3130 0.0539
24.8200 8.3197 0.0515
24.8400 8.3264 0.0557
24.8600 8.3330 0.0550
24.8800 8.3397 0.0507
24.9000 8.3463 0.0536
24.9200 8.3529 0.0573
24.9400 8.3596 0.0525
24.9600 8.3663 0.0587
24.9800 8.3730 0.0535
25.0000 8.3797 0.0485
25.0200 8.3864 0.0573
25.0400 8.3930 0.0541
25.0600 8.3997 0.0498
25.0800 8.4063 0.0622
25.1000 8.4129 0.0533
25.1200 8.4196 0.0484
25.1400 8.4263 0.0570
25.1600 8.4330 0.0567
25.1800 8.4397 0.0526
25.2000 8.4464 0.0522
25.2200 8.4530 0.0540
25.2400 8.4597 0.0507
25.2600 8.4663 0.0606
25.2800 8.4729 0.0513
25.3000 8.4795 0.0529
25.3200 8.4863 0.0577
25.3400 8.4929 0.0518
25.3600 8.4996 0.0557
25.3800 8.5063 0.0585
25.4000 8.5130 0.0509
25.4200 8.5196 0.0481
25.4400 8.5262 0.0539
25.4600 8.5329 0.0521
25.4800 8.5395 0.0561
25.5000 8.5463 0.0524
25.5200 8.5530 0.0489
25.5400 8.5597 0.0564
25.5600 8.5664 0.0540
25.5800 8.5731 0.0486
25.6000 8.5797 0.0551
25.6200 8.5863 0.0496
25.6400 8.5929 0.0562
25.6600 8.5996 0.0528
25.6800 8.6063 0.0510
25.7000 8.6130 0.0511
25.7200 8.6197 0.0566
25.7400 8.6264 0.0499
25.7600 8.6330 0.0522
25.7800 8.6397 0.0522
25.8000 8.6463 0.0522
25.8200 8.6529 0.0534
25.8400 8.6596 0.0534
25.8600 8.6663 0.0478
25.8800 8.6730 0.0525
25.9000 8.6796 0.0532
25.9200 8.6863 0.0541
25.9400 8.6930 0.0566
25.9600 8.6996 0.0447
25.9800 8.7062 0.0515
26.0000 8.7128 0.0584
26.0200 8.7195 0.0508
26.0400 8.7262 0.0528
26.0600 8.7329 0.0559
26.0800 8.7396 0.0463
26.1000 8.7463 0.0537
26.1200 8.7530 0.0611
26.1400 8.7596 0.0469
26.1600 8.7662 0.0531
26.1800 8.7729 0.0588
26.2000 8.7796 0.0480
26.2200 8.7863 0.0572
26.2400 8.7930 0.0564
26.2600 8.7997 0.0498
26.2800 8.8064 0.0552
26.3000 8.8131 0.0537
26.3200 8.8197 0.0500
26.3400 8.8263 0.0558
26.3600 8.8329 0.0603
26.3800 8.8396 0.0501
26.4000 8.8463 0.0525
26.4200 8.8530 0.0597
26.4400 8.8597 0.0508
26.4600 8.8664 0.0575
26.4800 8.8731 0.0554
26.5000 8.8797 0.0447
26.5200 8.8863 0.0542
26.5400 8.8929 0.0538
26.5600 8.8996 0.0493
26.5800 8.9063 0.0517
26.6000 8.9130 0.0604
26.6200 8.9197 0.0438
26.6400 8.9263 0.0584
26.6600 8.9330 0.0599
26.6800 8.9397 0.0429
26.7000 8.9463 0.0564
26.7200 8.9529 0.0575
26.7400 8.9595 0.0511
26.7600 8.9663 0.0532
26.7800 8.9730 0.0546
26.8000 8.9796 0.0520
26.8200 8.9863 0.0563
26.8400 8.9930 0.0556
26.8600 8.9997 0.0541
26.8800 9.0063 0.0538
26.9000 9.0129 0.0575
26.9200 9.0196 0.0572
26.9400 9.0263 0.0532
26.9600 9.0330 0.0544
26.9800 9.0397 0.0602
27.0000 9.0463 0.0526
27.0200 9.0531 0.0577
27.0400 9.0597 0.0558
27.0600 9.0663 0.0509
27.0800 9.0729 0.0588
27.1000 9.0796 0.0532
27.1200 9.0863 0.0508
27.1400 9.0930 0.0582
27.1600 9.0997 0.0539
27.1800 9.1064 0.0504
27.2000 9.1130 0.0561
27.2200 9.1197 0.0556
27.2400 9.1263 0.0488
27.2600 9.1329 0.0610
27.2800 9.1396 0.0614
27.3000 9.1463 0.0471
27.3200 9.1530 0.0589
27.3400 9.1597 0.0578
27.3600 9.1663 0.0480
27.3800 9.1730 0.0571
27.4000 9.1797 0.0564
27.4200 9.1863 0.0446
27.4400 9.1929 0.0573
27.4600 9.1995 0.0598
27.4800 9.2062 0.0431
27.5000 9.2129 0.0555
27.5200 9.2196 0.0626
27.5400 9.2263 0.0437
27.5600 9.2330 0.0552
27.5800 9.2397 0.0537
27.6000 9.2463 0.0403
27.6200 9.2529 0.0582
27.6400 9.2596 0.0582
27.6600 9.2663 0.0468
27.6800 9.2730 0.0558
27.7000 9.2797 0.0561
27.7200 9.2864 0.0418
27.7400 9.2931 0.0572
27.7600 9.2997 0.0548
27.7800 9.3063 0.0422
27.8000 9.3129 0.0569
27.8200 9.3196 0.0530
27.8400 9.3263 0.0438
27.8600 9.3330 0.0576
27.8800 9.3397 0.0499
27.9000 9.3463 0.0425
27.9200 9.3530 0.0575
27.9400 9.3597 0.0526
27.9600 9.3663 0.0402
27.9800 9.3729 0.0599
28.0000 9.3795 0.0581
28.0200 9.3862 0.0427
28.0400 9.3929 0.0539
28.0600 9.3996 0.0498
28.0800 9.4063 0.0495
28.1000 9.4130 0.0559
28.1200 9.4197 0.0517
28.1400 9.4263 0.0428
28.1600 9.4329 0.0553
28.1800 9.4395 0.0505
28.2000 9.4462 0.0479
28.2200 9.4530 0.0517
28.2400 9.4597 0.0537
28.2600 9.4663 0.0487
28.2800 9.4730 0.0504
28.3000 9.4797 0.0523
28.3200 9.4863 0.0523
28.3400 9.4929 0.0466
28.3600 9.4996 0.0503
28.3800 9.5063 0.0549
28.4000 9.5130 0.0449
28.4200 9.5197 0.0598
28.4400 9.5264 0.0493
28.4600 9.5330 0.0434
28.4800 9.5397 0.0576
28.5000 9.5463 0.0488
28.5200 9.5529 0.0428
28.5400 9.5596 0.0604
28.5600 9.5663 0.0481
28.5800 9.5730 0.0410
28.6000 9.5797 0.0606
28.6200 9.5864 0.0489
28.6400 9.5931 0.0468
28.6600 9.5997 0.0609
28.6800 9.6063 0.0388
28.7000 9.6129 0.0505
28.7200 9.6196 0.0686
28.7400 9.6263 0.0421
28.7600 9.6330 0.0466
28.7800 9.6396 0.0592
28.8000 9.6463 0.0432
28.8200 9.6530 0.0530
28.8400 9.6597 0.0590
28.8600 9.6663 0.0440
28.8800 9.6729 0.0548
28.9000 9.6795 0.0557
28.9200 9.6862 0.0490
28.9400 9.6929 0.0544
28.9600 9.6996 0.0549
28.9800 9.7063 0.0491
29.0000 9.7130 0.0558
29.0200 9.7197 0.0574
29.0400 9.7263 0.0511
29.0600 9.7329 0.0493
29.0800 9.7396 0.0578
29.1000 9.7463 0.0513
29.1200 9.7530 0.0481
29.1400 9.7597 0.0580
29.1600 9.7664 0.0525
29.1800 9.7731 0.0506
29.2000 9.7797 0.0535
29.2200 9.7863 0.0497
29.2400 9.7929 0.0577
29.2600 9.7995 0.0517
29.2800 9.8062 0.0496
29.3000 9.8130 0.0557
29.3200 9.8197 0.0560
29.3400 9.8264 0.0484
29.3600 9.8330 0.0523
29.3800 9.8397 0.0610
29.4000 9.8463 0.0443
29.4200 9.8529 0.0566
29.4400 9.8596 0.0549
29.4600 9.8663 0.0482
29.4800 9.8730 0.0576
29.5000 9.8796 0.0516
29.5200 9.8863 0.0514
29.5400 9.8930 0.0542
29.5600 9.8997 0.0516
29.5800 9.9063 0.0466
29.6000 9.9129 0.0579
29.6200 9.9195 0.0524
29.6400 9.9262 0.0496
29.6600 9.9329 0.0539
29.6800 9.9396 0.0511
29.7000 9.9463 0.0509
29.7200 9.9530 0.0510
29.7400 9.9597 0.0483
29.7600 9.9663 0.0583
29.7800 9.9729 0.0545
29.8000 9.9795 0.0483
29.8200 9.9862 0.0552
29.8400 9.9930 0.0569
29.8600 9.9997 0.0470
29.8800 10.0064 0.0532
29.9000 10.0130 0.0503
29.9200 10.0197 0.0479
29.9400 10.0264 0.0598
29.9600 10.0330 0.0470
29.9800 10.0396 0.0499
30.0000 10.0463 0.0625
30.0200 10.0530 0.0453
30.0400 10.0597 0.0497
30.0600 10.0664 0.0597
30.0800 10.0730 0.0453
30.1000 10.0797 0.0491
30.1200 10.0864 0.0553
30.1400 10.0929 0.0471
30.1600 10.0996 0.0531
30.1800 10.1062 0.0624
30.2000 10.1129 0.0432
30.2200 10.1196 0.0500
30.2400 10.1263 0.0575
30.2600 10.1330 0.0430
30.2800 10.1397 0.0534
30.3000 10.1463 0.0578
30.3200 10.1529 0.0392
30.3400 10.1595 0.0556
30.3600 10.1662 0.0585
30.3800 10.1730 0.0431
30.4000 10.1797 0.0510
30.4200 10.1863 0.0534
30.4400 10.1930 0.0448
30.4600 10.1997 0.0517
30.4800 10.2063 0.0537
30.5000 10.2130 0.0430
30.5200 10.2196 0.0536
30.5400 10.2263 0.0534
30.5600 10.2330 0.0481
30.5800 10.2397 0.0488
30.6000 10.2463 0.0567
30.6200 10.2530 0.0513
30.6400 10.2597 0.0467
30.6600 10.2664 0.0517
30.6800 10.2730 0.0547
30.7000 10.2796 0.0478
30.7200 10.2862 0.0580
30.7400 10.2930 0.0518
30.7600 10.2997 0.0439
30.7800 10.3064 0.0587
30.8000 10.3130 0.0583
30.8200 10.3197 0.0396
30.8400 10.3263 0.0599
30.8600 10.3329 0.0529
30.8800 10.3395 0.0402
30.9000 10.3462 0.0694
30.9200 10.3529 0.0494
30.9400 10.3596 0.0391
30.9600 10.3663 0.0672
30.9800 10.3730 0.0510
31.0000 10.3797 0.0414
31.0200 10.3863 0.0693
31.0400 10.3930 0.0478
31.0600 10.3996 0.0432
31.0800 10.4062 0.0703
31.1000 10.4129 0.0516
31.1200 10.4196 0.0440
31.1400 10.4263 0.0650
31.1600 10.4330 0.0489
31.1800 10.4397 0.0432
31.2000 10.4464 0.0627
31.2200 10.4530 0.0511
31.2400 10.4596 0.0489
31.2600 10.4662 0.0601
31.2800 10.4729 0.0474
31.3000 10.4797 0.0506
31.3200 10.4864 0.0627
31.3400 10.4931 0.0473
31.3600 10.4997 0.0498
31.3800 10.5064 0.0567
31.4000 10.5130 0.0502
31.4200 10.5196 0.0533
31.4400 10.5262 0.0556
31.4600 10.5330 0.0476
31.4800 10.5397 0.0545
31.5000 10.5464 0.0579
31.5200 10.5530 0.0498
31.5400 10.5597 0.0527
31.5600 10.5664 0.0592
31.5800 10.5730 0.0470
31.6000 10.5796 0.0523
31.6200 10.5862 0.0608
31.6400 10.5929 0.0507
31.6600 10.5996 0.0503
31.6800 10.6063 0.0576
31.7000 10.6130 0.0526
31.7200 10.6197 0.0514
31.7400 10.6263 0.0549
31.7600 10.6329 0.0478
31.7800 10.6395 0.0576
31.8000 10.6462 0.0586
31.8200 10.6529 0.0487
31.8400 10.6596 0.0504
31.8600 10.6663 0.0543
31.8800 10.6730 0.0502
31.9000 10.6797 0.0498
31.9200 10.6863 0.0533
31.9400 10.6930 0.0516
31.9600 10.6996 0.0512
31.9800 10.7062 0.0531
32.0000 10.7130 0.0477
32.0200 10.7197 0.0525
32.0400 10.7263 0.0575
32.0600 10.7330 0.0491
32.0800 10.7397 0.0508
32.1000 10.7464 0.0520
32.1200 10.7530 0.0520
32.1400 10.7596 0.0492
32.1600 10.7662 0.0539
32.1800 10.7729 0.0498
32.2000 10.7796 0.0478
32.2200 10.7863 0.0500
32.2400 10.7930 0.0558
32.2600 10.7997 0.0504
32.2800 10.8063 0.0510
32.3000 10.8129 0.0535
32.3200 10.8196 0.0494
32.3400 10.8262 0.0542
32.3600 10.8329 0.0551
32.3800 10.8396 0.0429
32.4000 10.8463 0.0535
32.4200 10.8530 0.0598
32.4400 10.8597 0.0411
32.4600 10.8664 0.0527
32.4800 10.8730 0.0589
32.5000 10.8796 0.0429
32.5200 10.8862 0.0557
32.5400 10.8929 0.0577
32.5600 10.8996 0.0420
32.5800 10.9063 0.0566
32.6000 10.9130 0.0526
32.6200 10.9196 0.0441
32.6400 10.9263 0.0573
32.6600 10.9330 0.0533
32.6800 10.9396 0.0432
32.7000 10.9462 0.0586
32.7200 10.9529 0.0507
32.7400 10.9596 0.0452
32.7600 10.9663 0.0580
32.7800 10.9730 0.0511
32.8000 10.9797 0.0437
32.8200 10.9863 0.0607
32.8400 10.9930 0.0514
32.8600 10.9996 0.0446
32.8800 11.0062 0.0624
32.9000 11.0129 0.0509
32.9200 11.0197 0.0467
32.9400 11.0264 0.0609
32.9600 11.0330 0.0462
32.9800 11.0397 0.0473
33.0000 11.0464 0.0593
33.0200 11.0530 0.0472
33.0400 11.0596 0.0505
33.0600 11.0662 0.0618
33.0800 11.0729 0.0459
33.1000 11.0796 0.0455
33.1200 11.0863 0.0613
33.1400 11.0930 0.0473
33.1600 11.0997 0.0501
33.1800 11.1064 0.0552
33.2000 11.1130 0.0522
33.2200 11.1196 0.0507
33.2400 11.1262 0.0535
33.2600 11.1329 0.0509
33.2800 11.1396 0.0533
33.3000 11.1463 0.0529
33.3200 11.1530 0.0530
33.3400 11.1597 0.0518
33.3600 11.1663 0.0517
33.3800 11.1730 0.0537
33.4000 11.1796 0.0489
33.4200 11.1862 0.0533
33.4400 11.1929 0.0521
33.4600 11.1997 0.0526
33.4800 11.2064 0.0475
33.5000 11.2130 0.0534
33.5200 11.2197 0.0508
33.5400 11.2264 0.0554
33.5600 11.2330 0.0507
33.5800 11.2396 0.0503
33.6000 11.2463 0.0583
33.6200 11.2529 0.0490
33.6400 11.2596 0.0512
33.6600 11.2663 0.0531
33.6800 11.2730 0.0514
33.7000 11.2797 0.0534
33.7200 11.2864 0.0496
33.7400 11.2930 0.0485
33.7600 11.2996 0.0548
33.7800 11.3062 0.0502
33.8000 11.3129 0.0533
33.8200 11.3196 0.0539
33.8400 11.3263 0.0494
33.8600 11.3330 0.0524
33.8800 11.3397 0.0560
33.9000 11.3464 0.0449
33.9200 11.3530 0.0518
33.9400 11.3596 0.0546
33.9600 11.3662 0.0475
33.9800 11.3729 0.0557
34.0000 11.3796 0.0509
34.0200 11.3863 0.0421
34.0400 11.3930 0.0610
34.0600 11.3996 0.0491
34.0800 11.4063 0.0434
34.1000 11.4130 0.0607
34.1200 11.4196 0.0491
34.1400 11.4262 0.0483
34.1600 11.4329 0.0609
34.1800 11.4396 0.0473
34.2000 11.4463 0.0419
34.2200 11.4530 0.0635
34.2400 11.4597 0.0506
34.2600 11.4664 0.0481
34.2800 11.4730 0.0586
34.3000 11.4796 0.0532
34.3200 11.4863 0.0509
34.3400 11.4929 0.0557
34.3600 11.4996 0.0500
34.3800 11.5064 0.0494
34.4000 11.5130 0.0548
34.4200 11.5197 0.0503
34.4400 11.5264 0.0454
34.4600 11.5330 0.0569
34.4800 11.5396 0.0523
34.5000 11.5462 0.0490
34.5200 11.5529 0.0553
34.5400 11.5596 0.0534
34.5600 11.5663 0.0485
34.5800 11.5730 0.0564
34.6000 11.5796 0.0539
34.6200 11.5863 0.0431
34.6400 11.5930 0.0590
34.6600 11.5996 0.0530
34.6800 11.6062 0.0421
34.7000 11.6129 0.0574
34.7200 11.6196 0.0553
34.7400 11.6263 0.0442
34.7600 11.6330 0.0547
34.7800 11.6397 0.0576
34.8000 11.6464 0.0449
34.8200 11.6530 0.0552
34.8400 11.6596 0.0553
34.8600 11.6663 0.0467
34.8800 11.6729 0.0508
34.9000 11.6796 0.0542
34.9200 11.6863 0.0463
34.9400 11.6930 0.0575
34.9600 11.6997 0.0578
34.9800 11.7064 0.0453
35.0000 11.7130 0.0533
35.0200 11.7196 0.0527
35.0400 11.7262 0.0495
35.0600 11.7329 0.0590
35.0800 11.7396 0.0478
35.1000 11.7463 0.0522
35.1200 11.7530 0.0540
35.1400 11.7597 0.0538
35.1600 11.7664 0.0491
35.1800 11.7730 0.0524
35.2000 11.7797 0.0535
35.2200 11.7863 0.0502
35.2400 11.7929 0.0505
35.2600 11.7996 0.0583
35.2800 11.8063 0.0500
35.3000 11.8130 0.0468
35.3200 11.8197 0.0569
35.3400 11.8264 0.0535
35.3600 11.8330 0.0485
35.3800 11.8396 0.0593
35.4000 11.8462 0.0483
35.4200 11.8529 0.0487
35.4400 11.8596 0.0642
35.4600 11.8663 0.0469
35.4800 11.8730 0.0498
35.5000 11.8797 0.0588
35.5200 11.8863 0.0516
35.5400 11.8930 0.0460
35.5600 11.8996 0.0635
35.5800 11.9062 0.0517
35.6000 11.9129 0.0459
35.6200 11.9196 0.0609
35.6400 11.9263 0.0513
35.6600 11.9330 0.0482
35.6800 11.9397 0.0610
35.7000 11.9464 0.0505
35.7200 11.9530 0.0480
35.7400 11.9596 0.0608
35.7600 11.9663 0.0486
35.7800 11.9729 0.0533
35.8000 11.9796 0.0580
35.8200 11.9863 0.0509
35.8400 11.9930 0.0509
35.8600 11.9997 0.0637
35.8800 12.0064 0.0476
35.9000 12.0130 0.0497
35.9200 12.0196 0.0582
35.9400 12.0262 0.0500
35.9600 12.0329 0.0551
35.9800 12.0396 0.0576
36.0000 12.0463 0.0466
36.0200 12.0530 0.0518
36.0400 12.0597 0.0617
36.0600 12.0664 0.0502
36.0800 12.0730 0.0518
36.1000 12.0796 0.0597
36.1200 12.0862 0.0474
36.1400 12.0929 0.0491
36.1600 12.0996 0.0618
36.1800 12.1063 0.0478
36.2000 12.1129 0.0521
36.2200 12.1196 0.0584
36.2400 12.1263 0.0477
36.2600 12.1330 0.0488
36.2800 12.1396 0.0573
36.3000 12.1463 0.0480
36.3200 12.1529 0.0520
36.3400 12.1596 0.0572
36.3600 12.1663 0.0504
36.3800 12.1730 0.0535
36.4000 12.1797 0.0582
36.4200 12.1864 0.0471
36.4400 12.1931 0.0519
36.4600 12.1997 0.0570
36.4800 12.2063 0.0467
36.5000 12.2129 0.0530
36.5200 12.2196 0.0550
36.5400 12.2263 0.0493
36.5600 12.2330 0.0531
36.5800 12.2397 0.0567
36.6000 12.2464 0.0464
36.6200 12.2530 0.0565
36.6400 12.2596 0.0582
36.6600 12.2662 0.0483
36.6800 12.2729 0.0555
36.7000 12.2796 0.0567
36.7200 12.2863 0.0467
36.7400 12.2930 0.0575
36.7600 12.2997 0.0512
36.7800 12.3063 0.0479
36.8000 12.3130 0.0551
36.8200 12.3196 0.0505
36.8400 12.3262 0.0515
36.8600 12.3329 0.0584
36.8800 12.3396 0.0533
36.9000 12.3463 0.0518
36.9200 12.3530 0.0525
36.9400 12.3597 0.0529
36.9600 12.3664 0.0508
36.9800 12.3730 0.0498
37.0000 12.3796 0.0493
37.0200 12.3862 0.0516
37.0400 12.3929 0.0556
37.0600 12.3996 0.0506
37.0800 12.4063 0.0526
37.1000 12.4130 0.0551
37.1200 12.4197 0.0507
37.1400 12.4264 0.0498
37.1600 12.4331 0.0536
37.1800 12.4397 0.0502
37.2000 12.4463 0.0550
37.2200 12.4529 0.0485
37.2400 12.4596 0.0497
37.2600 12.4663 0.0569
37.2800 12.4730 0.0500
37.3000 12.4797 0.0507
37.3200 12.4864 0.0556
37.3400 12.4931 0.0505
37.3600 12.4997 0.0528
37.3800 12.5063 0.0543
37.4000 12.5129 0.0519
37.4200 12.5196 0.0506
37.4400 12.5263 0.0548
37.4600 12.5330 0.0520
37.4800 12.5397 0.0511
37.5000 12.5464 0.0559
37.5200 12.5530 0.0495
37.5400 12.5596 0.0496
37.5600 12.5662 0.0540
37.5800 12.5728 0.0543
37.6000 12.5795 0.0447
37.6200 12.5862 0.0534
37.6400 12.5929 0.0573
37.6600 12.5996 0.0477
37.6800 12.6063 0.0519
37.7000 12.6130 0.0538
37.7200 12.6196 0.0456
37.7400 12.6263 0.0537
37.7600 12.6329 0.0557
37.7800 12.6396 0.0456
37.8000 12.6463 0.0604
37.8200 12.6530 0.0518
37.8400 12.6597 0.0419
37.8600 12.6664 0.0608
37.8800 12.6731 0.0542
37.9000 12.6797 0.0421
37.9200 12.6863 0.0591
37.9400 12.6929 0.0516
37.9600 12.6996 0.0466
37.9800 12.7063 0.0552
38.0000 12.7130 0.0504
38.0200 12.7197 0.0469
38.0400 12.7264 0.0569
38.0600 12.7330 0.0430
38.0800 12.7397 0.0478
38.1000 12.7462 0.0639
38.1200 12.7529 0.0462
38.1400 12.7596 0.0486
38.1600 12.7663 0.0565
38.1800 12.7730 0.0473
38.2000 12.7797 0.0504
38.2200 12.7863 0.0533
38.2400 12.7930 0.0434
38.2600 12.7997 0.0502
38.2800 12.8063 0.0562
38.3000 12.8129 0.0485
38.3200 12.8196 0.0510
38.3400 12.8263 0.0543
38.3600 12.8330 0.0472
38.3800 12.8396 0.0517
38.4000 12.8463 0.0542
38.4200 12.8530 0.0529
38.4400 12.8597 0.0441
38.4600 12.8663 0.0544
38.4800 12.8729 0.0551
38.5000 12.8796 0.0457
38.5200 12.8863 0.0562
38.5400 12.8930 0.0501
38.5600 12.8997 0.0478
38.5800 12.9064 0.0550
38.6000 12.9130 0.0505
38.6200 12.9197 0.0496
38.6400 12.9263 0.0537
38.6600 12.9329 0.0542
38.6800 12.9396 0.0499
38.7000 12.9463 0.0535
38.7200 12.9530 0.0549
38.7400 12.9597 0.0466
38.7600 12.9664 0.0573
38.7800 12.9730 0.0476
38.8000 12.9797 0.0506
38.8200 12.9863 0.0547
38.8400 12.9929 0.0517
38.8600 12.9996 0.0496
38.8800 13.0063 0.0539
38.9000 13.0130 0.0516
38.9200 13.0196 0.0490
38.9400 13.0263 0.0578
38.9600 13.0330 0.0531
38.9800 13.0397 0.0425
39.0000 13.0463 0.0563
39.0200 13.0529 0.0524
39.0400 13.0595 0.0444
39.0600 13.0663 0.0595
39.0800 13.0730 0.0518
39.1000 13.0797 0.0481
39.1200 13.0863 0.0564
39.1400 13.0930 0.0536
39.1600 13.0997 0.0466
39.1800 13.1063 0.0583
39.2000 13.1129 0.0492
39.2200 13.1196 0.0487
39.2400 13.1263 0.0611
39.2600 13.1330 0.0462
39.2800 13.1397 0.0506
39.3000 13.1463 0.0594
39.3200 13.1530 0.0471
39.3400 13.1597 0.0501
39.3600 13.1663 0.0581
39.3800 13.1729 0.0505
39.4000 13.1796 0.0503
39.4200 13.1863 0.0530
39.4400 13.1930 0.0516
39.4600 13.1997 0.0550
39.4800 13.2064 0.0504
39.5000 13.2130 0.0431
39.5200 13.2197 0.0597
39.5400 13.2263 0.0499
39.5600 13.2329 0.0503
39.5800 13.2396 0.0549
39.6000 13.2463 0.0503
39.6200 13.2530 0.0500
39.6400 13.2597 0.0512
39.6600 13.2664 0.0479
39.6800 13.2731 0.0535
39.7000 13.2797 0.0512
39.7200 13.2863 0.0459
39.7400 13.2929 0.0566
39.7600 13.2996 0.0495
39.7800 13.3063 0.0492
39.8000 13.3130 0.0531
39.8200 13.3196 0.0480
39.8400 13.3263 0.0519
39.8600 13.3330 0.0574
39.8800 13.3396 0.0432
39.9000 13.3463 0.0519
39.9200 13.3529 0.0545
39.9400 13.3596 0.0489
39.9600 13.3663 0.0536
39.9800 13.3730 0.0515
40.0000 13.3797 0.0451
40.0200 13.3864 0.0541
40.0400 13.3931 0.0498
40.0600 13.3997 0.0426
40.0800 13.4063 0.0545
40.1000 13.4129 0.0545
40.1200 13.4196 0.0435
40.1400 13.4263 0.0565
40.1600 13.4330 0.0518
40.1800 13.4397 0.0452
40.2000 13.4464 0.0518
40.2200 13.4530 0.0513
40.2400 13.4597 0.0495
40.2600 13.4663 0.0520
40.2800 13.4729 0.0512
40.3000 13.4796 0.0460
40.3200 13.4863 0.0534
40.3400 13.4930 0.0543
40.3600 13.4996 0.0484
40.3800 13.5063 0.0510
40.4000 13.5130 0.0511
40.4200 13.5197 0.0478
40.4400 13.5263 0.0508
40.4600 13.5329 0.0488
40.4800 13.5395 0.0548
40.5000 13.5462 0.0490
40.5200 13.5529 0.0491
40.5400 13.5596 0.0565
40.5600 13.5663 0.0479
40.5800 13.5730 0.0498
40.6000 13.5797 0.0511
40.6200 13.5863 0.0483
40.6400 13.5929 0.0571
40.6600 13.5995 0.0539
40.6800 13.6063 0.0437
40.7000 13.6130 0.0559
40.7200 13.6197 0.0544
40.7400 13.6264 0.0461
40.7600 13.6330 0.0573
40.7800 13.6397 0.0499
40.8000 13.6463 0.0410
40.8200 13.6529 0.0601
40.8400 13.6596 0.0480
40.8600 13.6663 0.0474
40.8800 13.6730 0.0577
40.9000 13.6797 0.0497
40.9200 13.6864 0.0423
40.9400 13.6930 0.0562
40.9600 13.6997 0.0511
40.9800 13.7063 0.0451
41.0000 13.7129 0.0617
41.0200 13.7195 0.0513
41.0400 13.7263 0.0450
41.0600 13.7330 0.0555
41.0800 13.7397 0.0521
41.1000 13.7463 0.0477
41.1200 13.7530 0.0578
41.1400 13.7597 0.0502
41.1600 13.7663 0.0453
41.1800 13.7729 0.0546
41.2000 13.7795 0.0517
41.2200 13.7862 0.0477
41.2400 13.7929 0.0511
41.2600 13.7996 0.0464
41.2800 13.8063 0.0517
41.3000 13.8130 0.0464
41.3200 13.8197 0.0521
41.3400 13.8263 0.0515
41.3600 13.8329 0.0450
41.3800 13.8396 0.0510
41.4000 13.8462 0.0523
41.4200 13.8529 0.0478
41.4400 13.8596 0.0510
41.4600 13.8663 0.0547
41.4800 13.8731 0.0427
41.5000 13.8797 0.0535
41.5200 13.8863 0.0549
41.5400 13.8929 0.0428
41.5600 13.8996 0.0549
41.5800 13.9063 0.0535
41.6000 13.9130 0.0462
41.6200 13.9197 0.0524
41.6400 13.9264 0.0484
41.6600 13.9331 0.0516
41.6800 13.9397 0.0504
41.7000 13.9463 0.0457
41.7200 13.9529 0.0528
41.7400 13.9596 0.0556
41.7600 13.9663 0.0460
41.7800 13.9730 0.0510
41.8000 13.9797 0.0531
41.8200 13.9863 0.0483
41.8400 13.9930 0.0523
41.8600 13.9997 0.0518
41.8800 14.0063 0.0471
41.9000 14.0129 0.0535
41.9200 14.0195 0.0539
41.9400 14.0262 0.0449
41.9600 14.0329 0.0578
41.9800 14.0396 0.0554
42.0000 14.0463 0.0433
42.0200 14.0530 0.0513
42.0400 14.0597 0.0518
42.0600 14.0663 0.0456
42.0800 14.0729 0.0562
42.1000 14.0796 0.0477
42.1200 14.0863 0.0503
42.1400 14.0930 0.0507
42.1600 14.0997 0.0506
42.1800 14.1064 0.0480
42.2000 14.1131 0.0520
42.2200 14.1197 0.0528
42.2400 14.1263 0.0500
42.2600 14.1329 0.0516
42.2800 14.1396 0.0547
42.3000 14.1463 0.0542
42.3200 14.1530 0.0486
42.3400 14.1597 0.0557
42.3600 14.1664 0.0469
42.3800 14.1730 0.0516
42.4000 14.1797 0.0537
42.4200 14.1863 0.0481
42.4400 14.1929 0.0488
42.4600 14.1995 0.0603
42.4800 14.2062 0.0515
42.5000 14.2129 0.0481
42.5200 14.2196 0.0584
42.5400 14.2263 0.0502
42.5600 14.2330 0.0467
42.5800 14.2397 0.0576
42.6000 14.2463 0.0491
42.6200 14.2529 0.0515
42.6400 14.2595 0.0584
42.6600 14.2662 0.0433
42.6800 14.2730 0.0549
42.7000 14.2797 0.0624
42.7200 14.2863 0.0450
42.7400 14.2930 0.0510
42.7600 14.2997 0.0606
42.7800 14.3063 0.0424
42.8000 14.3129 0.0542
42.8200 14.3196 0.0600
42.8400 14.3263 0.0439
42.8600 14.3330 0.0505
42.8800 14.3397 0.0621
42.9000 14.3463 0.0466
42.9200 14.3530 0.0514
42.9400 14.3597 0.0610
42.9600 14.3664 0.0464
42.9800 14.3730 0.0497
43.0000 14.3796 0.0649
43.0200 14.3862 0.0468
43.0400 14.3930 0.0479
43.0600 14.3997 0.0583
43.0800 14.4064 0.0498
43.1000 14.4131 0.0538
43.1200 14.4197 0.0556
43.1400 14.4264 0.0513
43.1600 14.4329 0.0510
43.1800 14.4396 0.0601
43.2000 14.4462 0.0507
43.2200 14.4530 0.0540
43.2400 14.4597 0.0510
43.2600 14.4663 0.0507
43.2800 14.4730 0.0542
43.3000 14.4797 0.0495
43.3200 14.4863 0.0495
43.3400 14.4929 0.0541
43.3600 14.4995 0.0551
43.3800 14.5062 0.0530
43.4000 14.5129 0.0472
43.4200 14.5196 0.0549
43.4400 14.5263 0.0495
43.4600 14.5330 0.0459
43.4800 14.5397 0.0599
43.5000 14.5463 0.0524
43.5200 14.5529 0.0476
43.5400 14.5596 0.0559
43.5600 14.5662 0.0530
43.5800 14.5729 0.0429
43.6000 14.5796 0.0560
43.6200 14.5863 0.0541
43.6400 14.5930 0.0497
43.6600 14.5997 0.0537
43.6800 14.6064 0.0520
43.7000 14.6130 0.0496
43.7200 14.6196 0.0564
43.7400 14.6263 0.0449
43.7600 14.6330 0.0530
43.7800 14.6397 0.0547
43.8000 14.6464 0.0449
43.8200 14.6530 0.0534
43.8400 14.6597 0.0560
43.8600 14.6663 0.0501
43.8800 14.6729 0.0529
43.9000 14.6796 0.0575
43.9200 14.6862 0.0464
43.9400 14.6929 0.0549
43.9600 14.6996 0.0528
43.9800 14.7063 0.0511
44.0000 14.7130 0.0505
44.0200 14.7197 0.0508
44.0400 14.7263 0.0594
44.0600 14.7329 0.0497
44.0800 14.7395 0.0455
44.1000 14.7462 0.0648
44.1200 14.7529 0.0506
44.1400 14.7596 0.0430
44.1600 14.7663 0.0635
44.1800 14.7730 0.0496
44.2000 14.7796 0.0415
44.2200 14.7863 0.0639
44.2400 14.7929 0.0483
44.2600 14.7995 0.0506
44.2800 14.8062 0.0639
44.3000 14.8130 0.0422
44.3200 14.8197 0.0584
44.3400 14.8264 0.0598
44.3600 14.8330 0.0422
44.3800 14.8397 0.0557
44.4000 14.8464 0.0608
44.4200 14.8530 0.0432
44.4400 14.8596 0.0615
44.4600 14.8663 0.0592
44.4800 14.8730 0.0450
44.5000 14.8797 0.0610
44.5200 14.8864 0.0551
44.5400 14.8931 0.0419
44.5600 14.8997 0.0629
44.5800 14.9064 0.0537
44.6000 14.9130 0.0498
44.6200 14.9196 0.0626
44.6400 14.9262 0.0496
44.6600 14.9329 0.0570
44.6800 14.9396 0.0623
44.7000 14.9463 0.0468
44.7200 14.9530 0.0561
44.7400 14.9597 0.0599
44.7600 14.9663 0.0458
44.7800 14.9729 0.0565
44.8000 14.9796 0.0599
44.8200 14.9862 0.0525
44.8400 14.9929 0.0534
44.8600 14.9996 0.0579
44.8800 15.0063 0.0516
44.9000 15.0130 0.0594
44.9200 15.0197 0.0526
44.9400 15.0263 0.0521
44.9600 15.0330 0.0627
44.9800 15.0396 0.0508
45.0000 15.0463 0.0592
45.0200 15.0530 0.0595
45.0400 15.0597 0.0473
45.0600 15.0663 0.0557
45.0800 15.0730 0.0581
45.1000 15.0797 0.0491
45.1200 15.0864 0.0568
45.1400 15.0930 0.0551
45.1600 15.0996 0.0545
45.1800 15.1062 0.0558
45.2000 15.1129 0.0600
45.2200 15.1197 0.0534
45.2400 15.1264 0.0565
45.2600 15.1330 0.0554
45.2800 15.1397 0.0552
45.3000 15.1463 0.0569
45.3200 15.1529 0.0561
45.3400 15.1596 0.0550
45.3600 15.1662 0.0534
45.3800 15.1729 0.0588
45.4000 15.1797 0.0555
45.4200 15.1863 0.0545
45.4400 15.1930 0.0582
45.4600 15.1997 0.0554
45.4800 15.2063 0.0576
45.5000 15.2130 0.0550
45.5200 15.2196 0.0547
45.5400 15.2262 0.0606
45.5600 15.2329 0.0578
45.5800 15.2396 0.0520
45.6000 15.2463 0.0553
45.6200 15.2530 0.0618
45.6400 15.2597 0.0450
45.6600 15.2663 0.0571
45.6800 15.2730 0.0623
45.7000 15.2796 0.0428
45.7200 15.2862 0.0592
45.7400 15.2929 0.0635
45.7600 15.2997 0.0441
45.7800 15.3064 0.0637
45.8000 15.3130 0.0607
45.8200 15.3197 0.0436
45.8400 15.3264 0.0637
45.8600 15.3330 0.0547
45.8800 15.3396 0.0477
45.9000 15.3463 0.0705
45.9200 15.3530 0.0418
45.9400 15.3597 0.0462
45.9600 15.3664 0.0804
45.9800 15.3730 0.0427
46.0000 15.3797 0.0454
46.0200 15.3864 0.0697
46.0400 15.3930 0.0464
46.0600 15.3996 0.0484
46.0800 15.4062 0.0699
46.1000 15.4129 0.0466
46.1200 15.4196 0.0498
46.1400 15.4263 0.0611
46.1600 15.4330 0.0491
46.1800 15.4397 0.0578
46.2000 15.4463 0.0585
46.2200 15.4529 0.0419
46.2400 15.4595 0.0565
46.2600 15.4662 0.0574
46.2800 15.4729 0.0472
46.3000 15.4796 0.0637
46.3200 15.4863 0.0509
46.3400 15.4930 0.0470
46.3600 15.4997 0.0629
46.3800 15.5063 0.0542
46.4000 15.5130 0.0422
46.4200 15.5196 0.0665
46.4400 15.5262 0.0566
46.4600 15.5329 0.0426
46.4800 15.5396 0.0598
46.5000 15.5463 0.0601
46.5200 15.5530 0.0435
46.5400 15.5597 0.0602
46.5600 15.5664 0.0548
46.5800 15.5730 0.0505
46.6000 15.5796 0.0568
46.6200 15.5863 0.0542
46.6400 15.5929 0.0525
46.6600 15.5997 0.0568
46.6800 15.6064 0.0537
46.7000 15.6130 0.0541
46.7200 15.6197 0.0626
46.7400 15.6264 0.0462
46.7600 15.6330 0.0478
46.7800 15.6396 0.0654
46.8000 15.6462 0.0454
46.8200 15.6529 0.0493
46.8400 15.6596 0.0649
46.8600 15.6663 0.0450
46.8800 15.6730 0.0530
46.9000 15.6797 0.0593
46.9200 15.6863 0.0454
46.9400 15.6930 0.0532
46.9600 15.6996 0.0580
46.9800 15.7062 0.0399
47.0000 15.7129 0.0642
47.0200 15.7196 0.0516
47.0400 15.7263 0.0380
47.0600 15.7330 0.0739
47.0800 15.7396 0.0489
47.1000 15.7463 0.0462
47.1200 15.7530 0.0612
47.1400 15.7596 0.0495
47.1600 15.7662 0.0504
47.1800 15.7729 0.0664
47.2000 15.7796 0.0436
47.2200 15.7863 0.0470
47.2400 15.7930 0.0705
47.2600 15.7997 0.0432
47.2800 15.8064 0.0504
47.3000 15.8130 0.0651
47.3200 15.8196 0.0378
47.3400 15.8262 0.0556
47.3600 15.8329 0.0653
47.3800 15.8396 0.0455
47.4000 15.8464 0.0471
47.4200 15.8531 0.0607
47.4400 15.8597 0.0515
47.4600 15.8664 0.0510
47.4800 15.8730 0.0602
47.5000 15.8796 0.0524
47.5200 15.8862 0.0477
47.5400 15.8929 0.0566
47.5600 15.8996 0.0561
47.5800 15.9063 0.0471
47.6000 15.9130 0.0592
47.6200 15.9197 0.0547
47.6400 15.9264 0.0472
47.6600 15.9330 0.0627
47.6800 15.9396 0.0551
47.7000 15.9462 0.0402
47.7200 15.9529 0.0652
47.7400 15.9596 0.0506
47.7600 15.9663 0.0438
47.7800 15.9730 0.0663
47.8000 15.9797 0.0459
47.8200 15.9864 0.0439
47.8400 15.9930 0.0684
47.8600 15.9996 0.0476
47.8800 16.0062 0.0460
47.9000 16.0129 0.0677
47.9200 16.0197 0.0424
47.9400 16.0264 0.0530
47.9600 16.0331 0.0666
47.9800 16.0397 0.0334
48.0000 16.0464 0.0586
48.0200 16.0530 0.0630
48.0400 16.0596 0.0281
48.0600 16.0663 0.0657
48.0800 16.0729 0.0634
48.1000 16.0797 0.0361
48.1200 16.0863 0.0578
48.1400 16.0930 0.0567
48.1600 16.0997 0.0411
48.1800 16.1064 0.0615
48.2000 16.1130 0.0512
48.2200 16.1196 0.0460
48.2400 16.1262 0.0608
48.2600 16.1329 0.0460
48.2800 16.1396 0.0506
48.3000 16.1463 0.0599
48.3200 16.1530 0.0436
48.3400 16.1597 0.0558
48.3600 16.1664 0.0552
48.3800 16.1730 0.0480
48.4000 16.1796 0.0528
48.4200 16.1862 0.0518
48.4400 16.1929 0.0538
48.4600 16.1996 0.0548
48.4800 16.2063 0.0505
48.5000 16.2130 0.0514
48.5200 16.2196 0.0578
48.5400 16.2263 0.0474
48.5600 16.2330 0.0588
48.5800 16.2396 0.0560
48.6000 16.2462 0.0448
48.6200 16.2529 0.0579
48.6400 16.2596 0.0510
48.6600 16.2663 0.0448
48.6800 16.2730 0.0632
48.7000 16.2797 0.0528
48.7200 16.2864 0.0449
48.7400 16.2931 0.0606
48.7600 16.2996 0.0562
48.7800 16.3062 0.0503
48.8000 16.3129 0.0583
48.8200 16.3196 0.0564
48.8400 16.3264 0.0524
48.8600 16.3330 0.0542
48.8800 16.3397 0.0474
48.9000 16.3464 0.0558
48.9200 16.3530 0.0537
48.9400 16.3596 0.0557
48.9600 16.3662 0.0547
48.9800 16.3729 0.0519
49.0000 16.3796 0.0574
49.0200 16.3863 0.0611
49.0400 16.3930 0.0436
49.0600 16.3996 0.0542
49.0800 16.4063 0.0672
49.1000 16.4130 0.0449
49.1200 16.4196 0.0507
49.1400 16.4262 0.0629
49.1600 16.4329 0.0465
49.1800 16.4396 0.0547
49.2000 16.4463 0.0606
49.2200 16.4530 0.0440
49.2400 16.4597 0.0572
49.2600 16.4664 0.0561
49.2800 16.4730 0.0430
49.3000 16.4796 0.0627
49.3200 16.4862 0.0598
49.3400 16.4929 0.0423
49.3600 16.4996 0.0632
49.3800 16.5063 0.0552
49.4000 16.5130 0.0447
49.4200 16.5197 0.0646
49.4400 16.5264 0.0536
49.4600 16.5330 0.0363
49.4800 16.5396 0.0649
49.5000 16.5462 0.0578
49.5200 16.5529 0.0453
49.5400 16.5596 0.0601
49.5600 16.5663 0.0469
49.5800 16.5730 0.0467
49.6000 16.5797 0.0633
49.6200 16.5864 0.0551
49.6400 16.5930 0.0417
49.6600 16.5997 0.0595
49.6800 16.6063 0.0562
49.7000 16.6129 0.0460
49.7200 16.6196 0.0629
49.7400 16.6263 0.0542
49.7600 16.6330 0.0415
49.7800 16.6397 0.0674
49.8000 16.6464 0.0522
49.8200 16.6530 0.0444
49.8400 16.6596 0.0599
49.8600 16.6662 0.0502
49.8800 16.6729 0.0511
49.9000 16.6796 0.0644
49.9200 16.6863 0.0455
49.9400 16.6930 0.0465
49.9600 16.6997 0.0688
49.9800 16.7063 0.0506
50.0000 16.7130 0.0402
50.0200 16.7196 0.0663
50.0400 16.7262 0.0532
50.0600 16.7329 0.0452
50.0800 16.7396 0.0617
50.1000 16.7463 0.0487
50.1200 16.7530 0.0444
50.1400 16.7597 0.0618
50.1600 16.7664 0.0501
50.1800 16.7730 0.0374
50.2000 16.7796 0.0675
50.2200 16.7863 0.0512
50.2400 16.7929 0.0369
50.2600 16.7996 0.0707
50.2800 16.8063 0.0522
50.3000 16.8130 0.0356
50.3200 16.8197 0.0687
50.3400 16.8264 0.0513
50.3600 16.8331 0.0422
50.3800 16.8397 0.0680
50.4000 16.8462 0.0475
50.4200 16.8529 0.0436
50.4400 16.8596 0.0764
50.4600 16.8663 0.0407
50.4800 16.8730 0.0390
50.5000 16.8797 0.0749
50.5200 16.8863 0.0372
50.5400 16.8930 0.0499
50.5600 16.8996 0.0726
50.5800 16.9062 0.0396
50.6000 16.9129 0.0489
50.6200 16.9196 0.0653
50.6400 16.9263 0.0395
50.6600 16.9330 0.0557
50.6800 16.9396 0.0673
50.7000 16.9463 0.0405
50.7200 16.9530 0.0520
50.7400 16.9596 0.0611
50.7600 16.9662 0.0468
50.7800 16.9729 0.0560
50.8000 16.9796 0.0547
50.8200 16.9863 0.0454
50.8400 16.9930 0.0575
50.8600 16.9997 0.0503
50.8800 17.0064 0.0527
50.9000 17.0130 0.0536
50.9200 17.0196 0.0494
50.9400 17.0262 0.0505
50.9600 17.0329 0.0549
50.9800 17.0396 0.0490
51.0000 17.0463 0.0529
51.0200 17.0530 0.0528
51.0400 17.0597 0.0480
51.0600 17.0664 0.0546
51.0800 17.0730 0.0536
51.1000 17.0796 0.0471
51.1200 17.0862 0.0544
51.1400 17.0929 0.0529
51.1600 17.0996 0.0518
51.1800 17.1063 0.0540
51.2000 17.1130 0.0498
51.2200 17.1196 0.0530
51.2400 17.1263 0.0560
51.2600 17.1330 0.0469
51.2800 17.1397 0.0474
51.3000 17.1462 0.0656
51.3200 17.1529 0.0502
51.3400 17.1596 0.0494
51.3600 17.1663 0.0590
51.3800 17.1730 0.0475
51.4000 17.1797 0.0568
51.4200 17.1864 0.0604
51.4400 17.1930 0.0425
51.4600 17.1997 0.0584
51.4800 17.2062 0.0559
51.5000 17.2129 0.0452
51.5200 17.2196 0.0647
51.5400 17.2263 0.0575
51.5600 17.2330 0.0387
51.5800 17.2397 0.0620
51.6000 17.2464 0.0580
51.6200 17.2530 0.0409
51.6400 17.2597 0.0653
51.6600 17.2663 0.0504
51.6800 17.2729 0.0422
51.7000 17.2796 0.0689
51.7200 17.2863 0.0517
51.7400 17.2930 0.0429
51.7600 17.2997 0.0691
51.7800 17.3064 0.0442
51.8000 17.3131 0.0392
51.8200 17.3197 0.0658
51.8400 17.3263 0.0495
51.8600 17.3329 0.0413
51.8800 17.3396 0.0685
51.9000 17.3463 0.0445
51.9200 17.3530 0.0458
51.9400 17.3597 0.0662
51.9600 17.3663 0.0455
51.9800 17.3730 0.0478
52.0000 17.3796 0.0618
52.0200 17.3862 0.0422
52.0400 17.3929 0.0503
52.0600 17.3995 0.0651
52.0800 17.4062 0.0432
52.1000 17.4129 0.0505
52.1200 17.4196 0.0549
52.1400 17.4263 0.0500
52.1600 17.4330 0.0558
52.1800 17.4396 0.0526
52.2000 17.4463 0.0487
52.2200 17.4529 0.0592
52.2400 17.4596 0.0514
52.2600 17.4663 0.0576
52.2800 17.4730 0.0566
52.3000 17.4797 0.0480
52.3200 17.4864 0.0559
52.3400 17.4931 0.0578
52.3600 17.4997 0.0476
52.3800 17.5063 0.0603
52.4000 17.5129 0.0552
52.4200 17.5196 0.0508
52.4400 17.5263 0.0595
52.4600 17.5330 0.0494
52.4800 17.5397 0.0553
52.5000 17.5464 0.0607
52.5200 17.5531 0.0461
52.5400 17.5597 0.0557
52.5600 17.5663 0.0628
52.5800 17.5729 0.0506
52.6000 17.5796 0.0574
52.6200 17.5863 0.0580
52.6400 17.5930 0.0503
52.6600 17.5997 0.0634
52.6800 17.6063 0.0537
52.7000 17.6130 0.0517
52.7200 17.6197 0.0704
52.7400 17.6263 0.0505
52.7600 17.6329 0.0551
52.7800 17.6396 0.0674
52.8000 17.6463 0.0508
52.8200 17.6530 0.0590
52.8400 17.6596 0.0643
52.8600 17.6663 0.0486
52.8800 17.6730 0.0658
52.9000 17.6797 0.0587
52.9200 17.6863 0.0424
52.9400 17.6929 0.0728
52.9600 17.6996 0.0600
52.9800 17.7063 0.0445
53.0000 17.7130 0.0688
53.0200 17.7197 0.0619
53.0400 17.7264 0.0493
53.0600 17.7331 0.0660
53.0800 17.7397 0.0565
53.1000 17.7463 0.0589
53.1200 17.7529 0.0666
53.1400 17.7596 0.0490
53.1600 17.7663 0.0653
53.1800 17.7730 0.0638
53.2000 17.7797 0.0432
53.2200 17.7864 0.0679
53.2400 17.7930 0.0646
53.2600 17.7997 0.0454
53.2800 17.8063 0.0684
53.3000 17.8129 0.0625
53.3200 17.8196 0.0508
53.3400 17.8262 0.0683
53.3600 17.8329 0.0572
53.3800 17.8396 0.0516
53.4000 17.8463 0.0740
53.4200 17.8530 0.0523
53.4400 17.8597 0.0448
53.4600 17.8663 0.0704
53.4800 17.8729 0.0621
53.5000 17.8795 0.0501
53.5200 17.8862 0.0701
53.5400 17.8930 0.0616
53.5600 17.8997 0.0501
53.5800 17.9063 0.0688
53.6000 17.9130 0.0636
53.6200 17.9197 0.0477
53.6400 17.9263 0.0664
53.6600 17.9329 0.0608
53.6800 17.9396 0.0492
53.7000 17.9463 0.0719
53.7200 17.9530 0.0546
53.7400 17.9597 0.0524
53.7600 17.9664 0.0703
53.7800 17.9730 0.0568
53.8000 17.9797 0.0550
53.8200 17.9863 0.0657
53.8400 17.9929 0.0609
53.8600 17.9995 0.0615
53.8800 18.0062 0.0558
53.9000 18.0130 0.0657
53.9200 18.0197 0.0632
53.9400 18.0264 0.0498
53.9600 18.0330 0.0644
53.9800 18.0397 0.0667
54.0000 18.0463 0.0572
54.0200 18.0529 0.0600
54.0400 18.0596 0.0621
54.0600 18.0663 0.0660
54.0800 18.0730 0.0628
54.1000 18.0797 0.0474
54.1200 18.0864 0.0704
54.1400 18.0930 0.0744
54.1600 18.0997 0.0442
54.1800 18.1063 0.0580
54.2000 18.1129 0.0765
54.2200 18.1195 0.0544
54.2400 18.1262 0.0625
54.2600 18.1330 0.0667
54.2800 18.1396 0.0555
54.3000 18.1463 0.0646
54.3200 18.1530 0.0564
54.3400 18.1597 0.0548
54.3600 18.1663 0.0746
54.3800 18.1729 0.0591
54.4000 18.1795 0.0512
54.4200 18.1862 0.0683
54.4400 18.1930 0.0670
54.4600 18.1997 0.0566
54.4800 18.2064 0.0675
54.5000 18.2131 0.0569
54.5200 18.2197 0.0613
54.5400 18.2263 0.0695
54.5600 18.2329 0.0596
54.5800 18.2396 0.0631
54.6000 18.2463 0.0666
54.6200 18.2530 0.0653
54.6400 18.2597 0.0564
54.6600 18.2664 0.0647
54.6800 18.2731 0.0694
54.7000 18.2797 0.0568
54.7200 18.2863 0.0609
54.7400 18.2929 0.0730
54.7600 18.2995 0.0620
54.7800 18.3062 0.0627
54.8000 18.3130 0.0651
54.8200 18.3196 0.0521
54.8400 18.3263 0.0667
54.8600 18.3330 0.0751
54.8800 18.3397 0.0475
54.9000 18.3463 0.0612
54.9200 18.3529 0.0784
54.9400 18.3595 0.0533
54.9600 18.3662 0.0709
54.9800 18.3729 0.0630
55.0000 18.3796 0.0535
55.0200 18.3863 0.0806
55.0400 18.3930 0.0585
55.0600 18.3997 0.0564
55.0800 18.4063 0.0844
55.1000 18.4129 0.0582
55.1200 18.4195 0.0525
55.1400 18.4263 0.0776
55.1600 18.4330 0.0661
55.1800 18.4397 0.0558
55.2000 18.4464 0.0699
55.2200 18.4531 0.0613
55.2400 18.4597 0.0695
55.2600 18.4664 0.0699
55.2800 18.4730 0.0562
55.3000 18.4796 0.0640
55.3200 18.4863 0.0723
55.3400 18.4930 0.0710
55.3600 18.4997 0.0575
55.3800 18.5063 0.0674
55.4000 18.5130 0.0693
55.4200 18.5197 0.0641
55.4400 18.5263 0.0604
55.4600 18.5329 0.0715
55.4800 18.5395 0.0679
55.5000 18.5462 0.0590
55.5200 18.5530 0.0619
55.5400 18.5597 0.0730
55.5600 18.5664 0.0676
55.5800 18.5730 0.0635
55.6000 18.5797 0.0587
55.6200 18.5863 0.0681
55.6400 18.5929 0.0694
55.6600 18.5995 0.0680
55.6800 18.6062 0.0661
55.7000 18.6129 0.0588
55.7200 18.6196 0.0759
55.7400 18.6263 0.0709
55.7600 18.6330 0.0583
55.7800 18.6397 0.0651
55.8000 18.6463 0.0687
55.8200 18.6529 0.0636
55.8400 18.6596 0.0701
55.8600 18.6662 0.0683
55.8800 18.6729 0.0676
55.9000 18.6797 0.0651
55.9200 18.6864 0.0637
55.9400 18.6931 0.0651
55.9600 18.6997 0.0758
55.9800 18.7064 0.0615
56.0000 18.7129 0.0592
56.0200 18.7196 0.0714
56.0400 18.7263 0.0688
56.0600 18.7330 0.0667
56.0800 18.7397 0.0599
56.1000 18.7464 0.0654
56.1200 18.7530 0.0716
56.1400 18.7597 0.0676
56.1600 18.7663 0.0622
56.1800 18.7729 0.0674
56.2000 18.7796 0.0702
56.2200 18.7863 0.0655
56.2400 18.7930 0.0672
56.2600 18.7997 0.0666
56.2800 18.8063 0.0684
56.3000 18.8130 0.0649
56.3200 18.8197 0.0599
56.3400 18.8263 0.0758
56.3600 18.8329 0.0653
56.3800 18.8395 0.0645
56.4000 18.8462 0.0717
56.4200 18.8529 0.0659
56.4400 18.8596 0.0716
56.4600 18.8663 0.0680
56.4800 18.8730 0.0649
56.5000 18.8797 0.0683
56.5200 18.8863 0.0693
56.5400 18.8929 0.0682
56.5600 18.8996 0.0734
56.5800 18.9062 0.0684
56.6000 18.9130 0.0681
56.6200 18.9197 0.0729
56.6400 18.9264 0.0665
56.6600 18.9331 0.0674
56.6800 18.9397 0.0739
56.7000 18.9463 0.0623
56.7200 18.9529 0.0770
56.7400 18.9596 0.0755
56.7600 18.9663 0.0612
56.7800 18.9730 0.0703
56.8000 18.9797 0.0767
56.8200 18.9863 0.0666
56.8400 18.9930 0.0680
56.8600 18.9997 0.0751
56.8800 19.0063 0.0664
56.9000 19.0129 0.0687
56.9200 19.0195 0.0763
56.9400 19.0262 0.0704
56.9600 19.0329 0.0701
56.9800 19.0396 0.0653
57.0000 19.0463 0.0693
57.0200 19.0530 0.0731
57.0400 19.0597 0.0685
57.0600 19.0663 0.0670
57.0800 19.0729 0.0708
57.1000 19.0795 0.0758
57.1200 19.0862 0.0632
57.1400 19.0929 0.0731
57.1600 19.0996 0.0735
57.1800 19.1063 0.0641
57.2000 19.1130 0.0733
57.2200 19.1197 0.0732
57.2400 19.1263 0.0680
57.2600 19.1329 0.0684
57.2800 19.1396 0.0748
57.3000 19.1463 0.0724
57.3200 19.1530 0.0703
57.3400 19.1597 0.0756
57.3600 19.1663 0.0675
57.3800 19.1730 0.0677
57.4000 19.1797 0.0742
57.4200 19.1864 0.0624
57.4400 19.1930 0.0715
57.4600 19.1996 0.0788
57.4800 19.2063 0.0683
57.5000 19.2130 0.0703
57.5200 19.2197 0.0780
57.5400 19.2264 0.0657
57.5600 19.2331 0.0741
57.5800 19.2397 0.0752
57.6000 19.2464 0.0662
57.6200 19.2530 0.0680
57.6400 19.2596 0.0728
57.6600 19.2662 0.0699
57.6800 19.2729 0.0709
57.7000 19.2796 0.0792
57.7200 19.2863 0.0672
57.7400 19.2930 0.0720
57.7600 19.2997 0.0759
57.7800 19.3063 0.0653
57.8000 19.3129 0.0735
57.8200 19.3195 0.0773
57.8400 19.3262 0.0631
57.8600 19.3329 0.0766
57.8800 19.3396 0.0758
57.9000 19.3463 0.0672
57.9200 19.3530 0.0751
57.9400 19.3596 0.0791
57.9600 19.3663 0.0635
57.9800 19.3730 0.0729
58.0000 19.3796 0.0776
58.0200 19.3862 0.0692
58.0400 19.3929 0.0767
58.0600 19.3996 0.0777
58.0800 19.4063 0.0658
58.1000 19.4130 0.0703
58.1200 19.4197 0.0786
58.1400 19.4264 0.0692
58.1600 19.4330 0.0770
58.1800 19.4396 0.0818
58.2000 19.4462 0.0674
58.2200 19.4529 0.0732
58.2400 19.4597 0.0812
58.2600 19.4664 0.0697
58.2800 19.4730 0.0730
58.3000 19.4797 0.0771
58.3200 19.4864 0.0693
58.3400 19.4930 0.0681
58.3600 19.4996 0.0782
58.3800 19.5062 0.0779
58.4000 19.5129 0.0724
58.4200 19.5196 0.0670
58.4400 19.5263 0.0738
58.4600 19.5330 0.0768
58.4800 19.5397 0.0666
58.5000 19.5463 0.0722
58.5200 19.5529 0.0752
58.5400 19.5595 0.0636
58.5600 19.5662 0.0800
58.5800 19.5729 0.0792
58.6000 19.5796 0.0628
58.6200 19.5863 0.0796
58.6400 19.5930 0.0702
58.6600 19.5997 0.0690
58.6800 19.6063 0.0802
58.7000 19.6129 0.0724
58.7200 19.6196 0.0634
58.7400 19.6262 0.0827
58.7600 19.6329 0.0787
58.7800 19.6397 0.0662
58.8000 19.6464 0.0713
58.8200 19.6530 0.0823
58.8400 19.6597 0.0703
58.8600 19.6664 0.0680
58.8800 19.6730 0.0874
58.9000 19.6796 0.0751
58.9200 19.6863 0.0610
58.9400 19.6930 0.0891
58.9600 19.6997 0.0741
58.9800 19.7064 0.0607
59.0000 19.7130 0.0917
59.0200 19.7197 0.0694
59.0400 19.7264 0.0637
59.0600 19.7330 0.0880
59.0800 19.7396 0.0713
59.1000 19.7462 0.0684
59.1200 19.7529 0.0875
59.1400 19.7596 0.0657
59.1600 19.7663 0.0715
59.1800 19.7730 0.0862
59.2000 19.7797 0.0709
59.2200 19.7863 0.0761
59.2400 19.7929 0.0739
59.2600 19.7995 0.0693
59.2800 19.8062 0.0876
59.3000 19.8129 0.0709
59.3200 19.8196 0.0701
59.3400 19.8263 0.0809
59.3600 19.8330 0.0668
59.3800 19.8397 0.0786
59.4000 19.8463 0.0804
59.4200 19.8530 0.0652
59.4400 19.8596 0.0824
59.4600 19.8663 0.0782
59.4800 19.8729 0.0590
59.5000 19.8796 0.0866
59.5200 19.8863 0.0787
59.5400 19.8930 0.0652
59.5600 19.8997 0.0773
59.5620 19.9003 0.0751
