Raw Data
Time Displacement Force
(s) (mm) (N)
0.0000 0.0001 -0.3566
0.0200 0.0001 -0.3494
0.0400 0.0009 -0.3062
0.0600 0.0041 -0.2802
0.0800 0.0097 -0.3096
0.1000 0.0155 -0.3026
0.1200 0.0214 -0.2651
0.1400 0.0280 -0.2516
0.1600 0.0353 -0.2413
0.1800 0.0427 -0.2121
0.2000 0.0498 -0.1943
0.2200 0.0567 -0.1868
0.2400 0.0634 -0.1567
0.2600 0.0701 -0.1385
0.2800 0.0767 -0.1298
0.3000 0.0834 -0.1103
0.3200 0.0902 -0.1163
0.3400 0.0969 -0.1161
0.3600 0.1036 -0.1008
0.3800 0.1102 -0.1144
0.4000 0.1169 -0.1199
0.4200 0.1235 -0.1018
0.4400 0.1302 -0.1040
0.4600 0.1369 -0.1229
0.4800 0.1436 -0.1046
0.5000 0.1503 -0.1004
0.5200 0.1570 -0.1138
0.5400 0.1636 -0.1106
0.5600 0.1702 -0.0969
0.5800 0.1768 -0.1023
0.6000 0.1835 -0.1085
0.6200 0.1902 -0.0991
0.6400 0.1969 -0.0976
0.6600 0.2036 -0.1033
0.6800 0.2103 -0.0948
0.7000 0.2170 -0.1025
0.7200 0.2236 -0.1001
0.7400 0.2302 -0.0943
0.7600 0.2368 -0.0928
0.7800 0.2435 -0.0925
0.8000 0.2502 -0.0901
0.8200 0.2569 -0.0961
0.8400 0.2636 -0.0841
0.8600 0.2702 -0.0863
0.8800 0.2769 -0.0987
0.9000 0.2836 -0.0803
0.9200 0.2901 -0.0797
0.9400 0.2968 -0.0956
0.9600 0.3035 -0.0791
0.9800 0.3102 -0.0794
1.0000 0.3169 -0.0912
1.0200 0.3235 -0.0752
1.0400 0.3302 -0.0813
1.0600 0.3369 -0.0854
1.0800 0.3435 -0.0766
1.1000 0.3501 -0.0768
1.1200 0.3568 -0.0840
1.1400 0.3635 -0.0742
1.1600 0.3702 -0.0803
1.1800 0.3769 -0.0807
1.2000 0.3836 -0.0762
1.2200 0.3903 -0.0756
1.2400 0.3970 -0.0849
1.2600 0.4036 -0.0768
1.2800 0.4102 -0.0715
1.3000 0.4169 -0.0816
1.3200 0.4236 -0.0793
1.3400 0.4303 -0.0757
1.3600 0.4369 -0.0866
1.3800 0.4436 -0.0695
1.4000 0.4503 -0.0781
1.4200 0.4570 -0.0900
1.4400 0.4636 -0.0738
1.4600 0.4702 -0.0808
1.4800 0.4768 -0.0868
1.5000 0.4835 -0.0728
1.5200 0.4902 -0.0819
1.5400 0.4968 -0.0837
1.5600 0.5035 -0.0784
1.5800 0.5102 -0.0879
1.6000 0.5169 -0.0852
1.6200 0.5235 -0.0822
1.6400 0.5301 -0.0859
1.6600 0.5368 -0.0899
1.6800 0.5435 -0.0802
1.7000 0.5502 -0.0839
1.7200 0.5569 -0.0908
1.7400 0.5636 -0.0860
1.7600 0.5702 -0.0849
1.7800 0.5769 -0.0921
1.8000 0.5836 -0.0882
1.8200 0.5902 -0.0875
1.8400 0.5969 -0.0943
1.8600 0.6035 -0.0910
1.8800 0.6102 -0.0865
1.9000 0.6169 -0.0984
1.9200 0.6236 -0.0867
1.9400 0.6303 -0.0885
1.9600 0.6370 -0.0999
1.9800 0.6436 -0.0988
2.0000 0.6502 -0.0866
2.0200 0.6568 -0.0956
2.0400 0.6635 -0.0973
2.0600 0.6702 -0.0897
2.0800 0.6770 -0.1010
2.1000 0.6836 -0.1009
2.1200 0.6903 -0.0936
2.1400 0.6969 -0.0960
2.1600 0.7036 -0.0999
2.1800 0.7102 -0.0922
2.2000 0.7168 -0.1011
2.2200 0.7235 -0.0993
2.2400 0.7302 -0.0941
2.2600 0.7369 -0.1054
2.2800 0.7436 -0.1020
2.3000 0.7502 -0.0911
2.3200 0.7569 -0.1082
2.3400 0.7636 -0.1015
2.3600 0.7702 -0.0964
2.3800 0.7768 -0.1022
2.4000 0.7835 -0.1010
2.4200 0.7902 -0.0942
2.4400 0.7969 -0.1079
2.4600 0.8036 -0.0998
2.4800 0.8103 -0.0952
2.5000 0.8170 -0.1049
2.5200 0.8236 -0.1003
2.5400 0.8302 -0.1005
2.5600 0.8368 -0.1028
2.5800 0.8435 -0.0977
2.6000 0.8502 -0.1032
2.6200 0.8570 -0.1051
2.6400 0.8637 -0.1003
2.6600 0.8703 -0.0981
2.6800 0.8770 -0.1057
2.7000 0.8836 -0.1063
2.7200 0.8902 -0.0998
2.7400 0.8968 -0.0991
2.7600 0.9035 -0.0985
2.7800 0.9102 -0.1048
2.8000 0.9169 -0.1032
2.8200 0.9236 -0.1030
2.8400 0.9303 -0.0968
2.8600 0.9370 -0.1041
2.8800 0.9436 -0.1003
2.9000 0.9502 -0.1009
2.9200 0.9568 -0.1053
2.9400 0.9635 -0.1002
2.9600 0.9702 -0.0984
2.9800 0.9769 -0.1080
3.0000 0.9836 -0.0975
3.0200 0.9902 -0.1023
3.0400 0.9969 -0.1068
3.0600 1.0036 -0.0997
3.0800 1.0102 -0.1079
3.1000 1.0168 -0.1017
3.1200 1.0234 -0.0940
3.1400 1.0302 -0.1142
3.1600 1.0369 -0.0994
3.1800 1.0436 -0.1004
3.2000 1.0502 -0.1088
3.2200 1.0569 -0.0983
3.2400 1.0636 -0.1072
3.2600 1.0702 -0.1074
3.2800 1.0768 -0.0929
3.3000 1.0835 -0.1026
3.3200 1.0902 -0.1101
3.3400 1.0969 -0.0960
3.3600 1.1036 -0.1046
3.3800 1.1103 -0.1074
3.4000 1.1170 -0.1031
3.4200 1.1237 -0.1078
3.4400 1.1303 -0.1104
3.4600 1.1369 -0.0994
3.4800 1.1435 -0.1129
3.5000 1.1502 -0.1025
3.5200 1.1569 -0.1009
3.5400 1.1636 -0.1115
3.5600 1.1703 -0.1089
3.5800 1.1770 -0.1012
3.6000 1.1836 -0.1143
3.6200 1.1902 -0.1076
3.6400 1.1968 -0.1007
3.6600 1.2035 -0.1143
3.6800 1.2102 -0.1094
3.7000 1.2169 -0.0997
3.7200 1.2236 -0.1130
3.7400 1.2303 -0.1079
3.7600 1.2369 -0.1009
3.7800 1.2436 -0.1168
3.8000 1.2502 -0.1118
3.8200 1.2568 -0.1093
3.8400 1.2635 -0.1104
3.8600 1.2702 -0.1088
3.8800 1.2769 -0.1139
3.9000 1.2836 -0.1099
3.9200 1.2902 -0.1043
3.9400 1.2969 -0.1134
3.9600 1.3036 -0.1092
3.9800 1.3102 -0.1126
4.0000 1.3168 -0.1137
4.0200 1.3235 -0.1140
4.0400 1.3302 -0.1062
4.0600 1.3369 -0.1146
4.0800 1.3436 -0.1110
4.1000 1.3503 -0.1171
4.1200 1.3570 -0.1107
4.1400 1.3636 -0.1060
4.1600 1.3702 -0.1182
4.1800 1.3769 -0.1175
4.2000 1.3835 -0.1092
4.2200 1.3902 -0.1186
4.2400 1.3969 -0.1132
4.2600 1.4036 -0.1070
4.2800 1.4103 -0.1215
4.3000 1.4170 -0.1111
4.3200 1.4236 -0.1138
4.3400 1.4303 -0.1216
4.3600 1.4369 -0.1053
4.3800 1.4435 -0.1115
4.4000 1.4502 -0.1235
4.4200 1.4569 -0.1127
4.4400 1.4636 -0.1138
4.4600 1.4702 -0.1165
4.4800 1.4769 -0.1124
4.5000 1.4836 -0.1112
4.5200 1.4902 -0.1196
4.5400 1.4968 -0.1117
4.5600 1.5035 -0.1091
4.5800 1.5102 -0.1107
4.6000 1.5169 -0.1095
4.6200 1.5236 -0.1109
4.6400 1.5303 -0.1204
4.6600 1.5369 -0.1094
4.6800 1.5436 -0.1141
4.7000 1.5502 -0.1211
4.7200 1.5568 -0.1067
4.7400 1.5635 -0.1072
4.7600 1.5702 -0.1203
4.7800 1.5769 -0.1031
4.8000 1.5836 -0.1130
4.8200 1.5903 -0.1214
4.8400 1.5970 -0.1014
4.8600 1.6036 -0.1095
4.8800 1.6103 -0.1240
4.9000 1.6169 -0.1062
4.9200 1.6235 -0.1105
4.9400 1.6302 -0.1161
4.9600 1.6369 -0.1030
4.9800 1.6436 -0.1167
5.0000 1.6503 -0.1172
5.0200 1.6570 -0.1047
5.0400 1.6636 -0.1247
5.0600 1.6703 -0.1212
5.0800 1.6769 -0.0998
5.1000 1.6835 -0.1228
5.1200 1.6902 -0.1176
5.1400 1.6969 -0.1044
5.1600 1.7036 -0.1136
5.1800 1.7103 -0.1192
5.2000 1.7170 -0.1122
5.2200 1.7237 -0.1222
5.2400 1.7303 -0.1109
5.2600 1.7368 -0.1156
5.2800 1.7435 -0.1194
5.3000 1.7501 -0.1146
5.3200 1.7569 -0.1163
5.3400 1.7636 -0.1212
5.3600 1.7702 -0.1173
5.3800 1.7769 -0.1151
5.4000 1.7836 -0.1168
5.4200 1.7902 -0.1235
5.4400 1.7968 -0.1191
5.4600 1.8035 -0.1136
5.4800 1.8102 -0.1198
5.5000 1.8169 -0.1232
5.5200 1.8236 -0.1190
5.5400 1.8303 -0.1148
5.5600 1.8370 -0.1239
5.5800 1.8437 -0.1161
5.6000 1.8503 -0.1177
5.6200 1.8569 -0.1213
5.6400 1.8635 -0.1159
5.6600 1.8702 -0.1172
5.6800 1.8769 -0.1292
5.7000 1.8836 -0.1147
5.7200 1.8903 -0.1199
5.7400 1.8970 -0.1232
5.7600 1.9036 -0.1139
5.7800 1.9102 -0.1193
5.8000 1.9168 -0.1219
5.8200 1.9235 -0.1118
5.8400 1.9302 -0.1250
5.8600 1.9369 -0.1176
5.8800 1.9436 -0.1135
5.9000 1.9502 -0.1222
5.9200 1.9569 -0.1218
5.9400 1.9636 -0.1120
5.9600 1.9702 -0.1217
5.9800 1.9768 -0.1246
6.0000 1.9835 -0.1143
6.0200 1.9902 -0.1224
6.0400 1.9969 -0.1252
6.0600 2.0036 -0.1163
6.0800 2.0103 -0.1205
6.1000 2.0169 -0.1232
6.1200 2.0236 -0.1190
6.1400 2.0303 -0.1212
6.1600 2.0369 -0.1193
6.1800 2.0435 -0.1224
6.2000 2.0502 -0.1171
6.2200 2.0569 -0.1269
6.2400 2.0636 -0.1204
6.2600 2.0703 -0.1195
6.2800 2.0770 -0.1221
6.3000 2.0836 -0.1184
6.3200 2.0903 -0.1254
6.3400 2.0969 -0.1261
6.3600 2.1035 -0.1093
6.3800 2.1102 -0.1190
6.4000 2.1169 -0.1310
6.4200 2.1236 -0.1247
6.4400 2.1302 -0.1196
6.4600 2.1369 -0.1290
6.4800 2.1436 -0.1162
6.5000 2.1503 -0.1232
6.5200 2.1569 -0.1307
6.5400 2.1636 -0.1167
6.5600 2.1702 -0.1259
6.5800 2.1769 -0.1240
6.6000 2.1836 -0.1132
6.6200 2.1903 -0.1279
6.6400 2.1970 -0.1326
6.6600 2.2037 -0.1139
6.6800 2.2103 -0.1285
6.7000 2.2169 -0.1281
6.7200 2.2235 -0.1188
6.7400 2.2301 -0.1220
6.7600 2.2368 -0.1293
6.7800 2.2436 -0.1206
6.8000 2.2503 -0.1233
6.8200 2.2569 -0.1269
6.8400 2.2636 -0.1267
6.8600 2.2702 -0.1259
6.8800 2.2769 -0.1254
6.9000 2.2835 -0.1246
6.9200 2.2902 -0.1272
6.9400 2.2969 -0.1229
6.9600 2.3036 -0.1245
6.9800 2.3103 -0.1245
7.0000 2.3169 -0.1232
7.0200 2.3236 -0.1229
7.0400 2.3303 -0.1297
7.0600 2.3369 -0.1246
7.0800 2.3435 -0.1241
7.1000 2.3502 -0.1257
7.1200 2.3569 -0.1279
7.1400 2.3636 -0.1249
7.1600 2.3703 -0.1252
7.1800 2.3770 -0.1298
7.2000 2.3837 -0.1198
7.2200 2.3903 -0.1291
7.2400 2.3969 -0.1296
7.2600 2.4035 -0.1240
7.2800 2.4101 -0.1256
7.3000 2.4169 -0.1323
7.3200 2.4236 -0.1255
7.3400 2.4303 -0.1282
7.3600 2.4370 -0.1282
7.3800 2.4436 -0.1234
7.4000 2.4503 -0.1278
7.4200 2.4569 -0.1281
7.4400 2.4635 -0.1271
7.4600 2.4701 -0.1332
7.4800 2.4768 -0.1197
7.5000 2.4835 -0.1249
7.5200 2.4902 -0.1343
7.5400 2.4969 -0.1285
7.5600 2.5036 -0.1251
7.5800 2.5102 -0.1345
7.6000 2.5169 -0.1236
7.6200 2.5235 -0.1248
7.6400 2.5302 -0.1305
7.6600 2.5369 -0.1239
7.6800 2.5436 -0.1299
7.7000 2.5503 -0.1366
7.7200 2.5570 -0.1259
7.7400 2.5637 -0.1213
7.7600 2.5703 -0.1356
7.7800 2.5769 -0.1319
7.8000 2.5835 -0.1235
7.8200 2.5902 -0.1258
7.8400 2.5969 -0.1363
7.8600 2.6036 -0.1264
7.8800 2.6103 -0.1279
7.9000 2.6170 -0.1387
7.9200 2.6236 -0.1279
7.9400 2.6303 -0.1239
7.9600 2.6369 -0.1399
7.9800 2.6435 -0.1268
8.0000 2.6502 -0.1284
8.0200 2.6569 -0.1324
8.0400 2.6635 -0.1355
8.0600 2.6702 -0.1229
8.0800 2.6769 -0.1326
8.1000 2.6836 -0.1375
8.1200 2.6903 -0.1325
8.1400 2.6969 -0.1310
8.1600 2.7035 -0.1360
8.1800 2.7101 -0.1271
8.2000 2.7168 -0.1327
8.2200 2.7236 -0.1345
8.2400 2.7303 -0.1285
8.2600 2.7370 -0.1377
8.2800 2.7437 -0.1312
8.3000 2.7503 -0.1314
8.3200 2.7569 -0.1393
8.3400 2.7635 -0.1364
8.3600 2.7702 -0.1243
8.3800 2.7768 -0.1406
8.4000 2.7836 -0.1365
8.4200 2.7903 -0.1259
8.4400 2.7970 -0.1401
8.4600 2.8036 -0.1373
8.4800 2.8103 -0.1247
8.5000 2.8169 -0.1400
8.5200 2.8235 -0.1348
8.5400 2.8302 -0.1334
8.5600 2.8369 -0.1406
8.5800 2.8436 -0.1322
8.6000 2.8503 -0.1309
8.6200 2.8570 -0.1452
8.6400 2.8637 -0.1309
8.6600 2.8703 -0.1326
8.6800 2.8769 -0.1405
8.7000 2.8835 -0.1301
8.7200 2.8902 -0.1330
8.7400 2.8968 -0.1380
8.7600 2.9036 -0.1360
8.7800 2.9103 -0.1424
8.8000 2.9169 -0.1310
8.8200 2.9236 -0.1332
8.8400 2.9303 -0.1401
8.8600 2.9369 -0.1370
8.8800 2.9434 -0.1303
8.9000 2.9501 -0.1315
8.9200 2.9568 -0.1390
8.9400 2.9635 -0.1363
8.9600 2.9702 -0.1384
8.9800 2.9769 -0.1343
9.0000 2.9836 -0.1397
9.0200 2.9903 -0.1363
9.0400 2.9969 -0.1396
9.0600 3.0035 -0.1417
9.0800 3.0102 -0.1295
9.1000 3.0169 -0.1399
9.1200 3.0236 -0.1413
9.1400 3.0303 -0.1306
9.1600 3.0369 -0.1430
9.1800 3.0436 -0.1447
9.2000 3.0503 -0.1332
9.2200 3.0570 -0.1386
9.2400 3.0635 -0.1503
9.2600 3.0702 -0.1346
9.2800 3.0769 -0.1352
9.3000 3.0836 -0.1453
9.3200 3.0903 -0.1299
9.3400 3.0970 -0.1363
9.3600 3.1037 -0.1505
9.3800 3.1103 -0.1369
9.4000 3.1169 -0.1362
9.4200 3.1235 -0.1455
9.4400 3.1302 -0.1414
9.4600 3.1369 -0.1354
9.4800 3.1436 -0.1438
9.5000 3.1503 -0.1354
9.5200 3.1569 -0.1330
9.5400 3.1636 -0.1526
9.5600 3.1703 -0.1322
9.5800 3.1769 -0.1325
9.6000 3.1835 -0.1533
9.6200 3.1902 -0.1315
9.6400 3.1968 -0.1316
9.6600 3.2035 -0.1531
9.6800 3.2102 -0.1281
9.7000 3.2169 -0.1376
9.7200 3.2235 -0.1466
9.7400 3.2302 -0.1293
9.7600 3.2369 -0.1442
9.7800 3.2435 -0.1468
9.8000 3.2502 -0.1279
9.8200 3.2569 -0.1471
9.8400 3.2636 -0.1425
9.8600 3.2703 -0.1358
9.8800 3.2770 -0.1475
9.9000 3.2837 -0.1368
9.9200 3.2903 -0.1349
9.9400 3.2969 -0.1437
9.9600 3.3035 -0.1419
9.9800 3.3102 -0.1345
10.0000 3.3169 -0.1463
10.0200 3.3236 -0.1383
10.0400 3.3303 -0.1348
10.0600 3.3370 -0.1490
10.0800 3.3436 -0.1373
10.1000 3.3503 -0.1371
10.1200 3.3569 -0.1487
10.1400 3.3635 -0.1288
10.1600 3.3702 -0.1390
10.1800 3.3768 -0.1449
10.2000 3.3835 -0.1314
10.2200 3.3902 -0.1443
10.2400 3.3969 -0.1449
10.2600 3.4036 -0.1284
10.2800 3.4103 -0.1487
10.3000 3.4169 -0.1404
10.3200 3.4235 -0.1291
10.3400 3.4301 -0.1483
10.3600 3.4368 -0.1405
10.3800 3.4435 -0.1351
10.4000 3.4502 -0.1490
10.4200 3.4569 -0.1397
10.4400 3.4636 -0.1363
10.4600 3.4702 -0.1418
10.4800 3.4769 -0.1361
10.5000 3.4835 -0.1393
10.5200 3.4902 -0.1414
10.5400 3.4969 -0.1345
10.5600 3.5036 -0.1441
10.5800 3.5103 -0.1479
10.6000 3.5169 -0.1387
10.6200 3.5236 -0.1458
10.6400 3.5303 -0.1429
10.6600 3.5369 -0.1386
10.6800 3.5435 -0.1424
10.7000 3.5502 -0.1400
10.7200 3.5568 -0.1350
10.7400 3.5635 -0.1465
10.7600 3.5702 -0.1391
10.7800 3.5769 -0.1366
10.8000 3.5836 -0.1441
10.8200 3.5903 -0.1446
10.8400 3.5969 -0.1417
10.8600 3.6036 -0.1440
10.8800 3.6102 -0.1407
10.9000 3.6169 -0.1453
10.9200 3.6236 -0.1402
10.9400 3.6303 -0.1400
10.9600 3.6370 -0.1367
10.9800 3.6436 -0.1473
11.0000 3.6503 -0.1416
11.0200 3.6569 -0.1402
11.0400 3.6635 -0.1491
11.0600 3.6701 -0.1410
11.0800 3.6768 -0.1335
11.1000 3.6835 -0.1414
11.1200 3.6902 -0.1501
11.1400 3.6969 -0.1391
11.1600 3.7036 -0.1401
11.1800 3.7102 -0.1428
11.2000 3.7169 -0.1454
11.2200 3.7235 -0.1481
11.2400 3.7302 -0.1421
11.2600 3.7368 -0.1350
11.2800 3.7435 -0.1544
11.3000 3.7502 -0.1469
11.3200 3.7569 -0.1327
11.3400 3.7637 -0.1429
11.3600 3.7704 -0.1550
11.3800 3.7770 -0.1394
11.4000 3.7836 -0.1456
11.4200 3.7902 -0.1445
11.4400 3.7969 -0.1379
11.4600 3.8036 -0.1503
11.4800 3.8103 -0.1501
11.5000 3.8170 -0.1310
11.5200 3.8236 -0.1494
11.5400 3.8303 -0.1527
11.5600 3.8370 -0.1317
11.5800 3.8436 -0.1399
11.6000 3.8502 -0.1494
11.6200 3.8568 -0.1485
11.6400 3.8635 -0.1446
11.6600 3.8702 -0.1405
11.6800 3.8769 -0.1435
11.7000 3.8836 -0.1477
11.7200 3.8903 -0.1471
11.7400 3.8969 -0.1466
11.7600 3.9035 -0.1427
11.7800 3.9101 -0.1437
11.8000 3.9168 -0.1429
11.8200 3.9235 -0.1422
11.8400 3.9302 -0.1505
11.8600 3.9369 -0.1465
11.8800 3.9436 -0.1384
11.9000 3.9503 -0.1551
11.9200 3.9569 -0.1442
11.9400 3.9635 -0.1374
11.9600 3.9702 -0.1487
11.9800 3.9768 -0.1452
12.0000 3.9836 -0.1375
12.0200 3.9903 -0.1542
12.0400 3.9970 -0.1431
12.0600 4.0036 -0.1378
12.0800 4.0103 -0.1535
12.1000 4.0169 -0.1490
12.1200 4.0235 -0.1398
12.1400 4.0302 -0.1519
12.1600 4.0369 -0.1385
12.1800 4.0436 -0.1377
12.2000 4.0503 -0.1555
12.2200 4.0570 -0.1430
12.2400 4.0636 -0.1404
12.2600 4.0703 -0.1570
12.2800 4.0770 -0.1457
12.3000 4.0836 -0.1351
12.3200 4.0902 -0.1580
12.3400 4.0968 -0.1409
12.3600 4.1035 -0.1355
12.3800 4.1102 -0.1549
12.4000 4.1169 -0.1423
12.4200 4.1236 -0.1376
12.4400 4.1303 -0.1623
12.4600 4.1370 -0.1387
12.4800 4.1436 -0.1391
12.5000 4.1501 -0.1586
12.5200 4.1568 -0.1408
12.5400 4.1635 -0.1388
12.5600 4.1702 -0.1605
12.5800 4.1769 -0.1362
12.6000 4.1836 -0.1423
12.6200 4.1903 -0.1579
12.6400 4.1969 -0.1450
12.6600 4.2036 -0.1464
12.6800 4.2102 -0.1521
12.7000 4.2169 -0.1409
12.7200 4.2235 -0.1496
12.7400 4.2302 -0.1540
12.7600 4.2369 -0.1418
12.7800 4.2436 -0.1469
12.8000 4.2503 -0.1509
12.8200 4.2570 -0.1454
12.8400 4.2636 -0.1471
12.8600 4.2702 -0.1492
12.8800 4.2768 -0.1467
12.9000 4.2835 -0.1432
12.9200 4.2902 -0.1485
12.9400 4.2969 -0.1561
12.9600 4.3036 -0.1442
12.9800 4.3103 -0.1493
13.0000 4.3170 -0.1521
13.0200 4.3236 -0.1412
13.0400 4.3302 -0.1523
13.0600 4.3369 -0.1535
13.0800 4.3436 -0.1372
13.1000 4.3503 -0.1576
13.1200 4.3569 -0.1546
13.1400 4.3636 -0.1377
13.1600 4.3703 -0.1553
13.1800 4.3770 -0.1546
13.2000 4.3836 -0.1377
13.2200 4.3902 -0.1507
13.2400 4.3968 -0.1470
13.2600 4.4035 -0.1433
13.2800 4.4102 -0.1572
13.3000 4.4169 -0.1464
13.3200 4.4236 -0.1426
13.3400 4.4303 -0.1580
13.3600 4.4370 -0.1484
13.3800 4.4436 -0.1432
13.4000 4.4502 -0.1545
13.4200 4.4568 -0.1469
13.4400 4.4635 -0.1420
13.4600 4.4702 -0.1549
13.4800 4.4770 -0.1491
13.5000 4.4836 -0.1448
13.5200 4.4903 -0.1546
13.5400 4.4970 -0.1475
13.5600 4.5036 -0.1452
13.5800 4.5102 -0.1488
13.6000 4.5169 -0.1521
13.6200 4.5236 -0.1493
13.6400 4.5303 -0.1479
13.6600 4.5369 -0.1503
13.6800 4.5436 -0.1507
13.7000 4.5502 -0.1443
13.7200 4.5568 -0.1569
13.7400 4.5635 -0.1528
13.7600 4.5701 -0.1427
13.7800 4.5768 -0.1504
13.8000 4.5835 -0.1491
13.8200 4.5903 -0.1442
13.8400 4.5970 -0.1572
13.8600 4.6036 -0.1450
13.8800 4.6103 -0.1449
13.9000 4.6170 -0.1602
13.9200 4.6236 -0.1444
13.9400 4.6302 -0.1472
13.9600 4.6368 -0.1589
13.9800 4.6435 -0.1419
14.0000 4.6502 -0.1529
14.0200 4.6569 -0.1589
14.0400 4.6636 -0.1382
14.0600 4.6703 -0.1549
14.0800 4.6769 -0.1581
14.1000 4.6836 -0.1404
14.1200 4.6902 -0.1519
14.1400 4.6968 -0.1601
14.1600 4.7035 -0.1395
14.1800 4.7102 -0.1526
14.2000 4.7169 -0.1614
14.2200 4.7236 -0.1413
14.2400 4.7303 -0.1472
14.2600 4.7370 -0.1575
14.2800 4.7436 -0.1419
14.3000 4.7502 -0.1578
14.3200 4.7568 -0.1585
14.3400 4.7635 -0.1458
14.3600 4.7702 -0.1539
14.3800 4.7769 -0.1558
14.4000 4.7836 -0.1475
14.4200 4.7903 -0.1557
14.4400 4.7970 -0.1577
14.4600 4.8036 -0.1417
14.4800 4.8102 -0.1569
14.5000 4.8168 -0.1555
14.5200 4.8234 -0.1442
14.5400 4.8301 -0.1605
14.5600 4.8368 -0.1548
14.5800 4.8435 -0.1427
14.6000 4.8503 -0.1572
14.6200 4.8570 -0.1545
14.6400 4.8636 -0.1508
14.6600 4.8702 -0.1459
14.6800 4.8768 -0.1548
14.7000 4.8835 -0.1494
14.7200 4.8902 -0.1537
14.7400 4.8969 -0.1581
14.7600 4.9036 -0.1528
14.7800 4.9102 -0.1533
14.8000 4.9169 -0.1583
14.8200 4.9236 -0.1486
14.8400 4.9302 -0.1545
14.8600 4.9368 -0.1535
14.8800 4.9435 -0.1473
14.9000 4.9502 -0.1536
14.9200 4.9569 -0.1599
14.9400 4.9636 -0.1465
14.9600 4.9703 -0.1545
14.9800 4.9770 -0.1646
15.0000 4.9836 -0.1499
15.0200 4.9902 -0.1515
15.0400 4.9968 -0.1554
15.0600 5.0035 -0.1544
15.0800 5.0102 -0.1555
15.1000 5.0169 -0.1510
15.1200 5.0236 -0.1558
15.1400 5.0303 -0.1552
15.1600 5.0370 -0.1504
15.1800 5.0436 -0.1637
15.2000 5.0502 -0.1548
15.2200 5.0568 -0.1507
15.2400 5.0635 -0.1626
15.2600 5.0702 -0.1568
15.2800 5.0769 -0.1506
15.3000 5.0836 -0.1629
15.3200 5.0902 -0.1473
15.3400 5.0969 -0.1571
15.3600 5.1035 -0.1651
15.3800 5.1101 -0.1490
15.4000 5.1168 -0.1591
15.4200 5.1235 -0.1611
15.4400 5.1302 -0.1468
15.4600 5.1369 -0.1668
15.4800 5.1436 -0.1610
15.5000 5.1503 -0.1427
15.5200 5.1569 -0.1629
15.5400 5.1636 -0.1670
15.5600 5.1702 -0.1491
15.5800 5.1768 -0.1610
15.6000 5.1835 -0.1594
15.6200 5.1902 -0.1520
15.6400 5.1970 -0.1643
15.6600 5.2036 -0.1587
15.6800 5.2103 -0.1520
15.7000 5.2170 -0.1612
15.7200 5.2237 -0.1594
15.7400 5.2303 -0.1529
15.7600 5.2369 -0.1682
15.7800 5.2436 -0.1612
15.8000 5.2503 -0.1564
15.8200 5.2570 -0.1648
15.8400 5.2636 -0.1600
15.8600 5.2703 -0.1541
15.8800 5.2770 -0.1673
15.9000 5.2836 -0.1548
15.9200 5.2902 -0.1512
15.9400 5.2968 -0.1648
15.9600 5.3035 -0.1606
15.9800 5.3102 -0.1553
16.0000 5.3169 -0.1603
16.0200 5.3236 -0.1590
16.0400 5.3303 -0.1629
16.0600 5.3369 -0.1583
16.0800 5.3436 -0.1638
16.1000 5.3502 -0.1571
16.1200 5.3568 -0.1534
16.1400 5.3634 -0.1647
16.1600 5.3702 -0.1652
16.1800 5.3769 -0.1563
16.2000 5.3836 -0.1602
16.2200 5.3903 -0.1618
16.2400 5.3970 -0.1574
16.2600 5.4036 -0.1690
16.2800 5.4103 -0.1587
16.3000 5.4169 -0.1540
16.3200 5.4235 -0.1636
16.3400 5.4302 -0.1588
16.3600 5.4369 -0.1611
16.3800 5.4436 -0.1678
16.4000 5.4503 -0.1535
16.4200 5.4570 -0.1635
16.4400 5.4637 -0.1718
16.4600 5.4702 -0.1553
16.4800 5.4768 -0.1574
16.5000 5.4835 -0.1651
16.5200 5.4902 -0.1517
16.5400 5.4969 -0.1637
16.5600 5.5036 -0.1648
16.5800 5.5103 -0.1542
16.6000 5.5169 -0.1612
16.6200 5.5236 -0.1710
16.6400 5.5302 -0.1566
16.6600 5.5368 -0.1577
16.6800 5.5435 -0.1646
16.7000 5.5502 -0.1582
16.7200 5.5569 -0.1575
16.7400 5.5636 -0.1652
16.7600 5.5702 -0.1591
16.7800 5.5769 -0.1550
16.8000 5.5836 -0.1667
16.8200 5.5902 -0.1601
16.8400 5.5968 -0.1589
16.8600 5.6035 -0.1655
16.8800 5.6102 -0.1583
16.9000 5.6169 -0.1513
16.9200 5.6235 -0.1682
16.9400 5.6302 -0.1549
16.9600 5.6369 -0.1517
16.9800 5.6436 -0.1672
17.0000 5.6502 -0.1600
17.0200 5.6569 -0.1528
17.0400 5.6635 -0.1685
17.0600 5.6703 -0.1572
17.0800 5.6770 -0.1551
17.1000 5.6837 -0.1683
17.1200 5.6903 -0.1603
17.1400 5.6970 -0.1471
17.1600 5.7036 -0.1682
17.1800 5.7102 -0.1602
17.2000 5.7169 -0.1558
17.2200 5.7235 -0.1664
17.2400 5.7302 -0.1617
17.2600 5.7370 -0.1534
17.2800 5.7436 -0.1670
17.3000 5.7503 -0.1620
17.3200 5.7570 -0.1511
17.3400 5.7636 -0.1653
17.3600 5.7703 -0.1607
17.3800 5.7769 -0.1555
17.4000 5.7835 -0.1643
17.4200 5.7902 -0.1649
17.4400 5.7969 -0.1563
17.4600 5.8036 -0.1658
17.4800 5.8103 -0.1637
17.5000 5.8170 -0.1554
17.5200 5.8236 -0.1656
17.5400 5.8302 -0.1619
17.5600 5.8368 -0.1510
17.5800 5.8434 -0.1681
17.6000 5.8502 -0.1591
17.6200 5.8569 -0.1565
17.6400 5.8636 -0.1697
17.6600 5.8702 -0.1627
17.6800 5.8769 -0.1576
17.7000 5.8836 -0.1679
17.7200 5.8902 -0.1621
17.7400 5.8968 -0.1533
17.7600 5.9035 -0.1640
17.7800 5.9102 -0.1644
17.8000 5.9169 -0.1577
17.8200 5.9236 -0.1679
17.8400 5.9303 -0.1625
17.8600 5.9370 -0.1583
17.8800 5.9437 -0.1649
17.9000 5.9503 -0.1653
17.9200 5.9569 -0.1583
17.9400 5.9635 -0.1612
17.9600 5.9702 -0.1621
17.9800 5.9769 -0.1592
18.0000 5.9836 -0.1644
18.0200 5.9903 -0.1641
18.0400 5.9970 -0.1597
18.0600 6.0036 -0.1608
18.0800 6.0102 -0.1731
18.1000 6.0168 -0.1563
18.1200 6.0235 -0.1585
18.1400 6.0302 -0.1703
18.1600 6.0369 -0.1545
18.1800 6.0436 -0.1597
18.2000 6.0503 -0.1759
18.2200 6.0569 -0.1588
18.2400 6.0636 -0.1639
18.2600 6.0702 -0.1725
18.2800 6.0768 -0.1568
18.3000 6.0835 -0.1640
18.3200 6.0902 -0.1776
18.3400 6.0969 -0.1545
18.3600 6.1036 -0.1671
18.3800 6.1102 -0.1715
18.4000 6.1169 -0.1527
18.4200 6.1236 -0.1697
18.4400 6.1303 -0.1732
18.4600 6.1369 -0.1521
18.4800 6.1435 -0.1698
18.5000 6.1502 -0.1732
18.5200 6.1569 -0.1532
18.5400 6.1636 -0.1659
18.5600 6.1703 -0.1735
18.5800 6.1769 -0.1594
18.6000 6.1836 -0.1623
18.6200 6.1903 -0.1793
18.6400 6.1969 -0.1646
18.6600 6.2035 -0.1603
18.6800 6.2102 -0.1689
18.7000 6.2169 -0.1672
18.7200 6.2236 -0.1626
18.7400 6.2303 -0.1709
18.7600 6.2370 -0.1618
18.7800 6.2436 -0.1575
18.8000 6.2503 -0.1721
18.8200 6.2569 -0.1711
18.8400 6.2635 -0.1565
18.8600 6.2702 -0.1779
18.8800 6.2769 -0.1676
18.9000 6.2836 -0.1568
18.9200 6.2902 -0.1807
18.9400 6.2969 -0.1674
18.9600 6.3036 -0.1534
18.9800 6.3102 -0.1831
19.0000 6.3168 -0.1613
19.0200 6.3235 -0.1493
19.0400 6.3301 -0.1901
19.0600 6.3368 -0.1675
19.0800 6.3435 -0.1492
19.1000 6.3502 -0.1901
19.1200 6.3569 -0.1620
19.1400 6.3636 -0.1492
19.1600 6.3702 -0.1918
19.1800 6.3768 -0.1563
19.2000 6.3835 -0.1617
19.2200 6.3902 -0.1850
19.2400 6.3970 -0.1539
19.2600 6.4036 -0.1640
19.2800 6.4103 -0.1900
19.3000 6.4170 -0.1523
19.3200 6.4236 -0.1701
19.3400 6.4303 -0.1777
19.3600 6.4368 -0.1488
19.3800 6.4435 -0.1722
19.4000 6.4502 -0.1808
19.4200 6.4569 -0.1519
19.4400 6.4636 -0.1775
19.4600 6.4703 -0.1736
19.4800 6.4770 -0.1547
19.5000 6.4837 -0.1822
19.5200 6.4903 -0.1758
19.5400 6.4969 -0.1523
19.5600 6.5035 -0.1770
19.5800 6.5101 -0.1726
19.6000 6.5168 -0.1617
19.6200 6.5236 -0.1767
19.6400 6.5303 -0.1671
19.6600 6.5370 -0.1666
19.6800 6.5436 -0.1783
19.7000 6.5503 -0.1698
19.7200 6.5568 -0.1686
19.7400 6.5634 -0.1739
19.7600 6.5701 -0.1610
19.7800 6.5769 -0.1701
19.8000 6.5836 -0.1775
19.8200 6.5902 -0.1687
19.8400 6.5969 -0.1661
19.8600 6.6036 -0.1728
19.8800 6.6102 -0.1700
19.9000 6.6168 -0.1704
19.9200 6.6235 -0.1676
19.9400 6.6302 -0.1716
19.9600 6.6369 -0.1695
19.9800 6.6436 -0.1657
20.0000 6.6503 -0.1754
20.0200 6.6570 -0.1729
20.0400 6.6637 -0.1670
20.0600 6.6703 -0.1775
20.0800 6.6769 -0.1676
20.1000 6.6835 -0.1628
20.1200 6.6902 -0.1753
20.1400 6.6969 -0.1685
20.1600 6.7036 -0.1697
20.1800 6.7103 -0.1747
20.2000 6.7170 -0.1663
20.2200 6.7237 -0.1698
20.2400 6.7303 -0.1763
20.2600 6.7369 -0.1668
20.2800 6.7435 -0.1704
20.3000 6.7502 -0.1719
20.3200 6.7569 -0.1716
20.3400 6.7636 -0.1704
20.3600 6.7702 -0.1700
20.3800 6.7769 -0.1679
20.4000 6.7836 -0.1754
20.4200 6.7902 -0.1672
20.4400 6.7969 -0.1742
20.4600 6.8035 -0.1704
20.4800 6.8101 -0.1679
20.5000 6.8168 -0.1743
20.5200 6.8235 -0.1730
20.5400 6.8302 -0.1660
20.5600 6.8369 -0.1742
20.5800 6.8436 -0.1673
20.6000 6.8503 -0.1675
20.6200 6.8569 -0.1775
20.6400 6.8635 -0.1677
20.6600 6.8702 -0.1688
20.6800 6.8769 -0.1779
20.7000 6.8836 -0.1675
20.7200 6.8903 -0.1703
20.7400 6.8970 -0.1720
20.7600 6.9037 -0.1623
20.7800 6.9103 -0.1714
20.8000 6.9169 -0.1724
20.8200 6.9235 -0.1669
20.8400 6.9302 -0.1730
20.8600 6.9369 -0.1734
20.8800 6.9436 -0.1683
20.9000 6.9503 -0.1781
20.9200 6.9570 -0.1692
20.9400 6.9636 -0.1674
20.9600 6.9703 -0.1721
20.9800 6.9769 -0.1684
21.0000 6.9836 -0.1685
21.0200 6.9902 -0.1737
21.0400 6.9969 -0.1699
21.0600 7.0036 -0.1710
21.0800 7.0102 -0.1718
21.1000 7.0169 -0.1667
21.1200 7.0236 -0.1723
21.1400 7.0303 -0.1717
21.1600 7.0369 -0.1727
21.1800 7.0435 -0.1699
21.2000 7.0501 -0.1622
21.2200 7.0568 -0.1817
21.2400 7.0635 -0.1703
21.2600 7.0702 -0.1640
21.2800 7.0769 -0.1811
21.3000 7.0836 -0.1654
21.3200 7.0902 -0.1684
21.3400 7.0969 -0.1785
21.3600 7.1035 -0.1685
21.3800 7.1102 -0.1621
21.4000 7.1169 -0.1821
21.4200 7.1236 -0.1673
21.4400 7.1303 -0.1687
21.4600 7.1369 -0.1829
21.4800 7.1436 -0.1663
21.5000 7.1503 -0.1683
21.5200 7.1569 -0.1810
21.5400 7.1635 -0.1651
21.5600 7.1702 -0.1671
21.5800 7.1769 -0.1784
21.6000 7.1836 -0.1688
21.6200 7.1903 -0.1625
21.6400 7.1970 -0.1854
21.6600 7.2036 -0.1668
21.6800 7.2103 -0.1672
21.7000 7.2169 -0.1826
21.7200 7.2235 -0.1684
21.7400 7.2301 -0.1618
21.7600 7.2369 -0.1846
21.7800 7.2436 -0.1694
21.8000 7.2503 -0.1605
21.8200 7.2569 -0.1850
21.8400 7.2636 -0.1681
21.8600 7.2703 -0.1652
21.8800 7.2769 -0.1849
21.9000 7.2835 -0.1674
21.9200 7.2901 -0.1667
21.9400 7.2968 -0.1834
21.9600 7.3035 -0.1710
21.9800 7.3102 -0.1689
22.0000 7.3169 -0.1764
22.0200 7.3236 -0.1748
22.0400 7.3303 -0.1646
22.0600 7.3369 -0.1778
22.0800 7.3435 -0.1801
22.1000 7.3502 -0.1689
22.1200 7.3569 -0.1758
22.1400 7.3636 -0.1830
22.1600 7.3703 -0.1661
22.1800 7.3770 -0.1772
22.2000 7.3837 -0.1807
22.2200 7.3903 -0.1647
22.2400 7.3969 -0.1771
22.2600 7.4035 -0.1827
22.2800 7.4102 -0.1596
22.3000 7.4169 -0.1825
22.3200 7.4236 -0.1828
22.3400 7.4303 -0.1580
22.3600 7.4369 -0.1845
22.3800 7.4436 -0.1790
22.4000 7.4503 -0.1619
22.4200 7.4569 -0.1825
22.4400 7.4635 -0.1745
22.4600 7.4701 -0.1600
22.4800 7.4768 -0.1862
22.5000 7.4835 -0.1815
22.5200 7.4902 -0.1632
22.5400 7.4969 -0.1833
22.5600 7.5036 -0.1763
22.5800 7.5103 -0.1642
22.6000 7.5169 -0.1864
22.6200 7.5235 -0.1656
22.6400 7.5301 -0.1678
22.6600 7.5368 -0.1852
22.6800 7.5435 -0.1652
22.7000 7.5502 -0.1680
22.7200 7.5569 -0.1887
22.7400 7.5636 -0.1684
22.7600 7.5703 -0.1690
22.7800 7.5769 -0.1884
22.8000 7.5835 -0.1697
22.8200 7.5902 -0.1682
22.8400 7.5969 -0.1829
22.8600 7.6036 -0.1686
22.8800 7.6102 -0.1776
22.9000 7.6169 -0.1842
22.9200 7.6236 -0.1700
22.9400 7.6303 -0.1785
22.9600 7.6370 -0.1814
22.9800 7.6436 -0.1733
23.0000 7.6502 -0.1771
23.0200 7.6569 -0.1799
23.0400 7.6636 -0.1714
23.0600 7.6703 -0.1770
23.0800 7.6770 -0.1802
23.1000 7.6837 -0.1783
23.1200 7.6903 -0.1775
23.1400 7.6970 -0.1798
23.1600 7.7035 -0.1783
23.1800 7.7101 -0.1734
23.2000 7.7168 -0.1774
23.2200 7.7236 -0.1873
23.2400 7.7303 -0.1660
23.2600 7.7369 -0.1803
23.2800 7.7436 -0.1847
23.3000 7.7503 -0.1697
23.3200 7.7569 -0.1823
23.3400 7.7635 -0.1846
23.3600 7.7701 -0.1678
23.3800 7.7768 -0.1824
23.4000 7.7835 -0.1847
23.4200 7.7902 -0.1652
23.4400 7.7969 -0.1806
23.4600 7.8035 -0.1849
23.4800 7.8102 -0.1638
23.5000 7.8169 -0.1858
23.5200 7.8235 -0.1869
23.5400 7.8302 -0.1686
23.5600 7.8369 -0.1889
23.5800 7.8436 -0.1788
23.6000 7.8503 -0.1756
23.6200 7.8570 -0.1878
23.6400 7.8636 -0.1761
23.6600 7.8703 -0.1701
23.6800 7.8769 -0.1919
23.7000 7.8835 -0.1785
23.7200 7.8902 -0.1749
23.7400 7.8968 -0.1885
23.7600 7.9036 -0.1790
23.7800 7.9103 -0.1752
23.8000 7.9170 -0.1897
23.8200 7.9237 -0.1727
23.8400 7.9303 -0.1801
23.8600 7.9370 -0.1865
23.8800 7.9435 -0.1710
23.9000 7.9502 -0.1779
23.9200 7.9569 -0.1862
23.9400 7.9636 -0.1766
23.9600 7.9703 -0.1842
23.9800 7.9769 -0.1833
24.0000 7.9836 -0.1769
24.0200 7.9903 -0.1827
24.0400 7.9969 -0.1768
24.0600 8.0036 -0.1784
24.0800 8.0102 -0.1848
24.1000 8.0168 -0.1734
24.1200 8.0235 -0.1835
24.1400 8.0302 -0.1852
24.1600 8.0369 -0.1754
24.1800 8.0436 -0.1855
24.2000 8.0502 -0.1810
24.2200 8.0569 -0.1816
24.2400 8.0635 -0.1843
24.2600 8.0701 -0.1770
24.2800 8.0768 -0.1728
24.3000 8.0836 -0.1882
24.3200 8.0903 -0.1814
24.3400 8.0970 -0.1772
24.3600 8.1036 -0.1855
24.3800 8.1103 -0.1783
24.4000 8.1169 -0.1796
24.4200 8.1235 -0.1848
24.4400 8.1302 -0.1768
24.4600 8.1369 -0.1803
24.4800 8.1436 -0.1808
24.5000 8.1503 -0.1804
24.5200 8.1570 -0.1819
24.5400 8.1637 -0.1863
24.5600 8.1703 -0.1789
24.5800 8.1769 -0.1783
24.6000 8.1835 -0.1833
24.6200 8.1902 -0.1843
24.6400 8.1968 -0.1754
24.6600 8.2035 -0.1799
24.6800 8.2102 -0.1860
24.7000 8.2169 -0.1761
24.7200 8.2236 -0.1772
24.7400 8.2303 -0.1855
24.7600 8.2369 -0.1796
24.7800 8.2435 -0.1818
24.8000 8.2501 -0.1909
24.8200 8.2568 -0.1736
24.8400 8.2635 -0.1819
24.8600 8.2702 -0.1878
24.8800 8.2769 -0.1711
24.9000 8.2836 -0.1802
24.9200 8.2903 -0.1915
24.9400 8.2969 -0.1739
24.9600 8.3035 -0.1817
24.9800 8.3102 -0.1890
25.0000 8.3168 -0.1766
25.0200 8.3236 -0.1871
25.0400 8.3302 -0.1884
25.0600 8.3369 -0.1702
25.0800 8.3436 -0.1827
25.1000 8.3503 -0.1841
25.1200 8.3570 -0.1770
25.1400 8.3636 -0.1874
25.1600 8.3702 -0.1856
25.1800 8.3768 -0.1763
25.2000 8.3835 -0.1851
25.2200 8.3902 -0.1862
25.2400 8.3969 -0.1807
25.2600 8.4036 -0.1890
25.2800 8.4103 -0.1827
25.3000 8.4169 -0.1765
25.3200 8.4235 -0.1857
25.3400 8.4302 -0.1880
25.3600 8.4368 -0.1759
25.3800 8.4435 -0.1856
25.4000 8.4503 -0.1931
25.4200 8.4569 -0.1772
25.4400 8.4636 -0.1833
25.4600 8.4703 -0.1930
25.4800 8.4769 -0.1772
25.5000 8.4835 -0.1879
25.5200 8.4901 -0.1887
25.5400 8.4968 -0.1818
25.5600 8.5035 -0.1836
25.5800 8.5102 -0.1947
25.6000 8.5169 -0.1793
25.6200 8.5235 -0.1818
25.6400 8.5302 -0.1998
25.6600 8.5369 -0.1780
25.6800 8.5435 -0.1796
25.7000 8.5502 -0.1958
25.7200 8.5568 -0.1735
25.7400 8.5635 -0.1855
25.7600 8.5703 -0.1978
25.7800 8.5770 -0.1767
25.8000 8.5837 -0.1837
25.8200 8.5904 -0.1936
25.8400 8.5970 -0.1812
25.8600 8.6036 -0.1823
25.8800 8.6102 -0.1943
25.9000 8.6168 -0.1719
25.9200 8.6236 -0.1838
25.9400 8.6303 -0.1932
25.9600 8.6370 -0.1814
25.9800 8.6436 -0.1876
26.0000 8.6503 -0.1909
26.0200 8.6570 -0.1746
26.0400 8.6636 -0.1868
26.0600 8.6702 -0.1898
26.0800 8.6768 -0.1777
26.1000 8.6835 -0.1816
26.1200 8.6902 -0.1923
26.1400 8.6969 -0.1782
26.1600 8.7036 -0.1895
26.1800 8.7103 -0.1926
26.2000 8.7169 -0.1829
26.2200 8.7235 -0.1871
26.2400 8.7301 -0.1888
26.2600 8.7368 -0.1782
26.2800 8.7435 -0.1866
26.3000 8.7502 -0.1932
26.3200 8.7569 -0.1747
26.3400 8.7636 -0.1863
26.3600 8.7702 -0.1961
26.3800 8.7769 -0.1787
26.4000 8.7835 -0.1870
26.4200 8.7902 -0.1933
26.4400 8.7968 -0.1786
26.4600 8.8035 -0.1848
26.4800 8.8103 -0.1946
26.5000 8.8170 -0.1822
26.5200 8.8236 -0.1822
26.5400 8.8303 -0.1990
26.5600 8.8370 -0.1821
26.5800 8.8436 -0.1860
26.6000 8.8502 -0.1918
26.6200 8.8569 -0.1881
26.6400 8.8636 -0.1839
26.6600 8.8703 -0.1968
26.6800 8.8769 -0.1812
26.7000 8.8836 -0.1839
26.7200 8.8903 -0.1975
26.7400 8.8970 -0.1810
26.7600 8.9036 -0.1862
26.7800 8.9102 -0.2003
26.8000 8.9168 -0.1796
26.8200 8.9235 -0.1854
26.8400 8.9302 -0.2025
26.8600 8.9369 -0.1824
26.8800 8.9436 -0.1847
26.9000 8.9503 -0.1954
26.9200 8.9569 -0.1845
26.9400 8.9636 -0.1888
26.9600 8.9701 -0.1962
26.9800 8.9768 -0.1792
27.0000 8.9835 -0.1902
27.0200 8.9902 -0.1967
27.0400 8.9969 -0.1847
27.0600 9.0036 -0.1854
27.0800 9.0103 -0.1967
27.1000 9.0169 -0.1834
27.1200 9.0236 -0.1883
27.1400 9.0302 -0.1921
27.1600 9.0368 -0.1854
27.1800 9.0435 -0.1864
27.2000 9.0502 -0.1942
27.2200 9.0569 -0.1872
27.2400 9.0636 -0.1865
27.2600 9.0703 -0.1924
27.2800 9.0770 -0.1861
27.3000 9.0836 -0.1820
27.3200 9.0902 -0.1970
27.3400 9.0968 -0.1870
27.3600 9.1035 -0.1821
27.3800 9.1103 -0.1924
27.4000 9.1170 -0.1934
27.4200 9.1236 -0.1857
27.4400 9.1303 -0.1896
27.4600 9.1370 -0.1950
27.4800 9.1436 -0.1823
27.5000 9.1502 -0.1883
27.5200 9.1568 -0.1888
27.5400 9.1635 -0.1803
27.5600 9.1703 -0.1952
27.5800 9.1769 -0.1915
27.6000 9.1836 -0.1786
27.6200 9.1903 -0.1953
27.6400 9.1970 -0.1903
27.6600 9.2036 -0.1851
27.6800 9.2102 -0.1895
27.7000 9.2168 -0.1834
27.7200 9.2235 -0.1791
27.7400 9.2302 -0.1947
27.7600 9.2369 -0.1850
27.7800 9.2436 -0.1852
27.8000 9.2503 -0.1965
27.8200 9.2570 -0.1860
27.8400 9.2636 -0.1865
27.8600 9.2702 -0.1945
27.8800 9.2768 -0.1868
27.9000 9.2835 -0.1855
27.9200 9.2902 -0.1923
27.9400 9.2970 -0.1921
27.9600 9.3036 -0.1889
27.9800 9.3103 -0.1930
28.0000 9.3170 -0.1895
28.0200 9.3236 -0.1879
28.0400 9.3302 -0.1947
28.0600 9.3369 -0.1911
28.0800 9.3436 -0.1882
28.1000 9.3503 -0.1926
28.1200 9.3569 -0.1916
28.1400 9.3636 -0.1832
28.1600 9.3703 -0.1913
28.1800 9.3769 -0.1981
28.2000 9.3836 -0.1921
28.2200 9.3902 -0.1942
28.2400 9.3968 -0.1908
28.2600 9.4035 -0.1829
28.2800 9.4102 -0.1977
28.3000 9.4169 -0.1918
28.3200 9.4236 -0.1863
28.3400 9.4303 -0.1943
28.3600 9.4370 -0.1950
28.3800 9.4436 -0.1861
28.4000 9.4502 -0.1963
28.4200 9.4568 -0.1978
28.4400 9.4635 -0.1829
28.4600 9.4702 -0.1933
28.4800 9.4769 -0.1995
28.5000 9.4836 -0.1832
28.5200 9.4903 -0.1936
28.5400 9.4969 -0.1957
28.5600 9.5036 -0.1838
28.5800 9.5102 -0.1977
28.6000 9.5169 -0.1914
28.6200 9.5235 -0.1872
28.6400 9.5302 -0.2007
28.6600 9.5369 -0.1930
28.6800 9.5436 -0.1859
28.7000 9.5503 -0.2019
28.7200 9.5570 -0.1878
28.7400 9.5637 -0.1888
28.7600 9.5703 -0.1946
28.7800 9.5769 -0.1889
28.8000 9.5835 -0.1934
28.8200 9.5902 -0.1946
28.8400 9.5969 -0.1913
28.8600 9.6036 -0.1974
28.8800 9.6103 -0.1905
28.9000 9.6170 -0.1894
28.9200 9.6236 -0.1975
28.9400 9.6302 -0.1890
28.9600 9.6368 -0.1915
28.9800 9.6435 -0.1979
29.0000 9.6502 -0.1860
29.0200 9.6568 -0.1951
29.0400 9.6635 -0.1972
29.0600 9.6702 -0.1830
29.0800 9.6769 -0.2005
29.1000 9.6836 -0.1983
29.1200 9.6902 -0.1789
29.1400 9.6968 -0.2005
29.1600 9.7035 -0.1965
29.1800 9.7102 -0.1793
29.2000 9.7169 -0.2096
29.2200 9.7235 -0.1916
29.2400 9.7302 -0.1790
29.2600 9.7369 -0.2095
29.2800 9.7436 -0.1964
29.3000 9.7502 -0.1807
29.3200 9.7569 -0.2085
29.3400 9.7635 -0.1888
29.3600 9.7702 -0.1807
29.3800 9.7769 -0.2125
29.4000 9.7836 -0.1931
29.4200 9.7903 -0.1852
29.4400 9.7970 -0.2113
29.4600 9.8037 -0.1878
29.4800 9.8102 -0.1897
29.5000 9.8168 -0.2061
29.5200 9.8235 -0.1913
29.5400 9.8302 -0.1853
29.5600 9.8370 -0.2072
29.5800 9.8436 -0.1905
29.6000 9.8503 -0.1877
29.6200 9.8570 -0.2064
29.6400 9.8636 -0.1968
29.6600 9.8702 -0.1869
29.6800 9.8768 -0.2034
29.7000 9.8835 -0.1961
29.7200 9.8902 -0.1923
29.7400 9.8969 -0.2036
29.7600 9.9036 -0.1902
29.7800 9.9102 -0.1933
29.8000 9.9169 -0.2030
29.8200 9.9236 -0.1956
29.8400 9.9302 -0.1903
29.8600 9.9368 -0.2064
29.8800 9.9434 -0.1900
29.9000 9.9502 -0.1928
29.9200 9.9569 -0.2056
29.9400 9.9636 -0.1940
29.9600 9.9702 -0.1866
29.9800 9.9769 -0.2084
30.0000 9.9836 -0.1993
30.0200 9.9902 -0.1948
30.0400 9.9968 -0.2041
30.0600 10.0035 -0.1955
30.0800 10.0102 -0.1908
30.1000 10.0169 -0.2076
30.1200 10.0236 -0.1967
30.1400 10.0303 -0.1903
30.1600 10.0370 -0.2025
30.1800 10.0436 -0.1956
30.2000 10.0503 -0.1908
30.2200 10.0569 -0.2029
30.2400 10.0635 -0.1990
30.2600 10.0702 -0.1922
30.2800 10.0769 -0.2036
30.3000 10.0836 -0.1936
30.3200 10.0903 -0.1868
30.3400 10.0970 -0.2097
30.3600 10.1036 -0.1957
30.3800 10.1102 -0.1834
30.4000 10.1168 -0.2126
30.4200 10.1235 -0.1962
30.4400 10.1302 -0.1832
30.4600 10.1369 -0.2132
30.4800 10.1436 -0.2043
30.5000 10.1502 -0.1882
30.5200 10.1569 -0.2053
30.5400 10.1636 -0.1972
30.5600 10.1702 -0.1961
30.5800 10.1768 -0.2053
30.6000 10.1835 -0.1858
30.6200 10.1902 -0.1913
30.6400 10.1969 -0.2165
30.6600 10.2036 -0.1923
30.6800 10.2102 -0.1887
30.7000 10.2169 -0.2055
30.7200 10.2236 -0.2001
30.7400 10.2303 -0.1905
30.7600 10.2369 -0.1994
30.7800 10.2435 -0.1984
30.8000 10.2502 -0.1982
30.8200 10.2569 -0.1996
30.8400 10.2636 -0.1942
30.8600 10.2703 -0.1995
30.8800 10.2770 -0.1957
30.9000 10.2837 -0.2019
30.9200 10.2903 -0.2008
30.9400 10.2968 -0.1992
30.9600 10.3035 -0.2014
30.9800 10.3102 -0.1933
31.0000 10.3169 -0.1915
31.0200 10.3236 -0.2104
31.0400 10.3303 -0.1976
31.0600 10.3370 -0.1965
31.0800 10.3436 -0.1986
31.1000 10.3502 -0.2002
31.1200 10.3568 -0.2003
31.1400 10.3635 -0.2015
31.1600 10.3702 -0.1946
31.1800 10.3769 -0.1984
31.2000 10.3836 -0.2028
31.2200 10.3902 -0.1949
31.2400 10.3969 -0.1978
31.2600 10.4036 -0.2096
31.2800 10.4102 -0.1983
31.3000 10.4168 -0.1969
31.3200 10.4235 -0.2035
31.3400 10.4302 -0.2027
31.3600 10.4369 -0.1957
31.3800 10.4436 -0.2005
31.4000 10.4502 -0.2052
31.4200 10.4569 -0.1968
31.4400 10.4636 -0.2024
31.4600 10.4702 -0.2053
31.4800 10.4768 -0.2000
31.5000 10.4835 -0.1988
31.5200 10.4902 -0.2036
31.5400 10.4969 -0.1975
31.5600 10.5036 -0.2017
31.5800 10.5103 -0.2077
31.6000 10.5170 -0.1966
31.6200 10.5236 -0.1969
31.6400 10.5303 -0.2082
31.6600 10.5369 -0.2003
31.6800 10.5435 -0.2040
31.7000 10.5502 -0.2023
31.7200 10.5569 -0.1964
31.7400 10.5636 -0.2008
31.7600 10.5703 -0.2057
31.7800 10.5770 -0.1972
31.8000 10.5836 -0.1976
31.8200 10.5902 -0.2075
31.8400 10.5969 -0.1936
31.8600 10.6035 -0.1997
31.8800 10.6102 -0.2069
31.9000 10.6169 -0.2031
31.9200 10.6236 -0.2025
31.9400 10.6303 -0.2030
31.9600 10.6370 -0.2001
31.9800 10.6437 -0.2024
32.0000 10.6503 -0.1997
32.0200 10.6568 -0.1958
32.0400 10.6634 -0.1979
32.0600 10.6701 -0.2062
32.0800 10.6769 -0.1969
32.1000 10.6836 -0.2030
32.1200 10.6902 -0.2013
32.1400 10.6969 -0.1980
32.1600 10.7036 -0.2014
32.1800 10.7102 -0.2026
32.2000 10.7169 -0.1926
32.2200 10.7235 -0.1995
32.2400 10.7302 -0.2076
32.2600 10.7369 -0.1942
32.2800 10.7436 -0.1999
32.3000 10.7503 -0.2111
32.3200 10.7570 -0.1920
32.3400 10.7637 -0.2020
32.3600 10.7703 -0.2118
32.3800 10.7769 -0.1922
32.4000 10.7835 -0.1969
32.4200 10.7902 -0.2103
32.4400 10.7969 -0.1927
32.4600 10.8036 -0.2052
32.4800 10.8103 -0.2122
32.5000 10.8169 -0.1850
32.5200 10.8236 -0.2040
32.5400 10.8302 -0.2153
32.5600 10.8368 -0.1875
32.5800 10.8435 -0.2019
32.6000 10.8502 -0.2107
32.6200 10.8569 -0.1842
32.6400 10.8636 -0.2091
32.6600 10.8703 -0.2102
32.6800 10.8769 -0.1883
32.7000 10.8836 -0.2066
32.7200 10.8902 -0.2125
32.7400 10.8968 -0.1878
32.7600 10.9035 -0.2079
32.7800 10.9102 -0.2074
32.8000 10.9169 -0.1885
32.8200 10.9236 -0.2030
32.8400 10.9302 -0.2094
32.8600 10.9369 -0.1907
32.8800 10.9436 -0.2035
32.9000 10.9503 -0.2099
32.9200 10.9569 -0.1963
32.9400 10.9635 -0.2016
32.9600 10.9702 -0.2090
32.9800 10.9769 -0.1932
33.0000 10.9836 -0.2067
33.0200 10.9903 -0.2095
33.0400 10.9970 -0.1934
33.0600 11.0036 -0.2084
33.0800 11.0103 -0.2093
33.1000 11.0169 -0.1982
33.1200 11.0235 -0.2044
33.1400 11.0302 -0.2070
33.1600 11.0369 -0.1993
33.1800 11.0436 -0.2075
33.2000 11.0503 -0.2019
33.2200 11.0570 -0.2002
33.2400 11.0637 -0.1998
33.2600 11.0703 -0.2091
33.2800 11.0769 -0.2016
33.3000 11.0835 -0.2043
33.3200 11.0902 -0.2042
33.3400 11.0969 -0.2031
33.3600 11.1036 -0.2031
33.3800 11.1102 -0.2069
33.4000 11.1169 -0.2020
33.4200 11.1236 -0.2003
33.4400 11.1303 -0.2035
33.4600 11.1369 -0.2041
33.4800 11.1435 -0.1996
33.5000 11.1501 -0.2106
33.5200 11.1568 -0.2047
33.5400 11.1635 -0.1982
33.5600 11.1702 -0.2087
33.5800 11.1769 -0.2034
33.6000 11.1836 -0.2039
33.6200 11.1903 -0.2083
33.6400 11.1969 -0.2020
33.6600 11.2035 -0.2013
33.6800 11.2102 -0.2070
33.7000 11.2169 -0.2022
33.7200 11.2236 -0.2063
33.7400 11.2303 -0.2062
33.7600 11.2370 -0.2022
33.7800 11.2437 -0.2052
33.8000 11.2503 -0.2093
33.8200 11.2569 -0.2021
33.8400 11.2635 -0.2045
33.8600 11.2701 -0.2007
33.8800 11.2769 -0.2047
33.9000 11.2836 -0.2047
33.9200 11.2903 -0.2063
33.9400 11.2970 -0.2073
33.9600 11.3036 -0.2004
33.9800 11.3103 -0.2056
34.0000 11.3169 -0.2117
34.0200 11.3235 -0.1986
34.0400 11.3302 -0.2022
34.0600 11.3369 -0.2114
34.0800 11.3436 -0.2035
34.1000 11.3503 -0.2044
34.1200 11.3570 -0.2080
34.1400 11.3637 -0.2029
34.1600 11.3703 -0.2136
34.1800 11.3769 -0.2079
34.2000 11.3834 -0.1983
34.2200 11.3901 -0.2109
34.2400 11.3968 -0.2065
34.2600 11.4036 -0.1976
34.2800 11.4102 -0.2130
34.3000 11.4169 -0.2105
34.3200 11.4235 -0.1971
34.3400 11.4302 -0.2143
34.3600 11.4368 -0.2053
34.3800 11.4435 -0.2016
34.4000 11.4502 -0.2146
34.4200 11.4569 -0.2063
34.4400 11.4636 -0.1978
34.4600 11.4703 -0.2139
34.4800 11.4770 -0.1997
34.5000 11.4837 -0.2010
34.5200 11.4903 -0.2120
34.5400 11.4969 -0.2016
34.5600 11.5035 -0.2008
34.5800 11.5102 -0.2150
34.6000 11.5169 -0.2013
34.6200 11.5236 -0.2021
34.6400 11.5303 -0.2107
34.6600 11.5370 -0.2043
34.6800 11.5436 -0.1992
34.7000 11.5503 -0.2135
34.7200 11.5569 -0.2012
34.7400 11.5635 -0.2017
34.7600 11.5702 -0.2108
34.7800 11.5769 -0.2031
34.8000 11.5836 -0.2073
34.8200 11.5902 -0.2070
34.8400 11.5969 -0.2010
34.8600 11.6036 -0.2052
34.8800 11.6102 -0.2105
34.9000 11.6169 -0.2050
34.9200 11.6235 -0.2074
34.9400 11.6301 -0.2060
34.9600 11.6368 -0.2071
34.9800 11.6435 -0.2058
35.0000 11.6502 -0.2049
35.0200 11.6569 -0.2080
35.0400 11.6636 -0.2041
35.0600 11.6703 -0.2042
35.0800 11.6769 -0.2117
35.1000 11.6835 -0.2010
35.1200 11.6902 -0.2070
35.1400 11.6969 -0.2122
35.1600 11.7035 -0.2039
35.1800 11.7102 -0.2016
35.2000 11.7169 -0.2138
35.2200 11.7237 -0.2035
35.2400 11.7303 -0.2059
35.2600 11.7369 -0.2149
35.2800 11.7435 -0.2038
35.3000 11.7502 -0.1971
35.3200 11.7569 -0.2146
35.3400 11.7636 -0.2026
35.3600 11.7703 -0.2048
35.3800 11.7769 -0.2166
35.4000 11.7836 -0.2013
35.4200 11.7903 -0.2057
35.4400 11.7970 -0.2132
35.4600 11.8036 -0.1994
35.4800 11.8102 -0.2000
35.5000 11.8169 -0.2150
35.5200 11.8236 -0.1993
35.5400 11.8302 -0.2047
35.5600 11.8369 -0.2151
35.5800 11.8436 -0.2067
35.6000 11.8503 -0.2020
35.6200 11.8569 -0.2167
35.6400 11.8635 -0.2050
35.6600 11.8701 -0.2027
35.6800 11.8768 -0.2125
35.7000 11.8835 -0.2051
35.7200 11.8902 -0.2000
35.7400 11.8969 -0.2089
35.7600 11.9036 -0.2075
35.7800 11.9102 -0.1993
35.8000 11.9169 -0.2100
35.8200 11.9235 -0.2111
35.8400 11.9302 -0.1967
35.8600 11.9369 -0.2133
35.8800 11.9436 -0.2083
35.9000 11.9502 -0.1959
35.9200 11.9569 -0.2076
35.9400 11.9636 -0.2086
35.9600 11.9703 -0.2039
35.9800 11.9769 -0.2118
36.0000 11.9835 -0.2052
36.0200 11.9902 -0.1969
36.0400 11.9969 -0.2150
36.0600 12.0036 -0.2077
36.0800 12.0103 -0.1977
36.1000 12.0170 -0.2169
36.1200 12.0237 -0.2003
36.1400 12.0303 -0.1976
36.1600 12.0369 -0.2212
36.1800 12.0435 -0.2035
36.2000 12.0501 -0.2003
36.2200 12.0568 -0.2169
36.2400 12.0636 -0.2050
36.2600 12.0703 -0.2014
36.2800 12.0769 -0.2201
36.3000 12.0836 -0.1970
36.3200 12.0903 -0.2034
36.3400 12.0969 -0.2186
36.3600 12.1035 -0.1951
36.3800 12.1101 -0.2042
36.4000 12.1168 -0.2163
36.4200 12.1235 -0.1969
36.4400 12.1302 -0.2086
36.4600 12.1369 -0.2137
36.4800 12.1436 -0.2030
36.5000 12.1502 -0.2080
36.5200 12.1569 -0.2132
36.5400 12.1635 -0.2021
36.5600 12.1702 -0.2096
36.5800 12.1769 -0.2130
36.6000 12.1836 -0.2008
36.6200 12.1903 -0.2133
36.6400 12.1970 -0.2096
36.6600 12.2037 -0.2119
36.6800 12.2103 -0.2107
36.7000 12.2169 -0.2050
36.7200 12.2235 -0.2056
36.7400 12.2302 -0.2077
36.7600 12.2368 -0.2076
36.7800 12.2436 -0.2144
36.8000 12.2503 -0.2064
36.8200 12.2570 -0.2082
36.8400 12.2636 -0.2143
36.8600 12.2703 -0.2111
36.8800 12.2769 -0.2076
36.9000 12.2835 -0.2178
36.9200 12.2902 -0.2023
36.9400 12.2968 -0.2091
36.9600 12.3035 -0.2147
36.9800 12.3102 -0.2043
37.0000 12.3169 -0.2120
37.0200 12.3236 -0.2120
37.0400 12.3303 -0.2056
37.0600 12.3369 -0.2162
37.0800 12.3435 -0.2128
37.1000 12.3501 -0.1984
37.1200 12.3568 -0.2169
37.1400 12.3635 -0.2110
37.1600 12.3702 -0.2008
37.1800 12.3769 -0.2216
37.2000 12.3836 -0.2132
37.2200 12.3903 -0.1999
37.2400 12.3969 -0.2239
37.2600 12.4035 -0.2087
37.2800 12.4101 -0.2050
37.3000 12.4168 -0.2149
37.3200 12.4235 -0.2150
37.3400 12.4303 -0.2052
37.3600 12.4369 -0.2138
37.3800 12.4436 -0.2139
37.4000 12.4503 -0.2119
37.4200 12.4570 -0.2142
37.4400 12.4636 -0.2170
37.4600 12.4702 -0.2113
37.4800 12.4769 -0.2118
37.5000 12.4836 -0.2174
37.5200 12.4903 -0.2138
37.5400 12.4969 -0.2094
37.5600 12.5036 -0.2126
37.5800 12.5103 -0.2130
37.6000 12.5169 -0.2112
37.6200 12.5236 -0.2165
37.6400 12.5302 -0.2157
37.6600 12.5369 -0.2084
37.6800 12.5436 -0.2186
37.7000 12.5503 -0.2099
37.7200 12.5570 -0.2073
37.7400 12.5636 -0.2258
37.7600 12.5703 -0.2046
37.7800 12.5769 -0.2095
37.8000 12.5835 -0.2243
37.8200 12.5901 -0.2097
37.8400 12.5968 -0.2112
37.8600 12.6035 -0.2236
37.8800 12.6102 -0.2093
37.9000 12.6169 -0.2172
37.9200 12.6236 -0.2196
37.9400 12.6303 -0.2071
37.9600 12.6369 -0.2121
37.9800 12.6435 -0.2194
38.0000 12.6502 -0.2069
38.0200 12.6569 -0.2197
38.0400 12.6636 -0.2158
38.0600 12.6703 -0.2033
38.0800 12.6769 -0.2188
38.1000 12.6836 -0.2159
38.1200 12.6903 -0.2079
38.1400 12.6970 -0.2189
38.1600 12.7036 -0.2138
38.1800 12.7102 -0.2035
38.2000 12.7168 -0.2143
38.2200 12.7235 -0.2142
38.2400 12.7303 -0.2117
38.2600 12.7370 -0.2192
38.2800 12.7437 -0.2094
38.3000 12.7503 -0.2137
38.3200 12.7570 -0.2237
38.3400 12.7635 -0.2094
38.3600 12.7701 -0.2158
38.3800 12.7767 -0.2115
38.4000 12.7835 -0.2124
38.4200 12.7902 -0.2124
38.4400 12.7970 -0.2161
38.4600 12.8036 -0.2146
38.4800 12.8103 -0.2139
38.5000 12.8170 -0.2137
38.5200 12.8236 -0.2181
38.5400 12.8302 -0.2119
38.5600 12.8368 -0.2103
38.5800 12.8435 -0.2111
38.6000 12.8502 -0.2210
38.6200 12.8569 -0.2135
38.6400 12.8636 -0.2158
38.6600 12.8702 -0.2136
38.6800 12.8769 -0.2108
38.7000 12.8835 -0.2168
38.7200 12.8901 -0.2133
38.7400 12.8968 -0.2111
38.7600 12.9035 -0.2149
38.7800 12.9103 -0.2178
38.8000 12.9170 -0.2078
38.8200 12.9236 -0.2161
38.8400 12.9303 -0.2232
38.8600 12.9369 -0.2086
38.8800 12.9435 -0.2148
38.9000 12.9502 -0.2172
38.9200 12.9568 -0.2107
38.9400 12.9636 -0.2210
38.9600 12.9703 -0.2135
38.9800 12.9770 -0.2074
39.0000 12.9836 -0.2165
39.0200 12.9903 -0.2181
39.0400 12.9969 -0.2077
39.0600 13.0036 -0.2226
39.0800 13.0102 -0.2150
39.1000 13.0168 -0.2070
39.1200 13.0235 -0.2205
39.1400 13.0302 -0.2198
39.1600 13.0368 -0.2061
39.1800 13.0435 -0.2122
39.2000 13.0502 -0.2133
39.2200 13.0569 -0.2104
39.2400 13.0636 -0.2202
39.2600 13.0702 -0.2171
39.2800 13.0769 -0.2069
39.3000 13.0836 -0.2144
39.3200 13.0903 -0.2191
39.3400 13.0969 -0.2087
39.3600 13.1036 -0.2122
39.3800 13.1103 -0.2199
39.4000 13.1169 -0.2073
39.4200 13.1236 -0.2130
39.4400 13.1302 -0.2186
39.4600 13.1369 -0.2083
39.4800 13.1436 -0.2193
39.5000 13.1502 -0.2146
39.5200 13.1569 -0.2067
39.5400 13.1636 -0.2157
39.5600 13.1703 -0.2186
39.5800 13.1770 -0.2064
39.6000 13.1836 -0.2203
39.6200 13.1902 -0.2165
39.6400 13.1968 -0.2079
39.6600 13.2035 -0.2136
39.6800 13.2102 -0.2182
39.7000 13.2169 -0.2128
39.7200 13.2236 -0.2185
39.7400 13.2303 -0.2156
39.7600 13.2370 -0.2118
39.7800 13.2436 -0.2162
39.8000 13.2502 -0.2157
39.8200 13.2568 -0.2068
39.8400 13.2635 -0.2192
39.8600 13.2703 -0.2222
39.8800 13.2770 -0.2099
39.9000 13.2836 -0.2175
39.9200 13.2903 -0.2189
39.9400 13.2969 -0.2105
39.9600 13.3035 -0.2120
39.9800 13.3101 -0.2159
40.0000 13.3167 -0.2071
40.0200 13.3235 -0.2128
40.0400 13.3302 -0.2176
40.0600 13.3369 -0.2114
40.0800 13.3436 -0.2119
40.1000 13.3503 -0.2224
40.1200 13.3570 -0.2090
40.1400 13.3636 -0.2137
40.1600 13.3702 -0.2216
40.1800 13.3768 -0.2135
40.2000 13.3835 -0.2086
40.2200 13.3903 -0.2232
40.2400 13.3970 -0.2120
40.2600 13.4037 -0.2126
40.2800 13.4104 -0.2227
40.3000 13.4170 -0.2117
40.3200 13.4236 -0.2130
40.3400 13.4302 -0.2237
40.3600 13.4368 -0.2036
40.3800 13.4435 -0.2142
40.4000 13.4503 -0.2274
40.4200 13.4570 -0.2033
40.4400 13.4636 -0.2145
40.4600 13.4703 -0.2272
40.4800 13.4769 -0.2056
40.5000 13.4835 -0.2177
40.5200 13.4901 -0.2302
40.5400 13.4968 -0.2015
40.5600 13.5035 -0.2152
40.5800 13.5102 -0.2273
40.6000 13.5169 -0.2009
40.6200 13.5236 -0.2111
40.6400 13.5303 -0.2241
40.6600 13.5370 -0.1999
40.6800 13.5436 -0.2222
40.7000 13.5502 -0.2205
40.7200 13.5568 -0.2063
40.7400 13.5635 -0.2163
40.7600 13.5702 -0.2221
40.7800 13.5768 -0.2086
40.8000 13.5835 -0.2170
40.8200 13.5902 -0.2143
40.8400 13.5969 -0.2114
40.8600 13.6036 -0.2160
40.8800 13.6102 -0.2155
40.9000 13.6168 -0.2122
40.9200 13.6236 -0.2172
40.9400 13.6303 -0.2137
40.9600 13.6370 -0.2152
40.9800 13.6436 -0.2120
41.0000 13.6503 -0.2179
41.0200 13.6570 -0.2152
41.0400 13.6636 -0.2041
41.0600 13.6702 -0.2184
41.0800 13.6769 -0.2150
41.1000 13.6836 -0.2098
41.1200 13.6902 -0.2215
41.1400 13.6969 -0.2084
41.1600 13.7036 -0.2012
41.1800 13.7103 -0.2295
41.2000 13.7170 -0.2126
41.2200 13.7236 -0.1975
41.2400 13.7302 -0.2270
41.2600 13.7368 -0.2140
41.2800 13.7435 -0.1958
41.3000 13.7502 -0.2333
41.3200 13.7569 -0.2125
41.3400 13.7635 -0.2037
41.3600 13.7702 -0.2288
41.3800 13.7769 -0.2086
41.4000 13.7836 -0.2079
41.4200 13.7902 -0.2248
41.4400 13.7968 -0.2067
41.4600 13.8035 -0.2137
41.4800 13.8102 -0.2176
41.5000 13.8169 -0.2084
41.5200 13.8236 -0.2153
41.5400 13.8302 -0.2156
41.5600 13.8369 -0.2081
41.5800 13.8436 -0.2220
41.6000 13.8502 -0.2196
41.6200 13.8568 -0.2028
41.6400 13.8635 -0.2141
41.6600 13.8702 -0.2161
41.6800 13.8769 -0.2153
41.7000 13.8836 -0.2183
41.7200 13.8903 -0.2167
41.7400 13.8970 -0.2122
41.7600 13.9036 -0.2179
41.7800 13.9102 -0.2201
41.8000 13.9168 -0.2158
41.8200 13.9235 -0.2117
41.8400 13.9302 -0.2209
41.8600 13.9370 -0.2129
41.8800 13.9436 -0.2149
41.9000 13.9503 -0.2202
41.9200 13.9570 -0.2214
41.9400 13.9636 -0.2121
41.9600 13.9702 -0.2205
41.9800 13.9768 -0.2170
42.0000 13.9835 -0.2151
42.0200 13.9903 -0.2171
42.0400 13.9969 -0.2134
42.0600 14.0036 -0.2132
42.0800 14.0103 -0.2210
42.1000 14.0169 -0.2172
42.1200 14.0236 -0.2166
42.1400 14.0302 -0.2199
42.1600 14.0368 -0.2144
42.1800 14.0434 -0.2143
42.2000 14.0502 -0.2208
42.2200 14.0569 -0.2176
42.2400 14.0636 -0.2176
42.2600 14.0703 -0.2184
42.2800 14.0770 -0.2147
42.3000 14.0836 -0.2198
42.3200 14.0902 -0.2171
42.3400 14.0968 -0.2168
42.3600 14.1035 -0.2149
42.3800 14.1102 -0.2207
42.4000 14.1170 -0.2181
42.4200 14.1236 -0.2176
42.4400 14.1303 -0.2116
42.4600 14.1370 -0.2170
42.4800 14.1437 -0.2229
42.5000 14.1503 -0.2177
42.5200 14.1569 -0.2150
42.5400 14.1636 -0.2247
42.5600 14.1703 -0.2190
42.5800 14.1770 -0.2181
42.6000 14.1836 -0.2260
42.6200 14.1903 -0.2165
42.6400 14.1970 -0.2157
42.6600 14.2036 -0.2239
42.6800 14.2102 -0.2128
42.7000 14.2168 -0.2176
42.7200 14.2235 -0.2228
42.7400 14.2302 -0.2178
42.7600 14.2369 -0.2232
42.7800 14.2436 -0.2198
42.8000 14.2503 -0.2194
42.8200 14.2570 -0.2236
42.8400 14.2636 -0.2230
42.8600 14.2702 -0.2150
42.8800 14.2768 -0.2186
42.9000 14.2835 -0.2163
42.9200 14.2902 -0.2241
42.9400 14.2969 -0.2199
42.9600 14.3035 -0.2214
42.9800 14.3102 -0.2222
43.0000 14.3169 -0.2182
43.0200 14.3236 -0.2174
43.0400 14.3302 -0.2247
43.0600 14.3369 -0.2157
43.0800 14.3435 -0.2178
43.1000 14.3502 -0.2208
43.1200 14.3569 -0.2224
43.1400 14.3636 -0.2217
43.1600 14.3703 -0.2181
43.1800 14.3770 -0.2200
43.2000 14.3837 -0.2273
43.2200 14.3903 -0.2208
43.2400 14.3969 -0.2166
43.2600 14.4035 -0.2222
43.2800 14.4102 -0.2141
43.3000 14.4169 -0.2207
43.3200 14.4236 -0.2260
43.3400 14.4303 -0.2184
43.3600 14.4370 -0.2195
43.3800 14.4436 -0.2271
43.4000 14.4502 -0.2154
43.4200 14.4568 -0.2196
43.4400 14.4635 -0.2231
43.4600 14.4702 -0.2136
43.4800 14.4769 -0.2211
43.5000 14.4836 -0.2229
43.5200 14.4902 -0.2153
43.5400 14.4969 -0.2220
43.5600 14.5036 -0.2238
43.5800 14.5102 -0.2193
43.6000 14.5168 -0.2180
43.6200 14.5235 -0.2256
43.6400 14.5302 -0.2176
43.6600 14.5369 -0.2249
43.6800 14.5435 -0.2197
43.7000 14.5502 -0.2157
43.7200 14.5569 -0.2247
43.7400 14.5636 -0.2224
43.7600 14.5702 -0.2165
43.7800 14.5769 -0.2236
43.8000 14.5835 -0.2201
43.8200 14.5902 -0.2191
43.8400 14.5969 -0.2236
43.8600 14.6036 -0.2167
43.8800 14.6103 -0.2186
43.9000 14.6170 -0.2190
43.9200 14.6236 -0.2213
43.9400 14.6302 -0.2214
43.9600 14.6368 -0.2186
43.9800 14.6435 -0.2233
44.0000 14.6502 -0.2207
44.0200 14.6569 -0.2165
44.0400 14.6636 -0.2307
44.0600 14.6703 -0.2157
44.0800 14.6769 -0.2136
44.1000 14.6836 -0.2274
44.1200 14.6903 -0.2163
44.1400 14.6969 -0.2142
44.1600 14.7035 -0.2308
44.1800 14.7102 -0.2169
44.2000 14.7169 -0.2203
44.2200 14.7236 -0.2287
44.2400 14.7303 -0.2180
44.2600 14.7370 -0.2180
44.2800 14.7436 -0.2316
44.3000 14.7502 -0.2121
44.3200 14.7568 -0.2148
44.3400 14.7634 -0.2283
44.3600 14.7701 -0.2206
44.3800 14.7768 -0.2201
44.4000 14.7835 -0.2244
44.4200 14.7902 -0.2151
44.4400 14.7969 -0.2223
44.4600 14.8036 -0.2300
44.4800 14.8102 -0.2126
44.5000 14.8168 -0.2238
44.5200 14.8235 -0.2198
44.5400 14.8302 -0.2165
44.5600 14.8369 -0.2212
44.5800 14.8436 -0.2279
44.6000 14.8503 -0.2191
44.6200 14.8570 -0.2178
44.6400 14.8637 -0.2201
44.6600 14.8703 -0.2216
44.6800 14.8769 -0.2191
44.7000 14.8836 -0.2196
44.7200 14.8903 -0.2186
44.7400 14.8969 -0.2218
44.7600 14.9036 -0.2243
44.7800 14.9103 -0.2221
44.8000 14.9170 -0.2247
44.8200 14.9237 -0.2215
44.8400 14.9303 -0.2184
44.8600 14.9368 -0.2253
44.8800 14.9435 -0.2166
44.9000 14.9501 -0.2213
44.9200 14.9569 -0.2219
44.9400 14.9636 -0.2173
44.9600 14.9703 -0.2237
44.9800 14.9769 -0.2227
45.0000 14.9836 -0.2226
45.0200 14.9902 -0.2256
45.0400 14.9968 -0.2202
45.0600 15.0035 -0.2208
45.0800 15.0102 -0.2270
45.1000 15.0169 -0.2230
45.1200 15.0236 -0.2196
45.1400 15.0302 -0.2260
45.1600 15.0369 -0.2212
45.1800 15.0436 -0.2233
45.2000 15.0503 -0.2270
45.2200 15.0569 -0.2171
45.2400 15.0635 -0.2260
45.2600 15.0702 -0.2221
45.2800 15.0769 -0.2234
45.3000 15.0836 -0.2269
45.3200 15.0903 -0.2221
45.3400 15.0970 -0.2191
45.3600 15.1037 -0.2263
45.3800 15.1103 -0.2232
45.4000 15.1168 -0.2220
45.4200 15.1235 -0.2256
45.4400 15.1302 -0.2216
45.4600 15.1369 -0.2200
45.4800 15.1437 -0.2286
45.5000 15.1503 -0.2187
45.5200 15.1570 -0.2232
45.5400 15.1636 -0.2288
45.5600 15.1702 -0.2169
45.5800 15.1768 -0.2261
45.6000 15.1835 -0.2319
45.6200 15.1902 -0.2166
45.6400 15.1969 -0.2267
45.6600 15.2036 -0.2351
45.6800 15.2103 -0.2134
45.7000 15.2169 -0.2270
45.7200 15.2236 -0.2307
45.7400 15.2303 -0.2176
45.7600 15.2369 -0.2286
45.7800 15.2435 -0.2315
45.8000 15.2502 -0.2189
45.8200 15.2569 -0.2282
45.8400 15.2635 -0.2275
45.8600 15.2702 -0.2239
45.8800 15.2769 -0.2262
45.9000 15.2836 -0.2295
45.9200 15.2903 -0.2197
45.9400 15.2969 -0.2272
45.9600 15.3035 -0.2250
45.9800 15.3102 -0.2257
46.0000 15.3169 -0.2300
46.0200 15.3236 -0.2278
46.0400 15.3303 -0.2269
46.0600 15.3370 -0.2257
46.0800 15.3436 -0.2289
46.1000 15.3503 -0.2294
46.1200 15.3569 -0.2270
46.1400 15.3635 -0.2239
46.1600 15.3702 -0.2279
46.1800 15.3769 -0.2248
46.2000 15.3836 -0.2311
46.2200 15.3903 -0.2266
46.2400 15.3970 -0.2277
46.2600 15.4037 -0.2308
46.2800 15.4103 -0.2291
46.3000 15.4169 -0.2229
46.3200 15.4235 -0.2295
46.3400 15.4302 -0.2283
46.3600 15.4369 -0.2273
46.3800 15.4436 -0.2288
46.4000 15.4503 -0.2299
46.4200 15.4570 -0.2273
46.4400 15.4636 -0.2368
46.4600 15.4703 -0.2305
46.4800 15.4768 -0.2211
46.5000 15.4834 -0.2314
46.5200 15.4901 -0.2312
46.5400 15.4968 -0.2226
46.5600 15.5036 -0.2332
46.5800 15.5103 -0.2302
46.6000 15.5169 -0.2260
46.6200 15.5236 -0.2338
46.6400 15.5302 -0.2303
46.6600 15.5368 -0.2274
46.6800 15.5435 -0.2322
46.7000 15.5502 -0.2249
46.7200 15.5569 -0.2290
46.7400 15.5636 -0.2347
46.7600 15.5703 -0.2214
46.7800 15.5770 -0.2328
46.8000 15.5837 -0.2326
46.8200 15.5903 -0.2262
46.8400 15.5969 -0.2274
46.8600 15.6035 -0.2372
46.8800 15.6102 -0.2285
46.9000 15.6169 -0.2343
46.9200 15.6236 -0.2321
46.9400 15.6303 -0.2266
46.9600 15.6370 -0.2275
46.9800 15.6436 -0.2343
47.0000 15.6502 -0.2274
47.0200 15.6568 -0.2305
47.0400 15.6635 -0.2287
47.0600 15.6702 -0.2304
47.0800 15.6769 -0.2292
47.1000 15.6836 -0.2302
47.1200 15.6903 -0.2317
47.1400 15.6969 -0.2294
47.1600 15.7036 -0.2320
47.1800 15.7103 -0.2299
47.2000 15.7169 -0.2283
47.2200 15.7235 -0.2367
47.2400 15.7302 -0.2268
47.2600 15.7369 -0.2293
47.2800 15.7436 -0.2360
47.3000 15.7502 -0.2276
47.3200 15.7569 -0.2296
47.3400 15.7636 -0.2341
47.3600 15.7703 -0.2340
47.3800 15.7769 -0.2234
47.4000 15.7835 -0.2305
47.4200 15.7902 -0.2280
47.4400 15.7969 -0.2338
47.4600 15.8036 -0.2354
47.4800 15.8103 -0.2290
47.5000 15.8170 -0.2342
47.5200 15.8236 -0.2331
47.5400 15.8303 -0.2314
47.5600 15.8369 -0.2336
47.5800 15.8435 -0.2275
47.6000 15.8502 -0.2310
47.6200 15.8569 -0.2311
47.6400 15.8636 -0.2355
47.6600 15.8703 -0.2290
47.6800 15.8770 -0.2382
47.7000 15.8836 -0.2285
47.7200 15.8903 -0.2294
47.7400 15.8969 -0.2419
47.7600 15.9035 -0.2264
47.7800 15.9102 -0.2289
47.8000 15.9169 -0.2372
47.8200 15.9235 -0.2247
47.8400 15.9302 -0.2307
47.8600 15.9369 -0.2386
47.8800 15.9436 -0.2279
47.9000 15.9503 -0.2337
47.9200 15.9569 -0.2375
47.9400 15.9635 -0.2248
47.9600 15.9701 -0.2322
47.9800 15.9768 -0.2390
48.0000 15.9836 -0.2259
48.0200 15.9903 -0.2373
48.0400 15.9969 -0.2298
48.0600 16.0036 -0.2285
48.0800 16.0103 -0.2401
48.1000 16.0169 -0.2305
48.1200 16.0235 -0.2299
48.1400 16.0302 -0.2403
48.1600 16.0369 -0.2290
48.1800 16.0437 -0.2304
48.2000 16.0503 -0.2374
48.2200 16.0570 -0.2315
48.2400 16.0636 -0.2323
48.2600 16.0703 -0.2325
48.2800 16.0769 -0.2328
48.3000 16.0835 -0.2354
48.3200 16.0902 -0.2292
48.3400 16.0969 -0.2340
48.3600 16.1036 -0.2333
48.3800 16.1103 -0.2305
48.4000 16.1170 -0.2384
48.4200 16.1236 -0.2306
48.4400 16.1303 -0.2267
48.4600 16.1369 -0.2350
48.4800 16.1435 -0.2304
48.5000 16.1501 -0.2268
48.5200 16.1568 -0.2375
48.5400 16.1636 -0.2325
48.5600 16.1702 -0.2269
48.5800 16.1769 -0.2352
48.6000 16.1836 -0.2352
48.6200 16.1903 -0.2271
48.6400 16.1969 -0.2400
48.6600 16.2035 -0.2227
48.6800 16.2101 -0.2244
48.7000 16.2168 -0.2382
48.7200 16.2236 -0.2313
48.7400 16.2302 -0.2288
48.7600 16.2369 -0.2393
48.7800 16.2436 -0.2308
48.8000 16.2502 -0.2290
48.8200 16.2569 -0.2349
48.8400 16.2635 -0.2329
48.8600 16.2702 -0.2274
48.8800 16.2769 -0.2318
48.9000 16.2836 -0.2294
48.9200 16.2903 -0.2310
48.9400 16.2970 -0.2370
48.9600 16.3037 -0.2272
48.9800 16.3103 -0.2294
49.0000 16.3169 -0.2361
49.0200 16.3235 -0.2330
49.0400 16.3302 -0.2283
49.0600 16.3369 -0.2317
49.0800 16.3436 -0.2249
49.1000 16.3503 -0.2361
49.1200 16.3570 -0.2356
49.1400 16.3636 -0.2231
49.1600 16.3703 -0.2355
49.1800 16.3769 -0.2387
49.2000 16.3835 -0.2198
49.2200 16.3902 -0.2326
49.2400 16.3969 -0.2391
49.2600 16.4036 -0.2273
49.2800 16.4102 -0.2300
49.3000 16.4169 -0.2341
49.3200 16.4236 -0.2249
49.3400 16.4302 -0.2349
49.3600 16.4369 -0.2397
49.3800 16.4435 -0.2258
49.4000 16.4501 -0.2305
49.4200 16.4568 -0.2374
49.4400 16.4635 -0.2227
49.4600 16.4702 -0.2310
49.4800 16.4769 -0.2368
49.5000 16.4836 -0.2234
49.5200 16.4903 -0.2326
49.5400 16.4969 -0.2380
49.5600 16.5035 -0.2270
49.5800 16.5102 -0.2306
49.6000 16.5169 -0.2369
49.6200 16.5236 -0.2300
49.6400 16.5303 -0.2316
49.6600 16.5370 -0.2354
49.6800 16.5436 -0.2309
49.7000 16.5503 -0.2243
49.7200 16.5569 -0.2383
49.7400 16.5635 -0.2278
49.7600 16.5702 -0.2258
49.7800 16.5769 -0.2339
49.8000 16.5836 -0.2303
49.8200 16.5903 -0.2288
49.8400 16.5969 -0.2339
49.8600 16.6036 -0.2325
49.8800 16.6103 -0.2293
49.9000 16.6170 -0.2321
49.9200 16.6236 -0.2323
49.9400 16.6302 -0.2236
49.9600 16.6369 -0.2397
49.9800 16.6436 -0.2328
50.0000 16.6503 -0.2273
50.0200 16.6570 -0.2363
50.0400 16.6636 -0.2306
50.0600 16.6703 -0.2331
50.0800 16.6769 -0.2371
50.1000 16.6835 -0.2267
50.1200 16.6901 -0.2249
50.1400 16.6968 -0.2383
50.1600 16.7035 -0.2341
50.1800 16.7102 -0.2270
50.2000 16.7169 -0.2377
50.2200 16.7236 -0.2366
50.2400 16.7303 -0.2313
50.2600 16.7369 -0.2369
50.2800 16.7435 -0.2258
50.3000 16.7502 -0.2295
50.3200 16.7569 -0.2335
50.3400 16.7636 -0.2332
50.3600 16.7703 -0.2292
50.3800 16.7769 -0.2417
50.4000 16.7836 -0.2291
50.4200 16.7903 -0.2279
50.4400 16.7969 -0.2397
50.4600 16.8035 -0.2325
50.4800 16.8102 -0.2272
50.5000 16.8169 -0.2355
50.5200 16.8236 -0.2315
50.5400 16.8303 -0.2346
50.5600 16.8370 -0.2433
50.5800 16.8437 -0.2315
50.6000 16.8503 -0.2310
50.6200 16.8570 -0.2445
50.6400 16.8635 -0.2345
50.6600 16.8701 -0.2285
50.6800 16.8768 -0.2440
50.7000 16.8836 -0.2291
50.7200 16.8903 -0.2336
50.7400 16.8969 -0.2450
50.7600 16.9036 -0.2290
50.7800 16.9103 -0.2319
50.8000 16.9169 -0.2444
50.8200 16.9235 -0.2303
50.8400 16.9301 -0.2321
50.8600 16.9368 -0.2428
50.8800 16.9435 -0.2303
50.9000 16.9502 -0.2296
50.9200 16.9569 -0.2470
50.9400 16.9636 -0.2273
50.9600 16.9702 -0.2374
50.9800 16.9769 -0.2452
51.0000 16.9835 -0.2266
51.0200 16.9901 -0.2339
51.0400 16.9968 -0.2431
51.0600 17.0035 -0.2284
51.0800 17.0103 -0.2331
51.1000 17.0170 -0.2453
51.1200 17.0236 -0.2317
51.1400 17.0303 -0.2363
51.1600 17.0369 -0.2444
51.1800 17.0435 -0.2272
51.2000 17.0502 -0.2399
51.2200 17.0569 -0.2425
51.2400 17.0636 -0.2363
51.2600 17.0703 -0.2368
51.2800 17.0769 -0.2365
51.3000 17.0836 -0.2366
51.3200 17.0903 -0.2375
51.3400 17.0969 -0.2419
51.3600 17.1035 -0.2324
51.3800 17.1102 -0.2388
51.4000 17.1168 -0.2351
51.4200 17.1235 -0.2380
51.4400 17.1302 -0.2359
51.4600 17.1369 -0.2299
51.4800 17.1436 -0.2338
51.5000 17.1503 -0.2377
51.5200 17.1569 -0.2355
51.5400 17.1635 -0.2446
51.5600 17.1701 -0.2386
51.5800 17.1768 -0.2301
51.6000 17.1835 -0.2273
51.6200 17.1903 -0.2425
51.6400 17.1970 -0.2423
51.6600 17.2036 -0.2257
51.6800 17.2103 -0.2353
51.7000 17.2169 -0.2367
51.7200 17.2235 -0.2282
51.7400 17.2302 -0.2376
51.7600 17.2368 -0.2375
51.7800 17.2435 -0.2319
51.8000 17.2502 -0.2378
51.8200 17.2569 -0.2297
51.8400 17.2636 -0.2285
51.8600 17.2703 -0.2462
51.8800 17.2770 -0.2392
51.9000 17.2836 -0.2169
51.9200 17.2902 -0.2370
51.9400 17.2969 -0.2363
51.9600 17.3036 -0.2373
51.9800 17.3103 -0.2411
52.0000 17.3170 -0.2223
52.0200 17.3237 -0.2277
52.0400 17.3303 -0.2448
52.0600 17.3370 -0.2330
52.0800 17.3436 -0.2323
52.1000 17.3501 -0.2388
52.1200 17.3568 -0.2322
52.1400 17.3634 -0.2263
52.1600 17.3702 -0.2428
52.1800 17.3769 -0.2392
52.2000 17.3836 -0.2340
52.2200 17.3903 -0.2244
52.2400 17.3970 -0.2361
52.2600 17.4036 -0.2436
52.2800 17.4102 -0.2313
52.3000 17.4168 -0.2349
52.3200 17.4235 -0.2285
52.3400 17.4302 -0.2369
52.3600 17.4369 -0.2460
52.3800 17.4435 -0.2308
52.4000 17.4502 -0.2232
52.4200 17.4569 -0.2391
52.4400 17.4635 -0.2345
52.4600 17.4702 -0.2285
52.4800 17.4768 -0.2364
52.5000 17.4836 -0.2389
52.5200 17.4903 -0.2318
52.5400 17.4970 -0.2360
52.5600 17.5036 -0.2333
52.5800 17.5103 -0.2375
52.6000 17.5170 -0.2397
52.6200 17.5236 -0.2248
52.6400 17.5302 -0.2304
52.6600 17.5368 -0.2423
52.6800 17.5436 -0.2298
52.7000 17.5503 -0.2367
52.7200 17.5570 -0.2401
52.7400 17.5636 -0.2312
52.7600 17.5703 -0.2389
52.7800 17.5770 -0.2379
52.8000 17.5836 -0.2316
52.8200 17.5902 -0.2406
52.8400 17.5968 -0.2273
52.8600 17.6036 -0.2279
52.8800 17.6103 -0.2435
52.9000 17.6169 -0.2319
52.9200 17.6236 -0.2349
52.9400 17.6303 -0.2395
52.9600 17.6369 -0.2344
52.9800 17.6436 -0.2400
53.0000 17.6502 -0.2396
53.0200 17.6568 -0.2243
53.0400 17.6635 -0.2391
53.0600 17.6702 -0.2384
53.0800 17.6769 -0.2273
53.1000 17.6836 -0.2365
53.1200 17.6902 -0.2428
53.1400 17.6969 -0.2273
53.1600 17.7035 -0.2391
53.1800 17.7101 -0.2358
53.2000 17.7168 -0.2312
53.2200 17.7235 -0.2381
53.2400 17.7303 -0.2344
53.2600 17.7370 -0.2275
53.2800 17.7436 -0.2385
53.3000 17.7503 -0.2393
53.3200 17.7570 -0.2304
53.3400 17.7636 -0.2369
53.3600 17.7702 -0.2367
53.3800 17.7768 -0.2290
53.4000 17.7836 -0.2412
53.4200 17.7903 -0.2420
53.4400 17.7970 -0.2283
53.4600 17.8036 -0.2333
53.4800 17.8103 -0.2414
53.5000 17.8170 -0.2318
53.5200 17.8236 -0.2327
53.5400 17.8302 -0.2442
53.5600 17.8368 -0.2272
53.5800 17.8435 -0.2345
53.6000 17.8502 -0.2437
53.6200 17.8569 -0.2309
53.6400 17.8636 -0.2275
53.6600 17.8703 -0.2414
53.6800 17.8769 -0.2308
53.7000 17.8836 -0.2354
53.7200 17.8901 -0.2432
53.7400 17.8968 -0.2333
53.7600 17.9035 -0.2320
53.7800 17.9102 -0.2352
53.8000 17.9169 -0.2344
53.8200 17.9236 -0.2421
53.8400 17.9303 -0.2312
53.8600 17.9369 -0.2336
53.8800 17.9436 -0.2344
53.9000 17.9502 -0.2344
53.9200 17.9568 -0.2377
53.9400 17.9635 -0.2394
53.9600 17.9702 -0.2311
53.9800 17.9769 -0.2308
54.0000 17.9836 -0.2359
54.0200 17.9903 -0.2340
54.0400 17.9970 -0.2401
54.0600 18.0036 -0.2285
54.0800 18.0102 -0.2239
54.1000 18.0168 -0.2440
54.1200 18.0235 -0.2384
54.1400 18.0302 -0.2230
54.1600 18.0369 -0.2423
54.1800 18.0436 -0.2408
54.2000 18.0503 -0.2302
54.2200 18.0570 -0.2292
54.2400 18.0636 -0.2419
54.2600 18.0702 -0.2414
54.2800 18.0768 -0.2213
54.3000 18.0835 -0.2244
54.3200 18.0903 -0.2535
54.3400 18.0970 -0.2326
54.3600 18.1036 -0.2259
54.3800 18.1103 -0.2409
54.4000 18.1169 -0.2314
54.4200 18.1236 -0.2354
54.4400 18.1301 -0.2411
54.4600 18.1368 -0.2250
54.4800 18.1435 -0.2407
54.5000 18.1502 -0.2362
54.5200 18.1569 -0.2295
54.5400 18.1635 -0.2459
54.5600 18.1702 -0.2328
54.5800 18.1769 -0.2249
54.6000 18.1836 -0.2490
54.6200 18.1902 -0.2403
54.6400 18.1968 -0.2210
54.6600 18.2035 -0.2385
54.6800 18.2102 -0.2366
54.7000 18.2169 -0.2262
54.7200 18.2236 -0.2430
54.7400 18.2303 -0.2426
54.7600 18.2370 -0.2273
54.7800 18.2436 -0.2372
54.8000 18.2502 -0.2416
54.8200 18.2568 -0.2394
54.8400 18.2635 -0.2354
54.8600 18.2703 -0.2352
54.8800 18.2770 -0.2323
54.9000 18.2836 -0.2398
54.9200 18.2903 -0.2361
54.9400 18.2970 -0.2363
54.9600 18.3036 -0.2428
54.9800 18.3102 -0.2301
55.0000 18.3168 -0.2277
55.0200 18.3235 -0.2539
55.0400 18.3302 -0.2369
55.0600 18.3369 -0.2224
55.0800 18.3436 -0.2433
55.1000 18.3503 -0.2334
55.1200 18.3569 -0.2365
55.1400 18.3636 -0.2470
55.1600 18.3702 -0.2353
55.1800 18.3768 -0.2289
55.2000 18.3834 -0.2360
55.2200 18.3902 -0.2429
55.2400 18.3969 -0.2498
55.2600 18.4035 -0.2282
55.2800 18.4102 -0.2242
55.3000 18.4169 -0.2481
55.3200 18.4236 -0.2431
55.3400 18.4302 -0.2254
55.3600 18.4368 -0.2464
55.3800 18.4435 -0.2331
55.4000 18.4502 -0.2285
55.4200 18.4570 -0.2469
55.4400 18.4636 -0.2443
55.4600 18.4703 -0.2278
55.4800 18.4770 -0.2389
55.5000 18.4836 -0.2354
55.5200 18.4902 -0.2341
55.5400 18.4969 -0.2403
55.5600 18.5036 -0.2381
55.5800 18.5102 -0.2376
55.6000 18.5169 -0.2344
55.6200 18.5236 -0.2291
55.6400 18.5303 -0.2475
55.6600 18.5370 -0.2487
55.6800 18.5436 -0.2222
55.7000 18.5502 -0.2352
55.7200 18.5568 -0.2481
55.7400 18.5635 -0.2357
55.7600 18.5702 -0.2320
55.7800 18.5769 -0.2377
55.8000 18.5836 -0.2347
55.8200 18.5903 -0.2377
55.8400 18.5970 -0.2404
55.8600 18.6036 -0.2399
55.8800 18.6102 -0.2353
55.9000 18.6168 -0.2283
55.9200 18.6235 -0.2289
55.9400 18.6302 -0.2472
55.9600 18.6369 -0.2369
55.9800 18.6436 -0.2285
56.0000 18.6502 -0.2335
56.0200 18.6569 -0.2431
56.0400 18.6636 -0.2392
56.0600 18.6702 -0.2363
56.0800 18.6769 -0.2322
56.1000 18.6835 -0.2321
56.1200 18.6902 -0.2393
56.1400 18.6969 -0.2372
56.1600 18.7036 -0.2343
56.1800 18.7103 -0.2410
56.2000 18.7170 -0.2314
56.2200 18.7236 -0.2348
56.2400 18.7302 -0.2427
56.2600 18.7368 -0.2340
56.2800 18.7435 -0.2316
56.3000 18.7502 -0.2380
56.3200 18.7569 -0.2324
56.3400 18.7636 -0.2371
56.3600 18.7703 -0.2470
56.3800 18.7770 -0.2301
56.4000 18.7836 -0.2369
56.4200 18.7902 -0.2392
56.4400 18.7968 -0.2333
56.4600 18.8035 -0.2387
56.4800 18.8102 -0.2362
56.5000 18.8169 -0.2333
56.5200 18.8236 -0.2394
56.5400 18.8303 -0.2380
56.5600 18.8369 -0.2360
56.5800 18.8436 -0.2325
56.6000 18.8502 -0.2424
56.6200 18.8568 -0.2347
56.6400 18.8634 -0.2342
56.6600 18.8702 -0.2361
56.6800 18.8769 -0.2404
56.7000 18.8836 -0.2355
56.7200 18.8902 -0.2349
56.7400 18.8969 -0.2418
56.7600 18.9036 -0.2363
56.7800 18.9102 -0.2351
56.8000 18.9168 -0.2416
56.8200 18.9235 -0.2349
56.8400 18.9302 -0.2368
56.8600 18.9369 -0.2442
56.8800 18.9436 -0.2298
56.9000 18.9503 -0.2384
56.9200 18.9570 -0.2420
56.9400 18.9636 -0.2320
56.9600 18.9702 -0.2324
56.9800 18.9768 -0.2419
57.0000 18.9835 -0.2352
57.0200 18.9902 -0.2397
57.0400 18.9970 -0.2381
57.0600 19.0036 -0.2348
57.0800 19.0103 -0.2416
57.1000 19.0170 -0.2375
57.1200 19.0236 -0.2273
57.1400 19.0302 -0.2453
57.1600 19.0368 -0.2338
57.1800 19.0435 -0.2296
57.2000 19.0502 -0.2426
57.2200 19.0569 -0.2370
57.2400 19.0636 -0.2330
57.2600 19.0703 -0.2412
57.2800 19.0770 -0.2339
57.3000 19.0836 -0.2378
57.3200 19.0902 -0.2420
57.3400 19.0968 -0.2272
57.3600 19.1035 -0.2391
57.3800 19.1102 -0.2389
57.4000 19.1169 -0.2328
57.4200 19.1236 -0.2458
57.4400 19.1302 -0.2341
57.4600 19.1369 -0.2275
57.4800 19.1436 -0.2496
57.5000 19.1502 -0.2353
57.5200 19.1568 -0.2305
57.5400 19.1635 -0.2415
57.5600 19.1702 -0.2331
57.5800 19.1769 -0.2277
57.6000 19.1836 -0.2508
57.6200 19.1903 -0.2316
57.6400 19.1970 -0.2294
57.6600 19.2036 -0.2468
57.6800 19.2103 -0.2376
57.7000 19.2169 -0.2300
57.7200 19.2235 -0.2466
57.7400 19.2302 -0.2389
57.7600 19.2369 -0.2286
57.7800 19.2437 -0.2427
57.8000 19.2503 -0.2434
57.8200 19.2570 -0.2284
57.8400 19.2636 -0.2460
57.8600 19.2702 -0.2366
57.8800 19.2768 -0.2324
57.9000 19.2835 -0.2442
57.9200 19.2902 -0.2369
57.9400 19.2969 -0.2371
57.9600 19.3035 -0.2420
57.9800 19.3102 -0.2313
58.0000 19.3169 -0.2364
58.0200 19.3236 -0.2467
58.0400 19.3302 -0.2348
58.0600 19.3368 -0.2435
58.0800 19.3435 -0.2406
58.1000 19.3502 -0.2326
58.1200 19.3569 -0.2477
58.1400 19.3635 -0.2382
58.1600 19.3702 -0.2374
58.1800 19.3769 -0.2503
58.2000 19.3836 -0.2284
58.2200 19.3902 -0.2435
58.2400 19.3969 -0.2442
58.2600 19.4035 -0.2369
58.2800 19.4102 -0.2429
58.3000 19.4169 -0.2408
58.3200 19.4236 -0.2305
58.3400 19.4303 -0.2490
58.3600 19.4370 -0.2528
58.3800 19.4437 -0.2291
58.4000 19.4503 -0.2294
58.4200 19.4568 -0.2530
58.4400 19.4635 -0.2397
58.4600 19.4702 -0.2310
58.4800 19.4769 -0.2591
58.5000 19.4836 -0.2398
58.5200 19.4903 -0.2060
58.5400 19.4970 -0.2653
58.5600 19.5036 -0.2625
58.5800 19.5102 -0.2010
58.6000 19.5169 -0.2494
58.6200 19.5235 -0.2503
58.6400 19.5302 -0.2127
58.6600 19.5369 -0.2705
58.6800 19.5436 -0.2447
58.7000 19.5502 -0.1997
58.7200 19.5569 -0.2820
58.7400 19.5636 -0.2323
58.7600 19.5702 -0.2036
58.7800 19.5768 -0.2875
58.8000 19.5834 -0.2430
58.8200 19.5901 -0.1834
58.8400 19.5969 -0.2808
58.8600 19.6036 -0.2510
58.8800 19.6102 -0.1959
58.9000 19.6169 -0.2926
58.9200 19.6236 -0.2483
58.9400 19.6302 -0.1803
58.9600 19.6368 -0.2763
58.9800 19.6435 -0.2775
59.0000 19.6502 -0.1912
59.0200 19.6569 -0.2484
59.0400 19.6636 -0.2787
59.0600 19.6703 -0.2042
59.0800 19.6770 -0.2482
59.1000 19.6837 -0.2751
59.1200 19.6903 -0.2140
59.1400 19.6969 -0.2618
59.1600 19.7035 -0.2539
59.1800 19.7102 -0.2096
59.2000 19.7169 -0.2705
59.2200 19.7236 -0.2512
59.2400 19.7303 -0.2201
59.2600 19.7369 -0.2769
59.2800 19.7436 -0.2349
59.3000 19.7502 -0.2186
