Raw Data
Time Displacement Force
(s) (mm) (N)
0.0000 0.0000 -0.0002
0.0200 -0.0001 -0.0036
0.0400 -0.0019 -0.0192
0.0600 -0.0091 -0.0184
0.0800 -0.0210 -0.0070
0.1000 -0.0336 -0.0065
0.1200 -0.0462 -0.0067
0.1400 -0.0595 -0.0076
0.1600 -0.0734 -0.0072
0.1800 -0.0875 -0.0064
0.2000 -0.1014 -0.0067
0.2200 -0.1150 -0.0073
0.2400 -0.1284 -0.0092
0.2600 -0.1418 -0.0079
0.2800 -0.1552 -0.0090
0.3000 -0.1685 -0.0100
0.3200 -0.1818 -0.0096
0.3400 -0.1952 -0.0100
0.3600 -0.2085 -0.0095
0.3800 -0.2219 -0.0100
0.4000 -0.2352 -0.0120
0.4200 -0.2485 -0.0108
0.4400 -0.2618 -0.0100
0.4600 -0.2751 -0.0097
0.4800 -0.2884 -0.0114
0.5000 -0.3017 -0.0115
0.5200 -0.3150 -0.0134
0.5400 -0.3284 -0.0130
0.5600 -0.3418 -0.0110
0.5800 -0.3551 -0.0110
0.6000 -0.3685 -0.0132
0.6200 -0.3819 -0.0122
0.6400 -0.3953 -0.0130
0.6600 -0.4086 -0.0116
0.6800 -0.4218 -0.0145
0.7000 -0.4352 -0.0117
0.7200 -0.4485 -0.0129
0.7400 -0.4619 -0.0143
0.7600 -0.4752 -0.0143
0.7800 -0.4885 -0.0135
0.8000 -0.5018 -0.0145
0.8200 -0.5152 -0.0132
0.8400 -0.5285 -0.0129
0.8600 -0.5418 -0.0110
0.8800 -0.5551 -0.0113
0.9000 -0.5684 -0.0128
0.9200 -0.5818 -0.0120
0.9400 -0.5951 -0.0138
0.9600 -0.6084 -0.0133
0.9800 -0.6217 -0.0145
1.0000 -0.6351 -0.0128
1.0200 -0.6484 -0.0140
1.0400 -0.6617 -0.0150
1.0600 -0.6751 -0.0133
1.0800 -0.6885 -0.0128
1.1000 -0.7018 -0.0128
1.1200 -0.7151 -0.0123
1.1400 -0.7284 -0.0138
1.1600 -0.7418 -0.0131
1.1800 -0.7551 -0.0142
1.2000 -0.7685 -0.0146
1.2200 -0.7817 -0.0116
1.2400 -0.7951 -0.0149
1.2600 -0.8084 -0.0162
1.2800 -0.8218 -0.0168
1.3000 -0.8351 -0.0143
1.3200 -0.8484 -0.0161
1.3400 -0.8618 -0.0156
1.3600 -0.8752 -0.0161
1.3800 -0.8885 -0.0150
1.4000 -0.9018 -0.0152
1.4200 -0.9151 -0.0132
1.4400 -0.9285 -0.0145
1.4600 -0.9418 -0.0146
1.4800 -0.9551 -0.0154
1.5000 -0.9685 -0.0132
1.5200 -0.9818 -0.0152
1.5400 -0.9951 -0.0147
1.5600 -1.0084 -0.0148
1.5800 -1.0217 -0.0160
1.6000 -1.0351 -0.0165
1.6200 -1.0484 -0.0162
1.6400 -1.0618 -0.0174
1.6600 -1.0751 -0.0157
1.6800 -1.0884 -0.0166
1.7000 -1.1018 -0.0169
1.7200 -1.1152 -0.0162
1.7400 -1.1285 -0.0172
1.7600 -1.1418 -0.0144
1.7800 -1.1552 -0.0156
1.8000 -1.1685 -0.0176
1.8200 -1.1819 -0.0192
1.8400 -1.1952 -0.0169
1.8600 -1.2085 -0.0180
1.8800 -1.2218 -0.0161
1.9000 -1.2351 -0.0160
1.9200 -1.2484 -0.0170
1.9400 -1.2617 -0.0204
1.9600 -1.2750 -0.0187
1.9800 -1.2884 -0.0182
2.0000 -1.3018 -0.0159
2.0200 -1.3151 -0.0180
2.0400 -1.3284 -0.0176
2.0600 -1.3418 -0.0213
2.0800 -1.3552 -0.0169
2.1000 -1.3686 -0.0182
2.1200 -1.3819 -0.0197
2.1400 -1.3952 -0.0196
2.1600 -1.4085 -0.0182
2.1800 -1.4218 -0.0182
2.2000 -1.4352 -0.0160
2.2200 -1.4485 -0.0183
2.2400 -1.4618 -0.0195
2.2600 -1.4751 -0.0184
2.2800 -1.4884 -0.0184
2.3000 -1.5017 -0.0196
2.3200 -1.5150 -0.0175
2.3400 -1.5284 -0.0177
2.3600 -1.5418 -0.0186
2.3800 -1.5551 -0.0188
2.4000 -1.5684 -0.0195
2.4200 -1.5818 -0.0195
2.4400 -1.5952 -0.0186
2.4600 -1.6086 -0.0162
2.4800 -1.6218 -0.0194
2.5000 -1.6351 -0.0181
2.5200 -1.6484 -0.0184
2.5400 -1.6618 -0.0187
2.5600 -1.6751 -0.0196
2.5800 -1.6884 -0.0174
2.6000 -1.7018 -0.0185
2.6200 -1.7151 -0.0178
2.6400 -1.7285 -0.0189
2.6600 -1.7418 -0.0192
2.6800 -1.7551 -0.0171
2.7000 -1.7685 -0.0169
2.7200 -1.7818 -0.0169
2.7400 -1.7952 -0.0172
2.7600 -1.8085 -0.0175
2.7800 -1.8218 -0.0172
2.8000 -1.8352 -0.0156
2.8200 -1.8485 -0.0170
2.8400 -1.8618 -0.0171
2.8600 -1.8751 -0.0178
2.8800 -1.8884 -0.0158
2.9000 -1.9018 -0.0180
2.9200 -1.9151 -0.0171
2.9400 -1.9285 -0.0164
2.9600 -1.9418 -0.0173
2.9800 -1.9551 -0.0172
3.0000 -1.9685 -0.0154
3.0200 -1.9818 -0.0177
3.0400 -1.9951 -0.0168
3.0600 -2.0084 -0.0163
3.0800 -2.0218 -0.0174
3.1000 -2.0351 -0.0169
3.1200 -2.0484 -0.0167
3.1400 -2.0618 -0.0172
3.1600 -2.0752 -0.0145
3.1800 -2.0885 -0.0147
3.2000 -2.1019 -0.0170
3.2200 -2.1152 -0.0158
3.2400 -2.1285 -0.0171
3.2600 -2.1419 -0.0190
3.2800 -2.1552 -0.0180
3.3000 -2.1685 -0.0191
3.3200 -2.1818 -0.0196
3.3400 -2.1952 -0.0165
3.3600 -2.2085 -0.0169
3.3800 -2.2218 -0.0188
3.4000 -2.2351 -0.0181
3.4200 -2.2484 -0.0153
3.4400 -2.2618 -0.0184
3.4600 -2.2751 -0.0156
3.4800 -2.2884 -0.0173
3.5000 -2.3018 -0.0162
3.5200 -2.3151 -0.0165
3.5400 -2.3285 -0.0162
3.5600 -2.3418 -0.0190
3.5800 -2.3551 -0.0151
3.6000 -2.3685 -0.0181
3.6200 -2.3818 -0.0165
3.6400 -2.3952 -0.0167
3.6600 -2.4085 -0.0157
3.6800 -2.4218 -0.0175
3.7000 -2.4351 -0.0173
3.7200 -2.4485 -0.0166
3.7400 -2.4618 -0.0186
3.7600 -2.4751 -0.0180
3.7800 -2.4884 -0.0161
3.8000 -2.5018 -0.0160
3.8200 -2.5151 -0.0152
3.8400 -2.5284 -0.0162
3.8600 -2.5418 -0.0174
3.8800 -2.5551 -0.0165
3.9000 -2.5685 -0.0165
3.9200 -2.5818 -0.0172
3.9400 -2.5951 -0.0169
3.9600 -2.6085 -0.0165
3.9800 -2.6218 -0.0179
4.0000 -2.6352 -0.0174
4.0200 -2.6485 -0.0166
4.0400 -2.6618 -0.0174
4.0600 -2.6752 -0.0178
4.0800 -2.6885 -0.0192
4.1000 -2.7018 -0.0177
4.1200 -2.7151 -0.0172
4.1400 -2.7284 -0.0167
4.1600 -2.7418 -0.0182
4.1800 -2.7551 -0.0192
4.2000 -2.7685 -0.0184
4.2200 -2.7818 -0.0189
4.2400 -2.7952 -0.0169
4.2600 -2.8086 -0.0183
4.2800 -2.8219 -0.0195
4.3000 -2.8351 -0.0189
4.3200 -2.8485 -0.0164
4.3400 -2.8618 -0.0183
4.3600 -2.8751 -0.0152
4.3800 -2.8884 -0.0164
4.4000 -2.9018 -0.0172
4.4200 -2.9151 -0.0170
4.4400 -2.9285 -0.0168
4.4600 -2.9418 -0.0202
4.4800 -2.9551 -0.0193
4.5000 -2.9684 -0.0173
4.5200 -2.9818 -0.0174
4.5400 -2.9952 -0.0170
4.5600 -3.0085 -0.0173
4.5800 -3.0218 -0.0183
4.6000 -3.0352 -0.0164
4.6200 -3.0485 -0.0154
4.6400 -3.0619 -0.0185
4.6600 -3.0751 -0.0183
4.6800 -3.0885 -0.0193
4.7000 -3.1018 -0.0189
4.7200 -3.1152 -0.0190
4.7400 -3.1285 -0.0189
4.7600 -3.1418 -0.0187
4.7800 -3.1551 -0.0181
4.8000 -3.1685 -0.0179
4.8200 -3.1818 -0.0211
4.8400 -3.1951 -0.0181
4.8600 -3.2084 -0.0177
4.8800 -3.2218 -0.0186
4.9000 -3.2351 -0.0169
4.9200 -3.2484 -0.0174
4.9400 -3.2617 -0.0185
4.9600 -3.2751 -0.0183
4.9800 -3.2885 -0.0175
5.0000 -3.3018 -0.0169
5.0200 -3.3151 -0.0179
5.0400 -3.3285 -0.0164
5.0600 -3.3418 -0.0165
5.0800 -3.3552 -0.0155
5.1000 -3.3685 -0.0155
5.1200 -3.3818 -0.0157
5.1400 -3.3952 -0.0173
5.1600 -3.4085 -0.0159
5.1800 -3.4218 -0.0165
5.2000 -3.4351 -0.0159
5.2200 -3.4484 -0.0169
5.2400 -3.4617 -0.0188
5.2600 -3.4750 -0.0191
5.2800 -3.4884 -0.0180
5.3000 -3.5017 -0.0200
5.3200 -3.5151 -0.0196
5.3400 -3.5285 -0.0164
5.3600 -3.5418 -0.0194
5.3800 -3.5552 -0.0201
5.4000 -3.5685 -0.0185
5.4200 -3.5819 -0.0204
5.4400 -3.5952 -0.0181
5.4600 -3.6085 -0.0203
5.4800 -3.6218 -0.0182
5.5000 -3.6351 -0.0188
5.5200 -3.6485 -0.0174
5.5400 -3.6618 -0.0166
5.5600 -3.6751 -0.0186
5.5800 -3.6884 -0.0179
5.6000 -3.7018 -0.0166
5.6200 -3.7151 -0.0185
5.6400 -3.7285 -0.0176
5.6600 -3.7418 -0.0200
5.6800 -3.7552 -0.0182
5.7000 -3.7686 -0.0176
5.7200 -3.7819 -0.0184
5.7400 -3.7952 -0.0179
5.7600 -3.8085 -0.0159
5.7800 -3.8218 -0.0168
5.8000 -3.8352 -0.0178
5.8200 -3.8485 -0.0162
5.8400 -3.8618 -0.0177
5.8600 -3.8751 -0.0156
5.8800 -3.8885 -0.0148
5.9000 -3.9018 -0.0142
5.9200 -3.9151 -0.0158
5.9400 -3.9284 -0.0160
5.9600 -3.9417 -0.0177
5.9800 -3.9551 -0.0160
6.0000 -3.9684 -0.0180
6.0200 -3.9818 -0.0162
6.0400 -3.9951 -0.0189
6.0600 -4.0085 -0.0157
6.0800 -4.0218 -0.0150
6.1000 -4.0352 -0.0156
6.1200 -4.0485 -0.0151
6.1400 -4.0618 -0.0167
6.1600 -4.0752 -0.0169
6.1800 -4.0885 -0.0153
6.2000 -4.1018 -0.0166
6.2200 -4.1151 -0.0165
6.2400 -4.1285 -0.0170
6.2600 -4.1418 -0.0184
6.2800 -4.1550 -0.0171
6.3000 -4.1684 -0.0179
6.3200 -4.1817 -0.0187
6.3400 -4.1951 -0.0187
6.3600 -4.2084 -0.0153
6.3800 -4.2217 -0.0162
6.4000 -4.2351 -0.0185
6.4200 -4.2485 -0.0159
6.4400 -4.2619 -0.0191
6.4600 -4.2752 -0.0175
6.4800 -4.2885 -0.0157
6.5000 -4.3019 -0.0172
6.5200 -4.3152 -0.0181
6.5400 -4.3285 -0.0160
6.5600 -4.3418 -0.0173
6.5800 -4.3551 -0.0183
6.6000 -4.3685 -0.0178
6.6200 -4.3818 -0.0174
6.6400 -4.3951 -0.0160
6.6600 -4.4084 -0.0170
6.6800 -4.4218 -0.0186
6.7000 -4.4351 -0.0189
6.7200 -4.4484 -0.0152
6.7400 -4.4618 -0.0196
6.7600 -4.4751 -0.0186
6.7800 -4.4885 -0.0158
6.8000 -4.5018 -0.0188
6.8200 -4.5151 -0.0192
6.8400 -4.5285 -0.0178
6.8600 -4.5418 -0.0156
6.8800 -4.5552 -0.0183
6.9000 -4.5685 -0.0169
6.9200 -4.5818 -0.0179
6.9400 -4.5952 -0.0170
6.9600 -4.6085 -0.0144
6.9800 -4.6218 -0.0172
7.0000 -4.6351 -0.0183
7.0200 -4.6484 -0.0166
7.0400 -4.6618 -0.0151
7.0600 -4.6751 -0.0173
7.0800 -4.6884 -0.0153
7.1000 -4.7017 -0.0173
7.1200 -4.7151 -0.0182
7.1400 -4.7285 -0.0166
7.1600 -4.7419 -0.0162
7.1800 -4.7552 -0.0175
7.2000 -4.7685 -0.0166
7.2200 -4.7818 -0.0154
7.2400 -4.7952 -0.0173
7.2600 -4.8085 -0.0138
7.2800 -4.8218 -0.0170
7.3000 -4.8351 -0.0151
7.3200 -4.8484 -0.0167
7.3400 -4.8617 -0.0171
7.3600 -4.8750 -0.0197
7.3800 -4.8884 -0.0161
7.4000 -4.9017 -0.0167
7.4200 -4.9151 -0.0178
7.4400 -4.9284 -0.0156
7.4600 -4.9417 -0.0183
7.4800 -4.9551 -0.0168
7.5000 -4.9685 -0.0183
7.5200 -4.9819 -0.0165
7.5400 -4.9952 -0.0179
7.5600 -5.0085 -0.0139
7.5800 -5.0218 -0.0175
7.6000 -5.0352 -0.0162
7.6200 -5.0485 -0.0172
7.6400 -5.0618 -0.0155
7.6600 -5.0751 -0.0182
7.6800 -5.0884 -0.0164
7.7000 -5.1017 -0.0171
7.7200 -5.1150 -0.0178
7.7400 -5.1283 -0.0173
7.7600 -5.1417 -0.0163
7.7800 -5.1551 -0.0181
7.8000 -5.1685 -0.0149
7.8200 -5.1818 -0.0149
7.8400 -5.1951 -0.0152
7.8600 -5.2085 -0.0160
7.8800 -5.2219 -0.0160
7.9000 -5.2352 -0.0173
7.9200 -5.2485 -0.0159
7.9400 -5.2618 -0.0156
7.9600 -5.2752 -0.0177
7.9800 -5.2885 -0.0157
8.0000 -5.3018 -0.0173
8.0200 -5.3151 -0.0174
8.0400 -5.3285 -0.0141
8.0600 -5.3418 -0.0147
8.0800 -5.3551 -0.0143
8.1000 -5.3684 -0.0152
8.1200 -5.3818 -0.0151
8.1400 -5.3951 -0.0152
8.1600 -5.4085 -0.0142
8.1800 -5.4218 -0.0147
8.2000 -5.4351 -0.0169
8.2200 -5.4485 -0.0153
8.2400 -5.4619 -0.0159
8.2600 -5.4751 -0.0173
8.2800 -5.4884 -0.0173
8.3000 -5.5018 -0.0141
8.3200 -5.5152 -0.0160
8.3400 -5.5285 -0.0125
8.3600 -5.5418 -0.0162
8.3800 -5.5551 -0.0156
8.4000 -5.5685 -0.0167
8.4200 -5.5818 -0.0135
8.4400 -5.5951 -0.0166
8.4600 -5.6084 -0.0151
8.4800 -5.6217 -0.0178
8.5000 -5.6351 -0.0185
8.5200 -5.6485 -0.0165
8.5400 -5.6618 -0.0157
8.5600 -5.6751 -0.0164
8.5800 -5.6885 -0.0144
8.6000 -5.7019 -0.0148
8.6200 -5.7152 -0.0169
8.6400 -5.7285 -0.0148
8.6600 -5.7418 -0.0172
8.6800 -5.7551 -0.0157
8.7000 -5.7685 -0.0146
8.7200 -5.7818 -0.0143
8.7400 -5.7951 -0.0170
8.7600 -5.8084 -0.0146
8.7800 -5.8218 -0.0151
8.8000 -5.8351 -0.0169
8.8200 -5.8484 -0.0152
8.8400 -5.8617 -0.0159
8.8600 -5.8751 -0.0144
8.8800 -5.8885 -0.0134
8.9000 -5.9018 -0.0132
8.9200 -5.9151 -0.0148
8.9400 -5.9285 -0.0148
8.9600 -5.9419 -0.0147
8.9800 -5.9552 -0.0160
9.0000 -5.9685 -0.0164
9.0200 -5.9818 -0.0141
9.0400 -5.9952 -0.0184
9.0600 -6.0085 -0.0164
9.0800 -6.0218 -0.0173
9.1000 -6.0351 -0.0181
9.1200 -6.0485 -0.0151
9.1400 -6.0618 -0.0153
9.1600 -6.0751 -0.0164
9.1800 -6.0884 -0.0159
9.2000 -6.1017 -0.0140
9.2200 -6.1151 -0.0177
9.2400 -6.1284 -0.0142
9.2600 -6.1418 -0.0155
9.2800 -6.1551 -0.0165
9.3000 -6.1685 -0.0156
9.3200 -6.1819 -0.0143
9.3400 -6.1952 -0.0167
9.3600 -6.2085 -0.0145
9.3800 -6.2218 -0.0139
9.4000 -6.2352 -0.0163
9.4200 -6.2485 -0.0148
9.4400 -6.2618 -0.0159
9.4600 -6.2751 -0.0159
9.4800 -6.2884 -0.0150
9.5000 -6.3018 -0.0122
9.5200 -6.3151 -0.0161
9.5400 -6.3284 -0.0150
9.5600 -6.3417 -0.0133
9.5800 -6.3551 -0.0172
9.6000 -6.3685 -0.0159
9.6200 -6.3818 -0.0144
9.6400 -6.3951 -0.0182
9.6600 -6.4085 -0.0170
9.6800 -6.4219 -0.0168
9.7000 -6.4352 -0.0170
9.7200 -6.4485 -0.0168
9.7400 -6.4618 -0.0183
9.7600 -6.4751 -0.0185
9.7800 -6.4885 -0.0178
9.8000 -6.5018 -0.0158
9.8200 -6.5151 -0.0173
9.8400 -6.5285 -0.0158
9.8600 -6.5418 -0.0132
9.8800 -6.5551 -0.0154
9.9000 -6.5684 -0.0158
9.9200 -6.5818 -0.0158
9.9400 -6.5951 -0.0179
9.9600 -6.6085 -0.0137
9.9800 -6.6218 -0.0168
10.0000 -6.6351 -0.0172
10.0200 -6.6485 -0.0171
10.0400 -6.6619 -0.0142
10.0600 -6.6752 -0.0177
10.0800 -6.6884 -0.0140
10.1000 -6.7017 -0.0156
10.1200 -6.7151 -0.0134
10.1400 -6.7285 -0.0128
10.1600 -6.7418 -0.0118
10.1800 -6.7551 -0.0174
10.2000 -6.7685 -0.0153
10.2200 -6.7818 -0.0137
10.2400 -6.7952 -0.0138
10.2600 -6.8085 -0.0122
10.2800 -6.8218 -0.0135
10.3000 -6.8351 -0.0158
10.3200 -6.8485 -0.0172
10.3400 -6.8618 -0.0142
10.3600 -6.8751 -0.0174
10.3800 -6.8885 -0.0139
10.4000 -6.9019 -0.0153
10.4200 -6.9152 -0.0143
10.4400 -6.9285 -0.0164
10.4600 -6.9418 -0.0134
10.4800 -6.9552 -0.0154
10.5000 -6.9685 -0.0137
10.5200 -6.9818 -0.0155
10.5400 -6.9951 -0.0149
10.5600 -7.0085 -0.0157
10.5800 -7.0218 -0.0142
10.6000 -7.0351 -0.0168
10.6200 -7.0484 -0.0178
10.6400 -7.0617 -0.0154
10.6600 -7.0751 -0.0170
10.6800 -7.0885 -0.0165
10.7000 -7.1018 -0.0139
10.7200 -7.1151 -0.0161
10.7400 -7.1284 -0.0152
10.7600 -7.1418 -0.0155
10.7800 -7.1552 -0.0163
10.8000 -7.1685 -0.0150
10.8200 -7.1818 -0.0137
10.8400 -7.1952 -0.0156
10.8600 -7.2085 -0.0145
10.8800 -7.2218 -0.0141
10.9000 -7.2351 -0.0152
10.9200 -7.2485 -0.0165
10.9400 -7.2618 -0.0138
10.9600 -7.2752 -0.0160
10.9800 -7.2884 -0.0165
11.0000 -7.3017 -0.0159
11.0200 -7.3151 -0.0170
11.0400 -7.3285 -0.0157
11.0600 -7.3418 -0.0153
11.0800 -7.3551 -0.0159
11.1000 -7.3684 -0.0161
11.1200 -7.3818 -0.0132
11.1400 -7.3952 -0.0136
11.1600 -7.4085 -0.0142
11.1800 -7.4218 -0.0156
11.2000 -7.4351 -0.0167
11.2200 -7.4485 -0.0163
11.2400 -7.4618 -0.0128
11.2600 -7.4751 -0.0178
11.2800 -7.4885 -0.0139
11.3000 -7.5018 -0.0153
11.3200 -7.5152 -0.0136
11.3400 -7.5284 -0.0141
11.3600 -7.5417 -0.0144
11.3800 -7.5551 -0.0171
11.4000 -7.5685 -0.0163
11.4200 -7.5818 -0.0138
11.4400 -7.5951 -0.0151
11.4600 -7.6085 -0.0158
11.4800 -7.6219 -0.0134
11.5000 -7.6352 -0.0152
11.5200 -7.6485 -0.0152
11.5400 -7.6618 -0.0145
11.5600 -7.6751 -0.0163
11.5800 -7.6885 -0.0140
11.6000 -7.7018 -0.0149
11.6200 -7.7151 -0.0157
11.6400 -7.7284 -0.0187
11.6600 -7.7418 -0.0138
11.6800 -7.7551 -0.0163
11.7000 -7.7684 -0.0151
11.7200 -7.7817 -0.0160
11.7400 -7.7951 -0.0151
11.7600 -7.8085 -0.0141
11.7800 -7.8218 -0.0150
11.8000 -7.8351 -0.0151
11.8200 -7.8485 -0.0174
11.8400 -7.8618 -0.0174
11.8600 -7.8752 -0.0165
11.8800 -7.8885 -0.0167
11.9000 -7.9018 -0.0152
11.9200 -7.9151 -0.0149
11.9400 -7.9285 -0.0161
11.9600 -7.9418 -0.0150
11.9800 -7.9551 -0.0162
12.0000 -7.9685 -0.0157
12.0200 -7.9818 -0.0132
12.0400 -7.9951 -0.0135
12.0600 -8.0084 -0.0152
12.0800 -8.0218 -0.0132
12.1000 -8.0351 -0.0157
12.1200 -8.0485 -0.0153
12.1400 -8.0618 -0.0140
12.1600 -8.0750 -0.0143
12.1800 -8.0884 -0.0156
12.2000 -8.1018 -0.0140
12.2200 -8.1152 -0.0143
12.2400 -8.1285 -0.0156
12.2600 -8.1418 -0.0162
12.2800 -8.1552 -0.0155
12.3000 -8.1686 -0.0158
12.3200 -8.1819 -0.0141
12.3400 -8.1952 -0.0162
12.3600 -8.2085 -0.0152
12.3800 -8.2219 -0.0145
12.4000 -8.2352 -0.0146
12.4200 -8.2485 -0.0169
12.4400 -8.2618 -0.0144
12.4600 -8.2751 -0.0153
12.4800 -8.2884 -0.0154
12.5000 -8.3017 -0.0152
12.5200 -8.3150 -0.0156
12.5400 -8.3284 -0.0156
12.5600 -8.3418 -0.0133
12.5800 -8.3552 -0.0149
12.6000 -8.3685 -0.0149
12.6200 -8.3818 -0.0131
12.6400 -8.3952 -0.0142
12.6600 -8.4086 -0.0144
12.6800 -8.4219 -0.0125
12.7000 -8.4352 -0.0148
12.7200 -8.4485 -0.0150
12.7400 -8.4618 -0.0125
12.7600 -8.4751 -0.0142
12.7800 -8.4884 -0.0150
12.8000 -8.5017 -0.0147
12.8200 -8.5150 -0.0122
12.8400 -8.5284 -0.0159
12.8600 -8.5418 -0.0135
12.8800 -8.5551 -0.0179
12.9000 -8.5684 -0.0162
12.9200 -8.5818 -0.0149
12.9400 -8.5952 -0.0148
12.9600 -8.6085 -0.0179
12.9800 -8.6218 -0.0147
13.0000 -8.6351 -0.0154
13.0200 -8.6485 -0.0165
13.0400 -8.6618 -0.0134
13.0600 -8.6751 -0.0147
13.0800 -8.6884 -0.0154
13.1000 -8.7018 -0.0129
13.1200 -8.7151 -0.0145
13.1400 -8.7284 -0.0140
13.1600 -8.7417 -0.0139
13.1800 -8.7551 -0.0142
13.2000 -8.7684 -0.0145
13.2200 -8.7818 -0.0135
13.2400 -8.7951 -0.0158
13.2600 -8.8084 -0.0167
13.2800 -8.8218 -0.0140
13.3000 -8.8352 -0.0132
13.3200 -8.8485 -0.0154
13.3400 -8.8618 -0.0133
13.3600 -8.8752 -0.0143
13.3800 -8.8885 -0.0153
13.4000 -8.9019 -0.0128
13.4200 -8.9151 -0.0149
13.4400 -8.9285 -0.0131
13.4600 -8.9418 -0.0113
13.4800 -8.9551 -0.0112
13.5000 -8.9684 -0.0119
13.5200 -8.9817 -0.0136
13.5400 -8.9950 -0.0149
13.5600 -9.0084 -0.0132
13.5800 -9.0218 -0.0138
13.6000 -9.0351 -0.0132
13.6200 -9.0484 -0.0145
13.6400 -9.0618 -0.0129
13.6600 -9.0752 -0.0143
13.6800 -9.0885 -0.0140
13.7000 -9.1018 -0.0136
13.7200 -9.1151 -0.0146
13.7400 -9.1285 -0.0143
13.7600 -9.1418 -0.0126
13.7800 -9.1552 -0.0129
13.8000 -9.1685 -0.0135
13.8200 -9.1818 -0.0139
13.8400 -9.1952 -0.0152
13.8600 -9.2085 -0.0162
13.8800 -9.2218 -0.0135
13.9000 -9.2351 -0.0131
13.9200 -9.2485 -0.0145
13.9400 -9.2618 -0.0150
13.9600 -9.2751 -0.0162
13.9800 -9.2884 -0.0157
14.0000 -9.3018 -0.0148
14.0200 -9.3152 -0.0127
14.0400 -9.3285 -0.0151
14.0600 -9.3418 -0.0135
14.0800 -9.3551 -0.0137
14.1000 -9.3685 -0.0151
14.1200 -9.3819 -0.0131
14.1400 -9.3952 -0.0124
14.1600 -9.4085 -0.0134
14.1800 -9.4218 -0.0130
14.2000 -9.4352 -0.0147
14.2200 -9.4485 -0.0145
14.2400 -9.4618 -0.0148
14.2600 -9.4751 -0.0139
14.2800 -9.4884 -0.0139
14.3000 -9.5018 -0.0136
14.3200 -9.5151 -0.0141
14.3400 -9.5284 -0.0153
14.3600 -9.5418 -0.0115
14.3800 -9.5552 -0.0157
14.4000 -9.5685 -0.0149
14.4200 -9.5818 -0.0181
14.4400 -9.5951 -0.0135
14.4600 -9.6085 -0.0171
14.4800 -9.6219 -0.0115
14.5000 -9.6352 -0.0130
14.5200 -9.6485 -0.0145
14.5400 -9.6618 -0.0142
14.5600 -9.6751 -0.0119
14.5800 -9.6884 -0.0121
14.6000 -9.7017 -0.0106
14.6200 -9.7150 -0.0113
14.6400 -9.7284 -0.0134
14.6600 -9.7418 -0.0119
14.6800 -9.7551 -0.0120
14.7000 -9.7684 -0.0143
14.7200 -9.7818 -0.0113
14.7400 -9.7952 -0.0132
14.7600 -9.8086 -0.0128
14.7800 -9.8219 -0.0122
14.8000 -9.8352 -0.0122
14.8200 -9.8485 -0.0122
14.8400 -9.8619 -0.0115
14.8600 -9.8752 -0.0116
14.8800 -9.8884 -0.0132
14.9000 -9.9017 -0.0130
14.9200 -9.9150 -0.0122
14.9400 -9.9284 -0.0150
14.9600 -9.9417 -0.0137
14.9800 -9.9550 -0.0130
15.0000 -9.9684 -0.0133
15.0200 -9.9818 -0.0141
15.0400 -9.9951 -0.0131
15.0600 -10.0084 -0.0132
15.0800 -10.0218 -0.0144
15.1000 -10.0352 -0.0128
15.1200 -10.0485 -0.0152
15.1400 -10.0618 -0.0131
15.1600 -10.0752 -0.0139
15.1800 -10.0885 -0.0143
15.2000 -10.1019 -0.0131
15.2200 -10.1152 -0.0108
15.2400 -10.1285 -0.0147
15.2600 -10.1418 -0.0113
15.2800 -10.1552 -0.0127
15.3000 -10.1685 -0.0117
15.3200 -10.1818 -0.0131
15.3400 -10.1951 -0.0120
15.3600 -10.2084 -0.0156
15.3800 -10.2218 -0.0123
15.4000 -10.2351 -0.0141
15.4200 -10.2484 -0.0141
15.4400 -10.2618 -0.0133
15.4600 -10.2752 -0.0121
15.4800 -10.2885 -0.0150
15.5000 -10.3018 -0.0127
15.5200 -10.3151 -0.0129
15.5400 -10.3285 -0.0150
15.5600 -10.3418 -0.0126
15.5800 -10.3551 -0.0127
15.6000 -10.3684 -0.0150
15.6200 -10.3818 -0.0123
15.6400 -10.3951 -0.0122
15.6600 -10.4085 -0.0128
15.6800 -10.4217 -0.0119
15.7000 -10.4351 -0.0126
15.7200 -10.4484 -0.0138
15.7400 -10.4618 -0.0141
15.7600 -10.4751 -0.0140
15.7800 -10.4885 -0.0148
15.8000 -10.5018 -0.0125
15.8200 -10.5152 -0.0136
15.8400 -10.5285 -0.0146
15.8600 -10.5418 -0.0147
15.8800 -10.5551 -0.0133
15.9000 -10.5685 -0.0139
15.9200 -10.5818 -0.0128
15.9400 -10.5951 -0.0122
15.9600 -10.6084 -0.0135
15.9800 -10.6218 -0.0132
16.0000 -10.6351 -0.0118
16.0200 -10.6484 -0.0119
16.0400 -10.6617 -0.0139
16.0600 -10.6750 -0.0126
16.0800 -10.6884 -0.0139
16.1000 -10.7018 -0.0110
16.1200 -10.7151 -0.0111
16.1400 -10.7285 -0.0108
16.1600 -10.7418 -0.0126
16.1800 -10.7552 -0.0120
16.2000 -10.7686 -0.0132
16.2200 -10.7819 -0.0148
16.2400 -10.7952 -0.0150
16.2600 -10.8085 -0.0150
16.2800 -10.8219 -0.0121
16.3000 -10.8352 -0.0115
16.3200 -10.8485 -0.0118
16.3400 -10.8618 -0.0134
16.3600 -10.8751 -0.0143
16.3800 -10.8885 -0.0148
16.4000 -10.9017 -0.0134
16.4200 -10.9150 -0.0153
16.4400 -10.9284 -0.0152
16.4600 -10.9418 -0.0117
16.4800 -10.9551 -0.0129
16.5000 -10.9684 -0.0125
16.5200 -10.9818 -0.0149
16.5400 -10.9952 -0.0126
16.5600 -11.0086 -0.0122
16.5800 -11.0219 -0.0113
16.6000 -11.0352 -0.0129
16.6200 -11.0485 -0.0119
16.6400 -11.0619 -0.0116
16.6600 -11.0752 -0.0121
16.6800 -11.0885 -0.0117
16.7000 -11.1018 -0.0137
16.7200 -11.1151 -0.0112
16.7400 -11.1285 -0.0138
16.7600 -11.1417 -0.0130
16.7800 -11.1551 -0.0150
16.8000 -11.1684 -0.0126
16.8200 -11.1818 -0.0154
16.8400 -11.1951 -0.0114
16.8600 -11.2084 -0.0156
16.8800 -11.2218 -0.0119
16.9000 -11.2352 -0.0145
16.9200 -11.2486 -0.0115
16.9400 -11.2618 -0.0127
16.9600 -11.2751 -0.0112
16.9800 -11.2884 -0.0130
17.0000 -11.3018 -0.0127
17.0200 -11.3151 -0.0143
17.0400 -11.3284 -0.0129
17.0600 -11.3418 -0.0156
17.0800 -11.3551 -0.0132
17.1000 -11.3684 -0.0122
17.1200 -11.3817 -0.0146
17.1400 -11.3951 -0.0136
17.1600 -11.4084 -0.0118
17.1800 -11.4218 -0.0110
17.2000 -11.4352 -0.0116
17.2200 -11.4485 -0.0109
17.2400 -11.4618 -0.0135
17.2600 -11.4752 -0.0107
17.2800 -11.4885 -0.0140
17.3000 -11.5018 -0.0138
17.3200 -11.5151 -0.0132
17.3400 -11.5284 -0.0126
17.3600 -11.5418 -0.0124
17.3800 -11.5551 -0.0110
17.4000 -11.5685 -0.0122
17.4200 -11.5818 -0.0138
17.4400 -11.5951 -0.0134
17.4600 -11.6085 -0.0114
17.4800 -11.6218 -0.0120
17.5000 -11.6351 -0.0108
17.5200 -11.6484 -0.0113
17.5400 -11.6618 -0.0132
17.5600 -11.6751 -0.0115
17.5800 -11.6884 -0.0128
17.6000 -11.7018 -0.0148
17.6200 -11.7152 -0.0126
17.6400 -11.7286 -0.0143
17.6600 -11.7419 -0.0128
17.6800 -11.7552 -0.0133
17.7000 -11.7685 -0.0119
17.7200 -11.7819 -0.0131
17.7400 -11.7952 -0.0119
17.7600 -11.8085 -0.0124
17.7800 -11.8218 -0.0133
17.8000 -11.8352 -0.0135
17.8200 -11.8485 -0.0128
17.8400 -11.8618 -0.0134
17.8600 -11.8751 -0.0132
17.8800 -11.8884 -0.0125
17.9000 -11.9017 -0.0127
17.9200 -11.9151 -0.0105
17.9400 -11.9284 -0.0116
17.9600 -11.9418 -0.0127
17.9800 -11.9551 -0.0122
18.0000 -11.9685 -0.0109
18.0200 -11.9818 -0.0118
18.0400 -11.9951 -0.0117
18.0600 -12.0085 -0.0124
18.0800 -12.0219 -0.0123
18.1000 -12.0352 -0.0108
18.1200 -12.0485 -0.0121
18.1400 -12.0618 -0.0126
18.1600 -12.0751 -0.0103
18.1800 -12.0885 -0.0100
18.2000 -12.1018 -0.0104
18.2200 -12.1151 -0.0116
18.2400 -12.1284 -0.0121
18.2600 -12.1418 -0.0121
18.2800 -12.1551 -0.0124
18.3000 -12.1684 -0.0122
18.3200 -12.1817 -0.0114
18.3400 -12.1951 -0.0122
18.3600 -12.2085 -0.0107
18.3800 -12.2218 -0.0124
18.4000 -12.2351 -0.0130
18.4200 -12.2485 -0.0129
18.4400 -12.2618 -0.0125
18.4600 -12.2752 -0.0093
18.4800 -12.2885 -0.0111
18.5000 -12.3018 -0.0116
18.5200 -12.3151 -0.0109
18.5400 -12.3285 -0.0108
18.5600 -12.3418 -0.0117
18.5800 -12.3551 -0.0123
18.6000 -12.3684 -0.0121
18.6200 -12.3818 -0.0122
18.6400 -12.3951 -0.0152
18.6600 -12.4085 -0.0112
18.6800 -12.4218 -0.0124
18.7000 -12.4351 -0.0107
18.7200 -12.4485 -0.0118
18.7400 -12.4619 -0.0131
18.7600 -12.4751 -0.0126
18.7800 -12.4885 -0.0111
18.8000 -12.5018 -0.0139
18.8200 -12.5151 -0.0130
18.8400 -12.5284 -0.0134
18.8600 -12.5418 -0.0127
18.8800 -12.5551 -0.0128
18.9000 -12.5685 -0.0116
18.9200 -12.5818 -0.0118
18.9400 -12.5951 -0.0125
18.9600 -12.6084 -0.0097
18.9800 -12.6218 -0.0130
19.0000 -12.6352 -0.0128
19.0200 -12.6485 -0.0131
19.0400 -12.6618 -0.0106
19.0600 -12.6751 -0.0116
19.0800 -12.6885 -0.0100
19.1000 -12.7019 -0.0105
19.1200 -12.7151 -0.0105
19.1400 -12.7284 -0.0100
19.1600 -12.7418 -0.0096
19.1800 -12.7552 -0.0094
19.2000 -12.7685 -0.0100
19.2200 -12.7818 -0.0126
19.2400 -12.7951 -0.0111
19.2600 -12.8085 -0.0122
19.2800 -12.8218 -0.0131
19.3000 -12.8351 -0.0119
19.3200 -12.8484 -0.0101
19.3400 -12.8618 -0.0128
19.3600 -12.8751 -0.0113
19.3800 -12.8884 -0.0141
19.4000 -12.9017 -0.0119
19.4200 -12.9151 -0.0131
19.4400 -12.9285 -0.0119
19.4600 -12.9418 -0.0131
19.4800 -12.9552 -0.0115
19.5000 -12.9685 -0.0125
19.5200 -12.9818 -0.0113
19.5400 -12.9952 -0.0111
19.5600 -13.0085 -0.0125
19.5800 -13.0218 -0.0116
19.6000 -13.0352 -0.0112
19.6200 -13.0485 -0.0121
19.6400 -13.0618 -0.0120
19.6600 -13.0751 -0.0124
19.6800 -13.0884 -0.0114
19.7000 -13.1017 -0.0124
19.7200 -13.1151 -0.0127
19.7400 -13.1284 -0.0118
19.7600 -13.1417 -0.0117
19.7800 -13.1551 -0.0110
19.8000 -13.1685 -0.0134
19.8200 -13.1819 -0.0116
19.8400 -13.1952 -0.0126
19.8600 -13.2085 -0.0106
19.8800 -13.2219 -0.0109
19.9000 -13.2352 -0.0102
19.9200 -13.2485 -0.0123
19.9400 -13.2618 -0.0113
19.9600 -13.2751 -0.0117
19.9800 -13.2885 -0.0105
20.0000 -13.3018 -0.0119
20.0200 -13.3151 -0.0127
20.0400 -13.3284 -0.0103
20.0600 -13.3418 -0.0110
20.0800 -13.3551 -0.0116
20.1000 -13.3685 -0.0115
20.1200 -13.3818 -0.0102
20.1400 -13.3951 -0.0100
20.1600 -13.4085 -0.0115
20.1800 -13.4219 -0.0130
20.2000 -13.4352 -0.0140
20.2200 -13.4485 -0.0118
20.2400 -13.4618 -0.0156
20.2600 -13.4752 -0.0139
20.2800 -13.4885 -0.0132
20.3000 -13.5018 -0.0130
20.3200 -13.5151 -0.0113
20.3400 -13.5285 -0.0108
20.3600 -13.5418 -0.0122
20.3800 -13.5551 -0.0119
20.4000 -13.5684 -0.0113
20.4200 -13.5817 -0.0130
20.4400 -13.5951 -0.0122
20.4600 -13.6084 -0.0133
20.4800 -13.6218 -0.0112
20.5000 -13.6351 -0.0136
20.5200 -13.6485 -0.0091
20.5400 -13.6618 -0.0117
20.5600 -13.6752 -0.0107
20.5800 -13.6885 -0.0108
20.6000 -13.7018 -0.0127
20.6200 -13.7152 -0.0112
20.6400 -13.7285 -0.0118
20.6600 -13.7418 -0.0109
20.6800 -13.7551 -0.0110
20.7000 -13.7685 -0.0100
20.7200 -13.7818 -0.0087
20.7400 -13.7951 -0.0086
20.7600 -13.8084 -0.0111
20.7800 -13.8217 -0.0117
20.8000 -13.8351 -0.0105
20.8200 -13.8484 -0.0098
20.8400 -13.8617 -0.0105
20.8600 -13.8751 -0.0101
20.8800 -13.8885 -0.0115
20.9000 -13.9019 -0.0109
20.9200 -13.9152 -0.0132
20.9400 -13.9285 -0.0108
20.9600 -13.9418 -0.0100
20.9800 -13.9552 -0.0105
21.0000 -13.9685 -0.0124
21.0200 -13.9818 -0.0124
21.0400 -13.9951 -0.0129
21.0600 -14.0085 -0.0090
21.0800 -14.0218 -0.0106
21.1000 -14.0351 -0.0108
21.1200 -14.0484 -0.0114
21.1400 -14.0618 -0.0107
21.1600 -14.0751 -0.0104
21.1800 -14.0885 -0.0112
21.2000 -14.1018 -0.0100
21.2200 -14.1151 -0.0108
21.2400 -14.1285 -0.0103
21.2600 -14.1418 -0.0100
21.2800 -14.1551 -0.0094
21.3000 -14.1685 -0.0093
21.3200 -14.1818 -0.0109
21.3400 -14.1952 -0.0131
21.3600 -14.2085 -0.0108
21.3800 -14.2218 -0.0113
21.4000 -14.2351 -0.0108
21.4200 -14.2485 -0.0111
21.4400 -14.2618 -0.0105
21.4600 -14.2751 -0.0112
21.4800 -14.2884 -0.0101
21.5000 -14.3017 -0.0108
21.5200 -14.3151 -0.0110
21.5400 -14.3284 -0.0118
21.5600 -14.3417 -0.0099
21.5800 -14.3551 -0.0121
21.6000 -14.3685 -0.0105
21.6200 -14.3819 -0.0119
21.6400 -14.3952 -0.0116
21.6600 -14.4085 -0.0138
21.6800 -14.4218 -0.0118
21.7000 -14.4352 -0.0124
21.7200 -14.4485 -0.0125
21.7400 -14.4618 -0.0148
21.7600 -14.4751 -0.0127
21.7800 -14.4885 -0.0131
21.8000 -14.5018 -0.0120
21.8200 -14.5151 -0.0147
21.8400 -14.5284 -0.0141
21.8600 -14.5417 -0.0144
21.8800 -14.5551 -0.0128
21.9000 -14.5684 -0.0123
21.9200 -14.5818 -0.0122
21.9400 -14.5951 -0.0125
21.9600 -14.6085 -0.0132
21.9800 -14.6219 -0.0131
22.0000 -14.6352 -0.0127
22.0200 -14.6485 -0.0122
22.0400 -14.6619 -0.0122
22.0600 -14.6752 -0.0131
22.0800 -14.6885 -0.0127
22.1000 -14.7018 -0.0098
22.1200 -14.7151 -0.0133
22.1400 -14.7284 -0.0114
22.1600 -14.7417 -0.0133
22.1800 -14.7550 -0.0127
22.2000 -14.7684 -0.0136
22.2200 -14.7817 -0.0124
22.2400 -14.7951 -0.0124
22.2600 -14.8085 -0.0111
22.2800 -14.8218 -0.0119
22.3000 -14.8351 -0.0123
22.3200 -14.8485 -0.0139
22.3400 -14.8619 -0.0096
22.3600 -14.8752 -0.0133
22.3800 -14.8885 -0.0110
22.4000 -14.9018 -0.0112
22.4200 -14.9152 -0.0124
22.4400 -14.9285 -0.0133
22.4600 -14.9418 -0.0112
22.4800 -14.9551 -0.0121
22.5000 -14.9685 -0.0117
22.5200 -14.9818 -0.0102
22.5400 -14.9951 -0.0134
22.5600 -15.0084 -0.0122
22.5800 -15.0218 -0.0109
22.6000 -15.0351 -0.0111
22.6200 -15.0485 -0.0134
22.6400 -15.0618 -0.0094
22.6600 -15.0751 -0.0132
22.6800 -15.0885 -0.0112
22.7000 -15.1019 -0.0124
22.7200 -15.1152 -0.0110
22.7400 -15.1285 -0.0126
22.7600 -15.1418 -0.0097
22.7800 -15.1551 -0.0117
22.8000 -15.1685 -0.0102
22.8200 -15.1818 -0.0115
22.8400 -15.1951 -0.0114
22.8600 -15.2084 -0.0135
22.8800 -15.2218 -0.0099
22.9000 -15.2351 -0.0094
22.9200 -15.2484 -0.0109
22.9400 -15.2617 -0.0107
22.9600 -15.2751 -0.0127
22.9800 -15.2885 -0.0100
23.0000 -15.3018 -0.0100
23.0200 -15.3151 -0.0085
23.0400 -15.3285 -0.0101
23.0600 -15.3419 -0.0099
23.0800 -15.3552 -0.0112
23.1000 -15.3685 -0.0103
23.1200 -15.3818 -0.0097
23.1400 -15.3952 -0.0106
23.1600 -15.4085 -0.0115
23.1800 -15.4218 -0.0106
23.2000 -15.4351 -0.0119
23.2200 -15.4484 -0.0120
23.2400 -15.4618 -0.0109
23.2600 -15.4751 -0.0109
23.2800 -15.4884 -0.0107
23.3000 -15.5017 -0.0107
23.3200 -15.5151 -0.0128
23.3400 -15.5285 -0.0128
23.3600 -15.5418 -0.0109
23.3800 -15.5551 -0.0112
23.4000 -15.5685 -0.0118
23.4200 -15.5819 -0.0107
23.4400 -15.5952 -0.0137
23.4600 -15.6085 -0.0132
23.4800 -15.6218 -0.0116
23.5000 -15.6352 -0.0117
23.5200 -15.6485 -0.0112
23.5400 -15.6618 -0.0124
23.5600 -15.6751 -0.0130
23.5800 -15.6885 -0.0123
23.6000 -15.7018 -0.0109
23.6200 -15.7151 -0.0128
23.6400 -15.7284 -0.0136
23.6600 -15.7417 -0.0120
23.6800 -15.7551 -0.0119
23.7000 -15.7684 -0.0149
23.7200 -15.7818 -0.0133
23.7400 -15.7951 -0.0145
23.7600 -15.8085 -0.0137
23.7800 -15.8219 -0.0120
23.8000 -15.8352 -0.0106
23.8200 -15.8485 -0.0140
23.8400 -15.8618 -0.0130
23.8600 -15.8752 -0.0157
23.8800 -15.8885 -0.0145
23.9000 -15.9018 -0.0132
23.9200 -15.9151 -0.0108
23.9400 -15.9284 -0.0123
23.9600 -15.9418 -0.0105
23.9800 -15.9551 -0.0132
24.0000 -15.9684 -0.0130
24.0200 -15.9817 -0.0119
24.0400 -15.9951 -0.0123
24.0600 -16.0084 -0.0152
24.0800 -16.0218 -0.0119
24.1000 -16.0351 -0.0137
24.1200 -16.0485 -0.0126
24.1400 -16.0619 -0.0121
24.1600 -16.0752 -0.0099
24.1800 -16.0885 -0.0131
24.2000 -16.1018 -0.0108
24.2200 -16.1151 -0.0124
24.2400 -16.1285 -0.0120
24.2600 -16.1418 -0.0095
24.2800 -16.1551 -0.0116
24.3000 -16.1685 -0.0115
24.3200 -16.1818 -0.0109
24.3400 -16.1951 -0.0123
24.3600 -16.2084 -0.0122
24.3800 -16.2217 -0.0084
24.4000 -16.2351 -0.0114
24.4200 -16.2485 -0.0131
24.4400 -16.2618 -0.0111
24.4600 -16.2751 -0.0126
24.4800 -16.2885 -0.0138
24.5000 -16.3018 -0.0144
24.5200 -16.3152 -0.0130
24.5400 -16.3284 -0.0119
24.5600 -16.3417 -0.0113
24.5800 -16.3551 -0.0116
24.6000 -16.3685 -0.0128
24.6200 -16.3818 -0.0148
24.6400 -16.3951 -0.0131
24.6600 -16.4085 -0.0141
24.6800 -16.4218 -0.0129
24.7000 -16.4352 -0.0109
24.7200 -16.4485 -0.0164
24.7400 -16.4618 -0.0117
24.7600 -16.4751 -0.0130
24.7800 -16.4885 -0.0135
24.8000 -16.5018 -0.0117
24.8200 -16.5151 -0.0112
24.8400 -16.5285 -0.0125
24.8600 -16.5418 -0.0094
24.8800 -16.5552 -0.0113
24.9000 -16.5685 -0.0133
24.9200 -16.5818 -0.0113
24.9400 -16.5952 -0.0111
24.9600 -16.6086 -0.0129
24.9800 -16.6219 -0.0134
25.0000 -16.6352 -0.0123
25.0200 -16.6485 -0.0138
25.0400 -16.6618 -0.0120
25.0600 -16.6752 -0.0117
25.0800 -16.6884 -0.0127
25.1000 -16.7017 -0.0130
25.1200 -16.7151 -0.0107
25.1400 -16.7284 -0.0121
25.1600 -16.7418 -0.0134
25.1800 -16.7551 -0.0132
25.2000 -16.7684 -0.0143
25.2200 -16.7818 -0.0111
25.2400 -16.7952 -0.0111
25.2600 -16.8085 -0.0140
25.2800 -16.8218 -0.0121
25.3000 -16.8352 -0.0118
25.3200 -16.8485 -0.0145
25.3400 -16.8618 -0.0111
25.3600 -16.8751 -0.0124
25.3800 -16.8885 -0.0129
25.4000 -16.9018 -0.0129
25.4200 -16.9151 -0.0128
25.4400 -16.9284 -0.0159
25.4600 -16.9417 -0.0124
25.4800 -16.9551 -0.0122
25.5000 -16.9684 -0.0137
25.5200 -16.9817 -0.0134
25.5400 -16.9950 -0.0108
25.5600 -17.0084 -0.0148
25.5800 -17.0218 -0.0129
25.6000 -17.0351 -0.0141
25.6200 -17.0485 -0.0159
25.6400 -17.0618 -0.0159
25.6600 -17.0751 -0.0132
25.6800 -17.0885 -0.0137
25.7000 -17.1018 -0.0126
25.7200 -17.1151 -0.0156
25.7400 -17.1285 -0.0126
25.7600 -17.1418 -0.0118
25.7800 -17.1552 -0.0118
25.8000 -17.1684 -0.0156
25.8200 -17.1817 -0.0133
25.8400 -17.1951 -0.0142
25.8600 -17.2085 -0.0151
25.8800 -17.2218 -0.0142
25.9000 -17.2351 -0.0144
25.9200 -17.2485 -0.0145
25.9400 -17.2619 -0.0133
25.9600 -17.2752 -0.0108
25.9800 -17.2885 -0.0140
26.0000 -17.3018 -0.0133
26.0200 -17.3151 -0.0140
26.0400 -17.3285 -0.0150
26.0600 -17.3418 -0.0144
26.0800 -17.3551 -0.0139
26.1000 -17.3685 -0.0145
26.1200 -17.3818 -0.0132
26.1400 -17.3951 -0.0126
26.1600 -17.4084 -0.0136
26.1800 -17.4217 -0.0152
26.2000 -17.4351 -0.0129
26.2200 -17.4485 -0.0147
26.2400 -17.4618 -0.0129
26.2600 -17.4751 -0.0144
26.2800 -17.4884 -0.0148
26.3000 -17.5018 -0.0129
26.3200 -17.5152 -0.0111
26.3400 -17.5285 -0.0155
26.3600 -17.5418 -0.0145
26.3800 -17.5551 -0.0140
26.4000 -17.5684 -0.0125
26.4200 -17.5818 -0.0147
26.4400 -17.5950 -0.0142
26.4600 -17.6084 -0.0160
26.4800 -17.6217 -0.0128
26.5000 -17.6351 -0.0144
26.5200 -17.6484 -0.0155
26.5400 -17.6618 -0.0159
26.5600 -17.6751 -0.0135
26.5800 -17.6885 -0.0149
26.6000 -17.7018 -0.0161
26.6200 -17.7151 -0.0146
26.6400 -17.7284 -0.0158
26.6600 -17.7418 -0.0127
26.6800 -17.7552 -0.0137
26.7000 -17.7685 -0.0151
26.7200 -17.7818 -0.0172
26.7400 -17.7951 -0.0148
26.7600 -17.8085 -0.0179
26.7800 -17.8218 -0.0154
26.8000 -17.8352 -0.0152
26.8200 -17.8485 -0.0170
26.8400 -17.8619 -0.0168
26.8600 -17.8752 -0.0138
26.8800 -17.8885 -0.0139
26.9000 -17.9018 -0.0142
26.9200 -17.9151 -0.0129
26.9400 -17.9284 -0.0159
26.9600 -17.9417 -0.0139
26.9800 -17.9550 -0.0147
27.0000 -17.9684 -0.0150
27.0200 -17.9818 -0.0152
27.0400 -17.9952 -0.0138
27.0600 -18.0085 -0.0151
27.0800 -18.0218 -0.0145
27.1000 -18.0352 -0.0125
27.1200 -18.0486 -0.0143
27.1400 -18.0619 -0.0148
27.1600 -18.0752 -0.0145
27.1800 -18.0885 -0.0142
27.2000 -18.1018 -0.0150
27.2200 -18.1152 -0.0124
27.2400 -18.1285 -0.0147
27.2600 -18.1418 -0.0151
27.2800 -18.1551 -0.0161
27.3000 -18.1685 -0.0175
27.3200 -18.1818 -0.0160
27.3400 -18.1951 -0.0138
27.3600 -18.2085 -0.0163
27.3800 -18.2218 -0.0164
27.4000 -18.2352 -0.0132
27.4200 -18.2485 -0.0176
27.4400 -18.2618 -0.0153
27.4600 -18.2752 -0.0137
27.4800 -18.2885 -0.0156
27.5000 -18.3019 -0.0158
27.5200 -18.3152 -0.0136
27.5400 -18.3285 -0.0161
27.5600 -18.3418 -0.0158
27.5800 -18.3551 -0.0156
27.6000 -18.3684 -0.0173
27.6200 -18.3817 -0.0180
27.6400 -18.3950 -0.0164
27.6600 -18.4084 -0.0179
27.6800 -18.4218 -0.0180
27.7000 -18.4351 -0.0153
27.7200 -18.4484 -0.0203
27.7400 -18.4618 -0.0169
27.7600 -18.4752 -0.0159
27.7800 -18.4885 -0.0181
27.8000 -18.5018 -0.0195
27.8200 -18.5151 -0.0151
27.8400 -18.5285 -0.0186
27.8600 -18.5418 -0.0170
27.8800 -18.5551 -0.0155
27.9000 -18.5685 -0.0164
27.9200 -18.5818 -0.0170
27.9400 -18.5951 -0.0145
27.9600 -18.6084 -0.0163
27.9800 -18.6217 -0.0177
28.0000 -18.6350 -0.0173
28.0200 -18.6484 -0.0174
28.0400 -18.6618 -0.0169
28.0600 -18.6751 -0.0167
28.0800 -18.6884 -0.0182
28.1000 -18.7018 -0.0176
28.1200 -18.7152 -0.0157
28.1400 -18.7285 -0.0178
28.1600 -18.7418 -0.0211
28.1800 -18.7552 -0.0161
28.2000 -18.7685 -0.0188
28.2200 -18.7819 -0.0173
28.2400 -18.7952 -0.0159
28.2600 -18.8085 -0.0170
28.2800 -18.8218 -0.0185
28.3000 -18.8352 -0.0153
28.3200 -18.8485 -0.0182
28.3400 -18.8618 -0.0181
28.3600 -18.8751 -0.0158
28.3800 -18.8884 -0.0173
28.4000 -18.9018 -0.0163
28.4200 -18.9151 -0.0151
28.4400 -18.9284 -0.0162
28.4600 -18.9418 -0.0192
28.4800 -18.9551 -0.0157
28.5000 -18.9685 -0.0192
28.5200 -18.9818 -0.0178
28.5400 -18.9951 -0.0172
28.5600 -19.0085 -0.0185
28.5800 -19.0219 -0.0190
28.6000 -19.0352 -0.0175
28.6200 -19.0485 -0.0193
28.6400 -19.0619 -0.0212
28.6600 -19.0752 -0.0183
28.6800 -19.0885 -0.0199
28.7000 -19.1018 -0.0208
28.7200 -19.1151 -0.0174
28.7400 -19.1284 -0.0196
28.7600 -19.1418 -0.0219
28.7800 -19.1551 -0.0188
28.8000 -19.1684 -0.0186
28.8200 -19.1818 -0.0193
28.8400 -19.1952 -0.0188
28.8600 -19.2085 -0.0200
28.8800 -19.2218 -0.0196
28.9000 -19.2351 -0.0173
28.9200 -19.2485 -0.0186
28.9400 -19.2619 -0.0179
28.9600 -19.2752 -0.0177
28.9800 -19.2885 -0.0204
29.0000 -19.3018 -0.0219
29.0200 -19.3151 -0.0193
29.0400 -19.3284 -0.0211
29.0600 -19.3417 -0.0196
29.0800 -19.3550 -0.0195
29.1000 -19.3684 -0.0223
29.1200 -19.3818 -0.0214
29.1400 -19.3951 -0.0195
29.1600 -19.4084 -0.0228
29.1800 -19.4218 -0.0233
29.2000 -19.4352 -0.0199
29.2200 -19.4486 -0.0212
29.2400 -19.4619 -0.0200
29.2600 -19.4752 -0.0196
29.2800 -19.4885 -0.0184
29.3000 -19.5019 -0.0191
29.3200 -19.5152 -0.0156
29.3400 -19.5285 -0.0183
29.3600 -19.5417 -0.0199
29.3800 -19.5551 -0.0181
29.4000 -19.5684 -0.0195
29.4200 -19.5817 -0.0198
29.4400 -19.5950 -0.0195
29.4600 -19.6084 -0.0198
29.4800 -19.6218 -0.0210
29.5000 -19.6351 -0.0192
29.5200 -19.6485 -0.0199
29.5400 -19.6618 -0.0209
29.5600 -19.6752 -0.0186
29.5800 -19.6886 -0.0214
29.6000 -19.7019 -0.0213
29.6200 -19.7151 -0.0210
29.6400 -19.7285 -0.0195
29.6600 -19.7419 -0.0207
29.6800 -19.7552 -0.0184
29.7000 -19.7685 -0.0209
29.7200 -19.7818 -0.0209
29.7400 -19.7952 -0.0185
29.7600 -19.8085 -0.0196
29.7800 -19.8218 -0.0241
29.8000 -19.8351 -0.0193
29.8200 -19.8484 -0.0227
29.8400 -19.8618 -0.0202
29.8600 -19.8751 -0.0194
29.8800 -19.8884 -0.0193
29.9000 -19.9018 -0.0210
29.9200 -19.9152 -0.0193
29.9400 -19.9285 -0.0215
29.9600 -19.9418 -0.0216
29.9800 -19.9551 -0.0209
30.0000 -19.9685 -0.0208
30.0200 -19.9818 -0.0213
30.0400 -19.9952 -0.0223
30.0600 -20.0085 -0.0223
30.0800 -20.0218 -0.0228
30.1000 -20.0351 -0.0178
30.1200 -20.0485 -0.0206
30.1400 -20.0618 -0.0219
30.1600 -20.0751 -0.0213
30.1800 -20.0884 -0.0200
30.2000 -20.1018 -0.0222
30.2200 -20.1151 -0.0201
30.2400 -20.1285 -0.0228
30.2600 -20.1418 -0.0244
30.2800 -20.1551 -0.0213
30.3000 -20.1685 -0.0215
30.3200 -20.1818 -0.0254
30.3400 -20.1951 -0.0234
30.3600 -20.2085 -0.0247
30.3800 -20.2218 -0.0240
30.4000 -20.2352 -0.0214
30.4200 -20.2485 -0.0249
30.4400 -20.2618 -0.0260
30.4600 -20.2751 -0.0209
30.4800 -20.2884 -0.0237
30.5000 -20.3017 -0.0253
30.5200 -20.3150 -0.0253
30.5400 -20.3284 -0.0254
30.5600 -20.3418 -0.0260
30.5800 -20.3551 -0.0229
30.6000 -20.3685 -0.0258
30.6200 -20.3818 -0.0261
30.6400 -20.3952 -0.0244
30.6600 -20.4085 -0.0256
30.6800 -20.4218 -0.0274
30.7000 -20.4351 -0.0270
30.7200 -20.4485 -0.0258
30.7400 -20.4618 -0.0295
30.7600 -20.4752 -0.0255
30.7800 -20.4885 -0.0291
30.8000 -20.5018 -0.0277
30.8200 -20.5151 -0.0270
30.8400 -20.5285 -0.0253
30.8600 -20.5417 -0.0291
30.8800 -20.5550 -0.0270
30.9000 -20.5684 -0.0293
30.9200 -20.5817 -0.0281
30.9400 -20.5951 -0.0250
30.9600 -20.6084 -0.0270
30.9800 -20.6218 -0.0275
31.0000 -20.6352 -0.0266
31.0200 -20.6485 -0.0288
31.0400 -20.6619 -0.0285
31.0600 -20.6752 -0.0262
31.0800 -20.6885 -0.0279
31.1000 -20.7019 -0.0294
31.1200 -20.7152 -0.0278
31.1400 -20.7285 -0.0280
31.1600 -20.7418 -0.0283
31.1800 -20.7551 -0.0255
31.2000 -20.7685 -0.0281
31.2200 -20.7818 -0.0335
31.2400 -20.7951 -0.0509
31.2600 -20.8084 -0.0828
31.2800 -20.8218 -0.0911
31.3000 -20.8351 -0.0896
31.3200 -20.8484 -0.0900
31.3400 -20.8618 -0.0909
31.3600 -20.8752 -0.0904
31.3800 -20.8886 -0.0903
31.4000 -20.9019 -0.0912
31.4200 -20.9151 -0.0921
31.4400 -20.9285 -0.0898
31.4600 -20.9418 -0.0921
31.4800 -20.9552 -0.0909
31.5000 -20.9685 -0.0923
31.5200 -20.9818 -0.0939
31.5400 -20.9951 -0.0916
31.5600 -21.0085 -0.0919
31.5800 -21.0218 -0.0946
31.6000 -21.0351 -0.0947
31.6200 -21.0484 -0.0920
31.6400 -21.0618 -0.0945
31.6600 -21.0752 -0.0922
31.6800 -21.0885 -0.0947
31.7000 -21.1018 -0.0968
31.7200 -21.1152 -0.0952
31.7400 -21.1285 -0.0953
31.7600 -21.1418 -0.0964
31.7800 -21.1551 -0.0968
31.8000 -21.1684 -0.0956
31.8200 -21.1817 -0.0995
31.8400 -21.1951 -0.0961
31.8600 -21.2084 -0.1002
31.8800 -21.2218 -0.0993
31.9000 -21.2351 -0.0995
31.9200 -21.2485 -0.0968
31.9400 -21.2618 -0.1022
31.9600 -21.2751 -0.0981
31.9800 -21.2884 -0.0989
32.0000 -21.3018 -0.0978
32.0200 -21.3151 -0.0994
32.0400 -21.3284 -0.0975
32.0600 -21.3418 -0.0991
32.0800 -21.3551 -0.0962
32.1000 -21.3685 -0.0980
32.1200 -21.3819 -0.0983
32.1400 -21.3952 -0.1016
32.1600 -21.4085 -0.0982
32.1800 -21.4219 -0.1001
32.2000 -21.4352 -0.0985
32.2200 -21.4485 -0.0993
32.2400 -21.4618 -0.1022
32.2600 -21.4751 -0.1013
32.2800 -21.4885 -0.0983
32.3000 -21.5018 -0.0989
32.3200 -21.5151 -0.0982
32.3400 -21.5284 -0.0970
32.3600 -21.5418 -0.1008
32.3800 -21.5551 -0.0970
32.4000 -21.5684 -0.1001
32.4200 -21.5818 -0.0992
32.4400 -21.5951 -0.1019
32.4600 -21.6085 -0.0968
32.4800 -21.6218 -0.1030
32.5000 -21.6351 -0.0990
32.5200 -21.6485 -0.1002
32.5400 -21.6619 -0.1008
32.5600 -21.6752 -0.1018
32.5800 -21.6885 -0.1014
32.6000 -21.7018 -0.1032
32.6200 -21.7151 -0.1040
32.6400 -21.7285 -0.1052
32.6600 -21.7418 -0.1040
32.6800 -21.7551 -0.1020
32.7000 -21.7684 -0.1020
32.7200 -21.7818 -0.1035
32.7400 -21.7951 -0.1019
32.7600 -21.8084 -0.1008
32.7800 -21.8218 -0.1024
32.8000 -21.8351 -0.1014
32.8200 -21.8485 -0.1022
32.8400 -21.8618 -0.1040
32.8600 -21.8751 -0.1013
32.8800 -21.8885 -0.1012
32.9000 -21.9018 -0.1021
32.9200 -21.9152 -0.1034
32.9400 -21.9285 -0.1023
32.9600 -21.9418 -0.1046
32.9800 -21.9551 -0.1017
33.0000 -21.9685 -0.1034
33.0200 -21.9818 -0.1060
33.0400 -21.9951 -0.1054
33.0600 -22.0084 -0.1022
33.0800 -22.0218 -0.1056
33.1000 -22.0351 -0.1040
33.1200 -22.0485 -0.1013
33.1400 -22.0618 -0.1048
33.1600 -22.0751 -0.1024
33.1800 -22.0885 -0.1028
33.2000 -22.1019 -0.1037
33.2200 -22.1151 -0.1051
33.2400 -22.1285 -0.1010
33.2600 -22.1418 -0.1043
33.2800 -22.1551 -0.1033
33.3000 -22.1685 -0.1037
33.3200 -22.1818 -0.1031
33.3400 -22.1951 -0.1024
33.3600 -22.2085 -0.1037
33.3800 -22.2218 -0.1028
33.4000 -22.2351 -0.1039
33.4200 -22.2484 -0.1021
33.4400 -22.2618 -0.1040
33.4600 -22.2752 -0.1013
33.4800 -22.2885 -0.1016
33.5000 -22.3018 -0.1019
33.5200 -22.3151 -0.1046
33.5400 -22.3285 -0.1000
33.5600 -22.3419 -0.1027
33.5800 -22.3552 -0.1027
33.6000 -22.3685 -0.1054
33.6200 -22.3818 -0.1022
33.6400 -22.3952 -0.1033
33.6600 -22.4085 -0.1023
33.6800 -22.4218 -0.1057
33.7000 -22.4351 -0.1032
33.7200 -22.4484 -0.1022
33.7400 -22.4618 -0.1020
33.7600 -22.4751 -0.1021
33.7800 -22.4884 -0.1016
33.8000 -22.5018 -0.1042
33.8200 -22.5151 -0.1022
33.8400 -22.5284 -0.1005
33.8600 -22.5417 -0.1022
33.8800 -22.5551 -0.1030
33.9000 -22.5685 -0.1043
33.9200 -22.5818 -0.1038
33.9400 -22.5952 -0.1049
33.9600 -22.6085 -0.1029
33.9800 -22.6218 -0.1051
34.0000 -22.6352 -0.1035
34.0200 -22.6485 -0.1034
34.0400 -22.6618 -0.1022
34.0600 -22.6752 -0.1060
34.0800 -22.6885 -0.1028
34.1000 -22.7018 -0.1060
34.1200 -22.7151 -0.1049
34.1400 -22.7284 -0.1054
34.1600 -22.7417 -0.1050
34.1800 -22.7550 -0.1053
34.2000 -22.7684 -0.1049
34.2200 -22.7817 -0.1081
34.2400 -22.7951 -0.1065
34.2600 -22.8085 -0.1052
34.2800 -22.8219 -0.1052
34.3000 -22.8352 -0.1073
34.3200 -22.8485 -0.1066
34.3400 -22.8619 -0.1085
34.3600 -22.8752 -0.1063
34.3800 -22.8885 -0.1055
34.4000 -22.9018 -0.1055
34.4200 -22.9151 -0.1061
34.4400 -22.9285 -0.1052
34.4600 -22.9418 -0.1059
34.4800 -22.9551 -0.1063
34.5000 -22.9684 -0.1053
34.5200 -22.9818 -0.1062
34.5400 -22.9951 -0.1057
34.5600 -23.0085 -0.1048
34.5800 -23.0218 -0.1055
34.6000 -23.0351 -0.1063
34.6200 -23.0485 -0.1039
34.6400 -23.0619 -0.1056
34.6600 -23.0752 -0.1050
34.6800 -23.0885 -0.1066
34.7000 -23.1018 -0.1048
34.7200 -23.1152 -0.1040
34.7400 -23.1285 -0.1025
34.7600 -23.1418 -0.1056
34.7800 -23.1551 -0.1065
34.8000 -23.1685 -0.1057
34.8200 -23.1818 -0.1031
34.8400 -23.1951 -0.1043
34.8600 -23.2084 -0.1034
34.8800 -23.2217 -0.1040
34.9000 -23.2351 -0.1041
34.9200 -23.2485 -0.1044
34.9400 -23.2618 -0.1034
34.9600 -23.2751 -0.1064
34.9800 -23.2885 -0.1039
35.0000 -23.3018 -0.1053
35.0200 -23.3152 -0.1030
35.0400 -23.3285 -0.1042
35.0600 -23.3418 -0.1032
35.0800 -23.3552 -0.1032
35.1000 -23.3685 -0.1038
35.1200 -23.3818 -0.1043
35.1400 -23.3951 -0.1057
35.1600 -23.4085 -0.1045
35.1800 -23.4218 -0.1052
35.2000 -23.4351 -0.1045
35.2200 -23.4484 -0.1043
35.2400 -23.4617 -0.1035
35.2600 -23.4751 -0.1035
35.2800 -23.4884 -0.1037
35.3000 -23.5018 -0.1048
35.3200 -23.5151 -0.1042
35.3400 -23.5285 -0.1032
35.3600 -23.5419 -0.1031
35.3800 -23.5552 -0.1045
35.4000 -23.5685 -0.1031
35.4200 -23.5818 -0.1020
35.4400 -23.5952 -0.1020
35.4600 -23.6085 -0.1026
35.4800 -23.6218 -0.1043
35.5000 -23.6351 -0.1042
35.5200 -23.6485 -0.1015
35.5400 -23.6618 -0.1013
35.5600 -23.6751 -0.1012
35.5800 -23.6884 -0.1022
35.6000 -23.7017 -0.1020
35.6200 -23.7151 -0.1028
35.6400 -23.7285 -0.1013
35.6600 -23.7418 -0.1012
35.6800 -23.7551 -0.1018
35.7000 -23.7684 -0.1013
35.7200 -23.7818 -0.0998
35.7400 -23.7951 -0.1008
35.7600 -23.8085 -0.1028
35.7800 -23.8218 -0.1033
35.8000 -23.8352 -0.1033
35.8200 -23.8485 -0.0997
35.8400 -23.8618 -0.1029
35.8600 -23.8752 -0.1025
35.8800 -23.8885 -0.1029
35.9000 -23.9018 -0.1005
35.9200 -23.9151 -0.1039
35.9400 -23.9284 -0.1008
35.9600 -23.9417 -0.1025
35.9800 -23.9551 -0.1023
36.0000 -23.9684 -0.1023
36.0200 -23.9817 -0.1018
36.0400 -23.9951 -0.1016
36.0600 -24.0085 -0.1000
36.0800 -24.0219 -0.1030
36.1000 -24.0352 -0.1044
36.1200 -24.0485 -0.1028
36.1400 -24.0618 -0.1025
36.1600 -24.0752 -0.1040
36.1800 -24.0885 -0.1033
36.2000 -24.1018 -0.1023
36.2200 -24.1151 -0.1042
36.2400 -24.1285 -0.1021
36.2600 -24.1418 -0.1028
36.2800 -24.1551 -0.1027
36.3000 -24.1684 -0.1026
36.3200 -24.1817 -0.1027
36.3400 -24.1951 -0.1035
36.3600 -24.2084 -0.1021
36.3800 -24.2218 -0.1022
36.4000 -24.2351 -0.1015
36.4200 -24.2485 -0.1015
36.4400 -24.2619 -0.0995
36.4600 -24.2752 -0.1022
36.4800 -24.2885 -0.1002
36.5000 -24.3019 -0.1018
36.5200 -24.3152 -0.1013
36.5400 -24.3285 -0.1013
36.5600 -24.3418 -0.1003
36.5800 -24.3551 -0.1028
36.6000 -24.3684 -0.1020
36.6200 -24.3817 -0.1045
36.6400 -24.3950 -0.1037
36.6600 -24.4083 -0.1028
36.6800 -24.4217 -0.1012
36.7000 -24.4351 -0.1023
36.7200 -24.4485 -0.1009
36.7400 -24.4618 -0.1018
36.7600 -24.4752 -0.1015
36.7800 -24.4885 -0.1008
36.8000 -24.5019 -0.1006
36.8200 -24.5152 -0.1005
36.8400 -24.5285 -0.1007
36.8600 -24.5418 -0.1014
36.8800 -24.5552 -0.1014
36.9000 -24.5685 -0.0984
36.9200 -24.5818 -0.1017
36.9400 -24.5951 -0.1005
36.9600 -24.6085 -0.1027
36.9800 -24.6218 -0.0993
37.0000 -24.6351 -0.1016
37.0200 -24.6484 -0.0995
37.0400 -24.6617 -0.1015
37.0600 -24.6751 -0.1023
37.0800 -24.6885 -0.1003
37.1000 -24.7018 -0.0992
37.1200 -24.7151 -0.1007
37.1400 -24.7285 -0.1025
37.1600 -24.7419 -0.1016
37.1800 -24.7552 -0.1036
37.2000 -24.7685 -0.1015
37.2200 -24.7818 -0.1003
37.2400 -24.7951 -0.1022
37.2600 -24.8085 -0.0996
37.2800 -24.8218 -0.1016
37.3000 -24.8351 -0.1008
37.3200 -24.8485 -0.1028
37.3400 -24.8618 -0.0995
37.3600 -24.8751 -0.1012
37.3800 -24.8884 -0.1015
37.4000 -24.9017 -0.1017
37.4200 -24.9151 -0.0993
37.4400 -24.9285 -0.1001
37.4600 -24.9418 -0.1001
37.4800 -24.9551 -0.1027
37.5000 -24.9685 -0.1019
37.5200 -24.9818 -0.1029
37.5400 -24.9952 -0.1030
37.5600 -25.0085 -0.1027
37.5800 -25.0218 -0.1025
37.6000 -25.0351 -0.1001
37.6200 -25.0485 -0.0992
37.6400 -25.0618 -0.0987
37.6600 -25.0751 -0.0999
37.6800 -25.0885 -0.0996
37.7000 -25.1018 -0.1007
37.7200 -25.1151 -0.1012
37.7400 -25.1284 -0.1023
37.7600 -25.1417 -0.1000
37.7800 -25.1551 -0.1007
37.8000 -25.1685 -0.1029
37.8200 -25.1818 -0.1012
37.8400 -25.1951 -0.1015
37.8600 -25.2085 -0.1010
37.8800 -25.2219 -0.0992
37.9000 -25.2352 -0.1015
37.9200 -25.2485 -0.1024
37.9400 -25.2618 -0.1024
37.9600 -25.2752 -0.1011
37.9800 -25.2886 -0.0992
38.0000 -25.3019 -0.1004
38.0200 -25.3151 -0.1014
38.0400 -25.3285 -0.1011
38.0600 -25.3418 -0.1009
38.0800 -25.3551 -0.1015
38.1000 -25.3684 -0.1004
38.1200 -25.3817 -0.0989
38.1400 -25.3951 -0.1007
38.1600 -25.4084 -0.1021
38.1800 -25.4218 -0.1015
38.2000 -25.4351 -0.1028
38.2200 -25.4484 -0.1019
38.2400 -25.4618 -0.1013
38.2600 -25.4752 -0.1016
38.2800 -25.4885 -0.1026
38.3000 -25.5018 -0.0997
38.3200 -25.5152 -0.1017
38.3400 -25.5285 -0.1002
38.3600 -25.5418 -0.1024
38.3800 -25.5551 -0.1015
38.4000 -25.5685 -0.1014
38.4200 -25.5818 -0.1006
38.4400 -25.5951 -0.1022
38.4600 -25.6084 -0.1023
38.4800 -25.6217 -0.1023
38.5000 -25.6351 -0.1013
38.5200 -25.6484 -0.0990
38.5400 -25.6618 -0.0996
38.5600 -25.6751 -0.0990
38.5800 -25.6885 -0.0996
38.6000 -25.7019 -0.0992
38.6200 -25.7152 -0.1001
38.6400 -25.7285 -0.0997
38.6600 -25.7418 -0.1003
38.6800 -25.7551 -0.0986
38.7000 -25.7685 -0.1015
38.7200 -25.7818 -0.1012
38.7400 -25.7951 -0.1016
38.7600 -25.8084 -0.1005
38.7800 -25.8218 -0.1008
38.8000 -25.8351 -0.0987
38.8200 -25.8484 -0.1007
38.8400 -25.8618 -0.0980
38.8600 -25.8751 -0.1006
38.8800 -25.8885 -0.0984
38.9000 -25.9018 -0.0992
38.9200 -25.9151 -0.0991
38.9400 -25.9285 -0.1003
38.9600 -25.9419 -0.0982
38.9800 -25.9552 -0.0984
39.0000 -25.9685 -0.0987
39.0200 -25.9817 -0.0988
39.0400 -25.9951 -0.0983
39.0600 -26.0085 -0.0989
39.0800 -26.0218 -0.0990
39.1000 -26.0351 -0.0987
39.1200 -26.0484 -0.0986
39.1400 -26.0618 -0.0973
39.1600 -26.0751 -0.0970
39.1800 -26.0884 -0.0990
39.2000 -26.1017 -0.0981
39.2200 -26.1151 -0.0966
39.2400 -26.1284 -0.0991
39.2600 -26.1418 -0.0982
39.2800 -26.1551 -0.0992
39.3000 -26.1684 -0.0982
39.3200 -26.1818 -0.0981
39.3400 -26.1952 -0.0963
39.3600 -26.2085 -0.0997
39.3800 -26.2218 -0.0973
39.4000 -26.2352 -0.0983
39.4200 -26.2485 -0.0988
39.4400 -26.2619 -0.0965
39.4600 -26.2752 -0.0977
39.4800 -26.2885 -0.0983
39.5000 -26.3018 -0.0993
39.5200 -26.3152 -0.0984
39.5400 -26.3284 -0.0998
39.5600 -26.3417 -0.0972
39.5800 -26.3551 -0.0973
39.6000 -26.3684 -0.0968
39.6200 -26.3818 -0.0973
39.6400 -26.3951 -0.0987
39.6600 -26.4084 -0.0983
39.6800 -26.4218 -0.0973
39.7000 -26.4352 -0.0986
39.7200 -26.4485 -0.0976
39.7400 -26.4618 -0.0972
39.7600 -26.4752 -0.1003
39.7800 -26.4885 -0.0983
39.8000 -26.5018 -0.0995
39.8200 -26.5151 -0.0979
39.8400 -26.5285 -0.0983
39.8600 -26.5418 -0.0968
39.8800 -26.5552 -0.0966
39.9000 -26.5684 -0.0957
39.9200 -26.5817 -0.0989
39.9400 -26.5951 -0.0979
39.9600 -26.6084 -0.0990
39.9800 -26.6218 -0.0977
40.0000 -26.6351 -0.0991
40.0200 -26.6484 -0.0984
40.0400 -26.6618 -0.0952
40.0600 -26.6752 -0.0969
40.0800 -26.6885 -0.0979
40.1000 -26.7018 -0.0986
40.1200 -26.7151 -0.0977
40.1400 -26.7285 -0.0982
40.1600 -26.7418 -0.0989
40.1800 -26.7551 -0.0978
40.2000 -26.7685 -0.0986
40.2200 -26.7818 -0.0956
40.2400 -26.7952 -0.0975
40.2600 -26.8085 -0.0964
40.2800 -26.8218 -0.0990
40.3000 -26.8351 -0.0970
40.3200 -26.8484 -0.0985
40.3400 -26.8618 -0.0964
40.3600 -26.8751 -0.0987
40.3800 -26.8885 -0.0963
40.4000 -26.9018 -0.0971
40.4200 -26.9152 -0.0956
40.4400 -26.9285 -0.0945
40.4600 -26.9418 -0.0961
40.4800 -26.9551 -0.0959
40.5000 -26.9685 -0.0977
40.5200 -26.9818 -0.0988
40.5400 -26.9951 -0.0975
40.5600 -27.0085 -0.0966
40.5800 -27.0218 -0.0971
40.6000 -27.0351 -0.0984
40.6200 -27.0484 -0.0977
40.6400 -27.0618 -0.0970
40.6600 -27.0751 -0.0965
40.6800 -27.0885 -0.0967
40.7000 -27.1018 -0.0982
40.7200 -27.1151 -0.0960
40.7400 -27.1284 -0.0959
40.7600 -27.1418 -0.0972
40.7800 -27.1552 -0.0967
40.8000 -27.1685 -0.0963
40.8200 -27.1818 -0.0972
40.8400 -27.1951 -0.0969
40.8600 -27.2085 -0.0970
40.8800 -27.2218 -0.0955
40.9000 -27.2351 -0.0958
40.9200 -27.2485 -0.0935
40.9400 -27.2618 -0.0970
40.9600 -27.2751 -0.0951
40.9800 -27.2884 -0.0967
41.0000 -27.3017 -0.0955
41.0200 -27.3151 -0.0961
41.0400 -27.3284 -0.0954
41.0600 -27.3418 -0.0959
41.0800 -27.3551 -0.0932
41.1000 -27.3684 -0.0954
41.1200 -27.3818 -0.0956
41.1400 -27.3951 -0.0958
41.1600 -27.4085 -0.0946
41.1800 -27.4218 -0.0954
41.2000 -27.4351 -0.0947
41.2200 -27.4485 -0.0963
41.2400 -27.4618 -0.0950
41.2600 -27.4752 -0.0954
41.2800 -27.4885 -0.0968
41.3000 -27.5018 -0.0972
41.3200 -27.5152 -0.0957
41.3400 -27.5285 -0.0965
41.3600 -27.5418 -0.0943
41.3800 -27.5551 -0.0949
41.4000 -27.5684 -0.0944
41.4200 -27.5817 -0.0953
41.4400 -27.5950 -0.0944
41.4600 -27.6084 -0.0951
41.4800 -27.6217 -0.0958
41.5000 -27.6352 -0.0952
41.5200 -27.6485 -0.0950
41.5400 -27.6618 -0.0975
41.5600 -27.6752 -0.0966
41.5800 -27.6885 -0.0976
41.6000 -27.7019 -0.0977
41.6200 -27.7152 -0.0959
41.6400 -27.7285 -0.0956
41.6600 -27.7418 -0.0959
41.6800 -27.7551 -0.0965
41.7000 -27.7685 -0.0954
41.7200 -27.7818 -0.0939
41.7400 -27.7951 -0.0912
41.7600 -27.8085 -0.0938
41.7800 -27.8218 -0.0943
41.8000 -27.8351 -0.0949
41.8200 -27.8485 -0.0934
41.8400 -27.8618 -0.0946
41.8600 -27.8752 -0.0948
41.8800 -27.8886 -0.0960
41.9000 -27.9018 -0.0971
41.9200 -27.9152 -0.0959
41.9400 -27.9285 -0.0941
41.9600 -27.9419 -0.0950
41.9800 -27.9552 -0.0940
42.0000 -27.9685 -0.0938
42.0200 -27.9818 -0.0942
42.0400 -27.9952 -0.0930
42.0600 -28.0085 -0.0958
42.0800 -28.0217 -0.0966
42.1000 -28.0351 -0.0952
42.1200 -28.0484 -0.0936
42.1400 -28.0618 -0.0927
42.1600 -28.0751 -0.0931
42.1800 -28.0885 -0.0955
42.2000 -28.1018 -0.0955
42.2200 -28.1152 -0.0930
42.2400 -28.1285 -0.0943
42.2600 -28.1418 -0.0940
42.2800 -28.1552 -0.0942
42.3000 -28.1685 -0.0930
42.3200 -28.1819 -0.0951
42.3400 -28.1952 -0.0953
42.3600 -28.2085 -0.0937
42.3800 -28.2218 -0.0935
42.4000 -28.2351 -0.0945
42.4200 -28.2484 -0.0934
42.4400 -28.2617 -0.0934
42.4600 -28.2750 -0.0934
42.4800 -28.2884 -0.0928
42.5000 -28.3018 -0.0952
42.5200 -28.3151 -0.0966
42.5400 -28.3284 -0.0970
42.5600 -28.3418 -0.0979
42.5800 -28.3552 -0.0965
42.6000 -28.3685 -0.0974
42.6200 -28.3818 -0.0961
42.6400 -28.3952 -0.0960
42.6600 -28.4085 -0.0965
42.6800 -28.4219 -0.0986
42.7000 -28.4352 -0.0973
42.7200 -28.4485 -0.0991
42.7400 -28.4618 -0.0950
42.7600 -28.4752 -0.0988
42.7800 -28.4885 -0.0945
42.8000 -28.5018 -0.0959
42.8200 -28.5151 -0.0934
42.8400 -28.5284 -0.0954
42.8600 -28.5418 -0.0968
42.8800 -28.5551 -0.0975
42.9000 -28.5684 -0.0955
42.9200 -28.5818 -0.0967
42.9400 -28.5951 -0.0955
42.9600 -28.6085 -0.0934
42.9800 -28.6218 -0.0955
43.0000 -28.6351 -0.0939
43.0200 -28.6485 -0.0945
43.0400 -28.6619 -0.0958
43.0600 -28.6752 -0.0957
43.0800 -28.6885 -0.0946
43.1000 -28.7018 -0.0967
43.1200 -28.7152 -0.0960
43.1400 -28.7285 -0.0969
43.1600 -28.7418 -0.0962
43.1800 -28.7551 -0.0961
43.2000 -28.7684 -0.0953
43.2200 -28.7818 -0.0958
43.2400 -28.7951 -0.0948
43.2600 -28.8084 -0.0948
43.2800 -28.8218 -0.0938
43.3000 -28.8352 -0.0949
43.3200 -28.8485 -0.0922
43.3400 -28.8618 -0.0948
43.3600 -28.8751 -0.0941
43.3800 -28.8885 -0.0937
43.4000 -28.9019 -0.0941
43.4200 -28.9152 -0.0940
43.4400 -28.9285 -0.0932
43.4600 -28.9418 -0.0956
43.4800 -28.9551 -0.0930
43.5000 -28.9685 -0.0934
43.5200 -28.9817 -0.0938
43.5400 -28.9950 -0.0948
43.5600 -29.0084 -0.0927
43.5800 -29.0218 -0.0945
43.6000 -29.0351 -0.0947
43.6200 -29.0484 -0.0914
43.6400 -29.0618 -0.0925
43.6600 -29.0752 -0.0926
43.6800 -29.0885 -0.0927
43.7000 -29.1019 -0.0950
43.7200 -29.1152 -0.0939
43.7400 -29.1285 -0.0934
43.7600 -29.1419 -0.0950
43.7800 -29.1552 -0.0940
43.8000 -29.1684 -0.0964
43.8200 -29.1817 -0.0962
43.8400 -29.1950 -0.0937
43.8600 -29.2084 -0.0925
43.8800 -29.2217 -0.0949
43.9000 -29.2350 -0.0962
43.9200 -29.2484 -0.0948
43.9400 -29.2618 -0.0972
43.9600 -29.2751 -0.0955
43.9800 -29.2885 -0.0939
44.0000 -29.3018 -0.0947
44.0200 -29.3152 -0.0951
44.0400 -29.3286 -0.0961
44.0600 -29.3419 -0.0973
44.0800 -29.3552 -0.0966
44.1000 -29.3685 -0.0945
44.1200 -29.3819 -0.0954
44.1400 -29.3952 -0.0947
44.1600 -29.4085 -0.0944
44.1800 -29.4218 -0.0955
44.2000 -29.4351 -0.0960
44.2200 -29.4485 -0.0950
44.2400 -29.4618 -0.0975
44.2600 -29.4751 -0.0964
44.2800 -29.4884 -0.0941
44.3000 -29.5018 -0.0960
44.3200 -29.5151 -0.0937
44.3400 -29.5285 -0.0963
44.3600 -29.5418 -0.0963
44.3800 -29.5552 -0.0955
44.4000 -29.5685 -0.0954
44.4200 -29.5818 -0.0954
44.4400 -29.5951 -0.0945
44.4600 -29.6085 -0.0940
44.4800 -29.6218 -0.0958
44.5000 -29.6352 -0.0962
44.5200 -29.6485 -0.0949
44.5400 -29.6618 -0.0961
44.5600 -29.6751 -0.0946
44.5800 -29.6885 -0.0964
44.6000 -29.7018 -0.0968
44.6200 -29.7151 -0.0971
44.6400 -29.7284 -0.0950
44.6600 -29.7418 -0.0963
44.6800 -29.7551 -0.0967
44.7000 -29.7685 -0.0948
44.7200 -29.7818 -0.0979
44.7400 -29.7951 -0.0946
44.7600 -29.8085 -0.0941
44.7800 -29.8218 -0.0941
44.8000 -29.8351 -0.0946
44.8200 -29.8485 -0.0932
44.8400 -29.8618 -0.0943
44.8600 -29.8752 -0.0944
44.8800 -29.8884 -0.0955
44.9000 -29.9018 -0.0940
44.9200 -29.9151 -0.0964
44.9400 -29.9285 -0.0943
44.9600 -29.9418 -0.0969
44.9800 -29.9550 -0.0936
45.0000 -29.9684 -0.0927
45.0200 -29.9818 -0.0937
45.0400 -29.9951 -0.0961
45.0600 -30.0085 -0.0915
45.0800 -30.0218 -0.0945
45.1000 -30.0352 -0.0919
45.1200 -30.0485 -0.0944
45.1400 -30.0619 -0.0936
45.1600 -30.0751 -0.0950
45.1800 -30.0885 -0.0914
45.2000 -30.1018 -0.0937
45.2200 -30.1152 -0.0940
45.2400 -30.1285 -0.0941
45.2600 -30.1418 -0.0937
45.2800 -30.1551 -0.0948
45.3000 -30.1685 -0.0922
45.3200 -30.1818 -0.0936
45.3400 -30.1950 -0.0948
45.3600 -30.2084 -0.0925
45.3800 -30.2218 -0.0922
45.4000 -30.2351 -0.0905
45.4200 -30.2484 -0.0939
45.4400 -30.2618 -0.0945
45.4600 -30.2751 -0.0981
45.4800 -30.2885 -0.0934
45.5000 -30.3019 -0.0959
45.5200 -30.3152 -0.0931
45.5400 -30.3285 -0.0926
45.5600 -30.3419 -0.0911
45.5800 -30.3552 -0.0945
45.6000 -30.3685 -0.0918
45.6200 -30.3818 -0.0960
45.6400 -30.3951 -0.0930
45.6600 -30.4085 -0.0930
45.6800 -30.4218 -0.0938
45.7000 -30.4351 -0.0939
45.7200 -30.4484 -0.0930
45.7400 -30.4617 -0.0941
45.7600 -30.4751 -0.0947
45.7800 -30.4884 -0.0924
45.8000 -30.5018 -0.0935
45.8200 -30.5152 -0.0924
45.8400 -30.5286 -0.0918
45.8600 -30.5419 -0.0912
45.8800 -30.5552 -0.0937
45.9000 -30.5685 -0.0919
45.9200 -30.5818 -0.0935
45.9400 -30.5951 -0.0925
45.9600 -30.6085 -0.0915
45.9800 -30.6218 -0.0928
46.0000 -30.6351 -0.0932
46.0200 -30.6485 -0.0898
46.0400 -30.6618 -0.0927
46.0600 -30.6751 -0.0934
46.0800 -30.6884 -0.0925
46.1000 -30.7018 -0.0943
46.1200 -30.7152 -0.0953
46.1400 -30.7285 -0.0928
46.1600 -30.7418 -0.0932
46.1800 -30.7551 -0.0935
46.2000 -30.7685 -0.0935
46.2200 -30.7818 -0.0936
46.2400 -30.7951 -0.0942
46.2600 -30.8084 -0.0918
46.2800 -30.8217 -0.0925
46.3000 -30.8351 -0.0938
46.3200 -30.8485 -0.0934
46.3400 -30.8618 -0.0943
46.3600 -30.8751 -0.0942
46.3800 -30.8885 -0.0906
46.4000 -30.9018 -0.0923
46.4200 -30.9151 -0.0935
46.4400 -30.9284 -0.0910
46.4600 -30.9418 -0.0932
46.4800 -30.9551 -0.0935
46.5000 -30.9684 -0.0924
46.5200 -30.9817 -0.0895
46.5400 -30.9951 -0.0921
46.5600 -31.0085 -0.0895
46.5800 -31.0219 -0.0925
46.6000 -31.0352 -0.0913
46.6200 -31.0485 -0.0926
46.6400 -31.0618 -0.0911
46.6600 -31.0752 -0.0937
46.6800 -31.0885 -0.0903
46.7000 -31.1018 -0.0920
46.7200 -31.1151 -0.0930
46.7400 -31.1285 -0.0915
46.7600 -31.1418 -0.0914
46.7800 -31.1551 -0.0938
46.8000 -31.1684 -0.0949
46.8200 -31.1817 -0.0936
46.8400 -31.1951 -0.0928
46.8600 -31.2084 -0.0905
46.8800 -31.2217 -0.0932
46.9000 -31.2351 -0.0941
46.9200 -31.2485 -0.0933
46.9400 -31.2618 -0.0941
46.9600 -31.2752 -0.0941
46.9800 -31.2885 -0.0922
47.0000 -31.3018 -0.0933
47.0200 -31.3152 -0.0943
47.0400 -31.3285 -0.0936
47.0600 -31.3418 -0.0945
47.0800 -31.3551 -0.0946
47.1000 -31.3685 -0.0923
47.1200 -31.3818 -0.0932
47.1400 -31.3951 -0.0928
47.1600 -31.4084 -0.0911
47.1800 -31.4218 -0.0895
47.2000 -31.4351 -0.0932
47.2200 -31.4485 -0.0902
47.2400 -31.4618 -0.0941
47.2600 -31.4751 -0.0917
47.2800 -31.4885 -0.0929
47.3000 -31.5018 -0.0919
47.3200 -31.5152 -0.0962
47.3400 -31.5285 -0.0930
47.3600 -31.5418 -0.0946
47.3800 -31.5552 -0.0950
47.4000 -31.5685 -0.0922
47.4200 -31.5818 -0.0945
47.4400 -31.5952 -0.0937
47.4600 -31.6085 -0.0943
47.4800 -31.6218 -0.0945
47.5000 -31.6351 -0.0977
47.5200 -31.6484 -0.0938
47.5400 -31.6618 -0.0957
47.5600 -31.6751 -0.0950
47.5800 -31.6885 -0.0932
47.6000 -31.7018 -0.0924
47.6200 -31.7151 -0.0941
47.6400 -31.7285 -0.0917
47.6600 -31.7419 -0.0920
47.6800 -31.7552 -0.0940
47.7000 -31.7685 -0.0921
47.7200 -31.7818 -0.0931
47.7400 -31.7952 -0.0947
47.7600 -31.8085 -0.0928
47.7800 -31.8218 -0.0945
47.8000 -31.8351 -0.0936
47.8200 -31.8485 -0.0937
47.8400 -31.8618 -0.0903
47.8600 -31.8751 -0.0933
47.8800 -31.8884 -0.0910
47.9000 -31.9018 -0.0918
47.9200 -31.9152 -0.0936
47.9400 -31.9285 -0.0932
47.9600 -31.9418 -0.0930
47.9800 -31.9551 -0.0935
48.0000 -31.9685 -0.0938
48.0200 -31.9819 -0.0937
48.0400 -31.9952 -0.0951
48.0600 -32.0085 -0.0926
48.0800 -32.0218 -0.0917
48.1000 -32.0352 -0.0922
48.1200 -32.0485 -0.0909
48.1400 -32.0618 -0.0923
48.1600 -32.0751 -0.0957
48.1800 -32.0885 -0.0913
48.2000 -32.1018 -0.0914
48.2200 -32.1151 -0.0937
48.2400 -32.1284 -0.0928
48.2600 -32.1418 -0.0893
48.2800 -32.1551 -0.0932
48.3000 -32.1684 -0.0903
48.3200 -32.1817 -0.0927
48.3400 -32.1951 -0.0925
48.3600 -32.2085 -0.0934
48.3800 -32.2218 -0.0905
48.4000 -32.2352 -0.0941
48.4200 -32.2485 -0.0927
48.4400 -32.2618 -0.0925
48.4600 -32.2752 -0.0933
48.4800 -32.2885 -0.0909
48.5000 -32.3018 -0.0907
48.5200 -32.3152 -0.0930
48.5400 -32.3285 -0.0920
48.5600 -32.3419 -0.0907
48.5800 -32.3551 -0.0921
48.6000 -32.3684 -0.0911
48.6200 -32.3817 -0.0917
48.6400 -32.3951 -0.0918
48.6600 -32.4084 -0.0933
48.6800 -32.4217 -0.0929
48.7000 -32.4350 -0.0953
48.7200 -32.4484 -0.0917
48.7400 -32.4618 -0.0919
48.7600 -32.4752 -0.0921
48.7800 -32.4885 -0.0945
48.8000 -32.5019 -0.0918
48.8200 -32.5152 -0.0941
48.8400 -32.5286 -0.0932
48.8600 -32.5419 -0.0943
48.8800 -32.5552 -0.0945
48.9000 -32.5685 -0.0929
48.9200 -32.5818 -0.0898
48.9400 -32.5951 -0.0933
48.9600 -32.6084 -0.0910
48.9800 -32.6217 -0.0923
49.0000 -32.6351 -0.0930
49.0200 -32.6485 -0.0913
49.0400 -32.6618 -0.0896
49.0600 -32.6751 -0.0895
49.0800 -32.6885 -0.0898
49.1000 -32.7019 -0.0902
49.1200 -32.7152 -0.0932
49.1400 -32.7285 -0.0924
49.1600 -32.7418 -0.0926
49.1800 -32.7552 -0.0933
49.2000 -32.7685 -0.0934
49.2200 -32.7818 -0.0902
49.2400 -32.7951 -0.0935
49.2600 -32.8085 -0.0897
49.2800 -32.8218 -0.0902
49.3000 -32.8351 -0.0933
49.3200 -32.8484 -0.0938
49.3400 -32.8617 -0.0910
49.3600 -32.8751 -0.0938
49.3800 -32.8885 -0.0907
49.4000 -32.9018 -0.0910
49.4200 -32.9151 -0.0928
49.4400 -32.9285 -0.0915
49.4600 -32.9418 -0.0903
49.4800 -32.9552 -0.0934
49.5000 -32.9685 -0.0913
49.5200 -32.9818 -0.0891
49.5400 -32.9952 -0.0932
49.5600 -33.0085 -0.0908
49.5800 -33.0218 -0.0900
49.6000 -33.0351 -0.0928
49.6200 -33.0485 -0.0923
49.6400 -33.0618 -0.0907
49.6600 -33.0751 -0.0931
49.6800 -33.0884 -0.0929
49.7000 -33.1017 -0.0909
49.7200 -33.1151 -0.0934
49.7400 -33.1284 -0.0921
49.7600 -33.1418 -0.0905
49.7800 -33.1551 -0.0923
49.8000 -33.1685 -0.0924
49.8200 -33.1819 -0.0899
49.8400 -33.1952 -0.0944
49.8600 -33.2085 -0.0931
49.8800 -33.2218 -0.0903
49.9000 -33.2352 -0.0915
49.9200 -33.2485 -0.0897
49.9400 -33.2618 -0.0915
49.9600 -33.2752 -0.0928
49.9800 -33.2885 -0.0939
50.0000 -33.3018 -0.0903
50.0200 -33.3151 -0.0931
50.0400 -33.3284 -0.0924
50.0600 -33.3418 -0.0915
50.0800 -33.3551 -0.0920
50.1000 -33.3685 -0.0922
50.1200 -33.3818 -0.0927
50.1400 -33.3951 -0.0952
50.1600 -33.4084 -0.0938
50.1800 -33.4218 -0.0923
50.2000 -33.4352 -0.0938
50.2200 -33.4485 -0.0952
50.2400 -33.4618 -0.0903
50.2600 -33.4752 -0.0932
50.2800 -33.4885 -0.0926
50.3000 -33.5019 -0.0923
50.3200 -33.5152 -0.0929
50.3400 -33.5285 -0.0922
50.3600 -33.5419 -0.0915
50.3800 -33.5552 -0.0948
50.4000 -33.5684 -0.0958
50.4200 -33.5818 -0.0930
50.4400 -33.5951 -0.0952
50.4600 -33.6085 -0.0916
50.4800 -33.6218 -0.0951
50.5000 -33.6351 -0.0937
50.5200 -33.6484 -0.0949
50.5400 -33.6618 -0.0910
50.5600 -33.6752 -0.0943
50.5800 -33.6885 -0.0940
50.6000 -33.7018 -0.0932
50.6200 -33.7152 -0.0966
50.6400 -33.7285 -0.0949
50.6600 -33.7418 -0.0933
50.6800 -33.7551 -0.0941
50.7000 -33.7685 -0.0947
50.7200 -33.7818 -0.0928
50.7400 -33.7951 -0.0939
50.7600 -33.8084 -0.0920
50.7800 -33.8217 -0.0911
50.8000 -33.8351 -0.0929
50.8200 -33.8484 -0.0929
50.8400 -33.8618 -0.0921
50.8600 -33.8751 -0.0940
50.8800 -33.8884 -0.0958
50.9000 -33.9018 -0.0945
50.9200 -33.9152 -0.0953
50.9400 -33.9285 -0.0929
50.9600 -33.9418 -0.0915
50.9800 -33.9552 -0.0929
51.0000 -33.9685 -0.0940
51.0200 -33.9818 -0.0923
51.0400 -33.9951 -0.0927
51.0600 -34.0084 -0.0948
51.0800 -34.0217 -0.0907
51.1000 -34.0350 -0.0928
51.1200 -34.0483 -0.0929
51.1400 -34.0617 -0.0934
51.1600 -34.0751 -0.0928
51.1800 -34.0885 -0.0929
51.2000 -34.1018 -0.0918
51.2200 -34.1151 -0.0936
51.2400 -34.1285 -0.0934
51.2600 -34.1419 -0.0910
51.2800 -34.1552 -0.0914
51.3000 -34.1685 -0.0934
51.3200 -34.1818 -0.0918
51.3400 -34.1952 -0.0911
51.3600 -34.2085 -0.0937
51.3800 -34.2219 -0.0914
51.4000 -34.2352 -0.0930
51.4200 -34.2485 -0.0927
51.4400 -34.2618 -0.0904
51.4600 -34.2752 -0.0920
51.4800 -34.2885 -0.0931
51.5000 -34.3018 -0.0908
51.5200 -34.3151 -0.0928
51.5400 -34.3285 -0.0958
51.5600 -34.3418 -0.0924
51.5800 -34.3551 -0.0955
51.6000 -34.3685 -0.0946
51.6200 -34.3818 -0.0940
51.6400 -34.3952 -0.0938
51.6600 -34.4085 -0.0945
51.6800 -34.4218 -0.0913
51.7000 -34.4352 -0.0946
51.7200 -34.4485 -0.0928
51.7400 -34.4618 -0.0919
51.7600 -34.4751 -0.0938
51.7800 -34.4885 -0.0928
51.8000 -34.5018 -0.0908
51.8200 -34.5151 -0.0897
51.8400 -34.5284 -0.0931
51.8600 -34.5417 -0.0908
51.8800 -34.5550 -0.0918
51.9000 -34.5684 -0.0913
51.9200 -34.5818 -0.0896
51.9400 -34.5951 -0.0918
51.9600 -34.6084 -0.0926
51.9800 -34.6218 -0.0917
52.0000 -34.6352 -0.0919
52.0200 -34.6485 -0.0924
52.0400 -34.6618 -0.0926
52.0600 -34.6751 -0.0955
52.0800 -34.6885 -0.0957
52.1000 -34.7018 -0.0929
52.1200 -34.7151 -0.0932
52.1400 -34.7284 -0.0959
52.1600 -34.7418 -0.0940
52.1800 -34.7551 -0.0922
52.2000 -34.7684 -0.0925
52.2200 -34.7817 -0.0904
52.2400 -34.7951 -0.0942
52.2600 -34.8085 -0.0934
52.2800 -34.8218 -0.0904
52.3000 -34.8351 -0.0932
52.3200 -34.8485 -0.0950
52.3400 -34.8618 -0.0951
52.3600 -34.8752 -0.0947
52.3800 -34.8885 -0.0942
52.4000 -34.9018 -0.0928
52.4200 -34.9152 -0.0938
52.4400 -34.9286 -0.0968
52.4600 -34.9419 -0.0913
52.4800 -34.9552 -0.0931
52.5000 -34.9685 -0.0937
52.5200 -34.9818 -0.0932
52.5400 -34.9951 -0.0933
52.5600 -35.0084 -0.0968
52.5800 -35.0217 -0.0947
52.6000 -35.0351 -0.0947
52.6200 -35.0484 -0.0965
52.6400 -35.0618 -0.0936
52.6600 -35.0751 -0.0933
52.6800 -35.0885 -0.0946
52.7000 -35.1018 -0.0934
52.7200 -35.1152 -0.0944
52.7400 -35.1285 -0.0947
52.7600 -35.1418 -0.0923
52.7800 -35.1552 -0.0937
52.8000 -35.1685 -0.0951
52.8200 -35.1819 -0.0928
52.8400 -35.1951 -0.0938
52.8600 -35.2085 -0.0952
52.8800 -35.2218 -0.0933
52.9000 -35.2351 -0.0924
52.9200 -35.2484 -0.0931
52.9400 -35.2617 -0.0931
52.9600 -35.2751 -0.0926
52.9800 -35.2884 -0.0935
53.0000 -35.3018 -0.0929
53.0200 -35.3151 -0.0931
53.0400 -35.3285 -0.0941
53.0600 -35.3418 -0.0926
53.0800 -35.3552 -0.0931
53.1000 -35.3685 -0.0949
53.1200 -35.3818 -0.0928
53.1400 -35.3951 -0.0939
53.1600 -35.4085 -0.0935
53.1800 -35.4218 -0.0942
53.2000 -35.4351 -0.0933
53.2200 -35.4484 -0.0936
53.2400 -35.4618 -0.0919
53.2600 -35.4751 -0.0920
53.2800 -35.4884 -0.0935
53.3000 -35.5017 -0.0938
53.3200 -35.5151 -0.0947
53.3400 -35.5285 -0.0936
53.3600 -35.5418 -0.0907
53.3800 -35.5551 -0.0928
53.4000 -35.5685 -0.0930
53.4200 -35.5818 -0.0934
53.4400 -35.5952 -0.0943
53.4600 -35.6085 -0.0940
53.4800 -35.6217 -0.0928
53.5000 -35.6351 -0.0932
53.5200 -35.6484 -0.0944
53.5400 -35.6618 -0.0942
53.5600 -35.6751 -0.0937
53.5800 -35.6885 -0.0943
53.6000 -35.7018 -0.0932
53.6200 -35.7152 -0.0923
53.6400 -35.7285 -0.0927
53.6600 -35.7418 -0.0922
53.6800 -35.7551 -0.0924
53.7000 -35.7684 -0.0937
53.7200 -35.7818 -0.0927
53.7400 -35.7951 -0.0921
53.7600 -35.8084 -0.0939
53.7800 -35.8218 -0.0929
53.8000 -35.8352 -0.0928
53.8200 -35.8485 -0.0931
53.8400 -35.8618 -0.0920
53.8600 -35.8752 -0.0934
53.8800 -35.8885 -0.0937
53.9000 -35.9019 -0.0917
53.9200 -35.9152 -0.0925
53.9400 -35.9285 -0.0940
53.9600 -35.9418 -0.0939
53.9800 -35.9552 -0.0923
54.0000 -35.9685 -0.0939
54.0200 -35.9817 -0.0946
54.0400 -35.9951 -0.0930
54.0600 -36.0084 -0.0949
54.0800 -36.0218 -0.0917
54.1000 -36.0351 -0.0928
54.1200 -36.0484 -0.0936
54.1400 -36.0618 -0.0921
54.1600 -36.0752 -0.0910
54.1800 -36.0885 -0.0946
54.2000 -36.1018 -0.0927
54.2200 -36.1151 -0.0924
54.2400 -36.1285 -0.0943
54.2600 -36.1418 -0.0942
54.2800 -36.1551 -0.0932
54.3000 -36.1685 -0.0950
54.3200 -36.1818 -0.0938
54.3400 -36.1952 -0.0936
54.3600 -36.2084 -0.0966
54.3800 -36.2217 -0.0942
54.4000 -36.2351 -0.0938
54.4200 -36.2484 -0.0939
54.4400 -36.2618 -0.0937
54.4600 -36.2751 -0.0921
54.4800 -36.2884 -0.0925
54.5000 -36.3018 -0.0944
54.5200 -36.3152 -0.0938
54.5400 -36.3285 -0.0944
54.5600 -36.3418 -0.0940
54.5800 -36.3551 -0.0934
54.6000 -36.3685 -0.0945
54.6200 -36.3818 -0.0931
54.6400 -36.3951 -0.0936
54.6600 -36.4085 -0.0943
54.6800 -36.4218 -0.0948
54.7000 -36.4352 -0.0926
54.7200 -36.4485 -0.0950
54.7400 -36.4618 -0.0941
54.7600 -36.4751 -0.0942
54.7800 -36.4884 -0.0926
54.8000 -36.5018 -0.0956
54.8200 -36.5151 -0.0928
54.8400 -36.5284 -0.0964
54.8600 -36.5418 -0.0931
54.8800 -36.5552 -0.0951
54.9000 -36.5685 -0.0940
54.9200 -36.5818 -0.0970
54.9400 -36.5951 -0.0942
54.9600 -36.6085 -0.0963
54.9800 -36.6218 -0.0933
55.0000 -36.6351 -0.0927
55.0200 -36.6485 -0.0923
55.0400 -36.6618 -0.0945
55.0600 -36.6751 -0.0938
55.0800 -36.6884 -0.0951
55.1000 -36.7017 -0.0948
55.1200 -36.7151 -0.0946
55.1400 -36.7285 -0.0951
55.1600 -36.7418 -0.0942
55.1800 -36.7551 -0.0939
55.2000 -36.7685 -0.0957
55.2200 -36.7818 -0.0948
55.2400 -36.7952 -0.0932
55.2600 -36.8085 -0.0948
55.2800 -36.8218 -0.0955
55.3000 -36.8351 -0.0951
55.3200 -36.8485 -0.0950
55.3400 -36.8618 -0.0965
55.3600 -36.8751 -0.0930
55.3800 -36.8885 -0.0965
55.4000 -36.9018 -0.0955
55.4200 -36.9151 -0.0948
55.4400 -36.9285 -0.0943
55.4600 -36.9418 -0.0938
55.4800 -36.9551 -0.0941
55.5000 -36.9685 -0.0971
55.5200 -36.9818 -0.0954
55.5400 -36.9951 -0.0943
55.5600 -37.0084 -0.0947
55.5800 -37.0218 -0.0954
55.6000 -37.0351 -0.0951
55.6200 -37.0485 -0.0951
55.6400 -37.0618 -0.0945
55.6600 -37.0751 -0.0951
55.6800 -37.0885 -0.0964
55.7000 -37.1019 -0.0946
55.7200 -37.1152 -0.0941
55.7400 -37.1285 -0.0961
55.7600 -37.1419 -0.0957
55.7800 -37.1552 -0.0961
55.8000 -37.1685 -0.0962
55.8200 -37.1818 -0.0959
55.8400 -37.1951 -0.0944
55.8600 -37.2084 -0.0945
55.8800 -37.2217 -0.0957
55.9000 -37.2350 -0.0949
55.9200 -37.2483 -0.0970
55.9400 -37.2617 -0.0975
55.9600 -37.2751 -0.0976
55.9800 -37.2885 -0.0954
56.0000 -37.3018 -0.0964
56.0200 -37.3151 -0.0973
56.0400 -37.3285 -0.0970
56.0600 -37.3419 -0.0958
56.0800 -37.3552 -0.0952
56.1000 -37.3685 -0.0972
56.1200 -37.3818 -0.0958
56.1400 -37.3951 -0.0949
56.1600 -37.4085 -0.0934
56.1800 -37.4217 -0.0966
56.2000 -37.4351 -0.0941
56.2200 -37.4484 -0.0973
56.2400 -37.4618 -0.0952
56.2600 -37.4751 -0.0957
56.2800 -37.4884 -0.0965
56.3000 -37.5018 -0.0996
56.3200 -37.5152 -0.0969
56.3400 -37.5285 -0.0974
56.3600 -37.5418 -0.0946
56.3800 -37.5551 -0.0975
56.4000 -37.5685 -0.0954
56.4200 -37.5818 -0.0973
56.4400 -37.5952 -0.0964
56.4600 -37.6085 -0.0983
56.4800 -37.6218 -0.0960
56.5000 -37.6351 -0.0976
56.5200 -37.6485 -0.0958
56.5400 -37.6618 -0.0983
56.5600 -37.6751 -0.0969
56.5800 -37.6884 -0.0970
56.6000 -37.7018 -0.0951
56.6200 -37.7151 -0.0960
56.6400 -37.7285 -0.0969
56.6600 -37.7418 -0.0990
56.6800 -37.7552 -0.0965
56.7000 -37.7685 -0.0971
56.7200 -37.7818 -0.0959
56.7400 -37.7952 -0.0955
56.7600 -37.8085 -0.0983
56.7800 -37.8219 -0.0957
56.8000 -37.8352 -0.0973
56.8200 -37.8485 -0.0963
56.8400 -37.8618 -0.0976
56.8600 -37.8751 -0.0962
56.8800 -37.8884 -0.0967
56.9000 -37.9017 -0.0971
56.9200 -37.9150 -0.0964
56.9400 -37.9284 -0.0963
56.9600 -37.9418 -0.0967
56.9800 -37.9551 -0.0958
57.0000 -37.9684 -0.0984
57.0200 -37.9818 -0.0971
57.0400 -37.9952 -0.0967
57.0600 -38.0085 -0.0965
57.0800 -38.0218 -0.0967
57.1000 -38.0352 -0.0949
57.1200 -38.0485 -0.0976
57.1400 -38.0619 -0.0954
57.1600 -38.0752 -0.0977
57.1800 -38.0885 -0.0959
57.2000 -38.1018 -0.0984
57.2200 -38.1151 -0.0958
57.2400 -38.1285 -0.0960
57.2600 -38.1418 -0.0956
57.2800 -38.1551 -0.0980
57.3000 -38.1684 -0.0981
57.3200 -38.1818 -0.0966
57.3400 -38.1951 -0.0947
57.3600 -38.2085 -0.0968
57.3800 -38.2218 -0.0963
57.4000 -38.2351 -0.0979
57.4200 -38.2485 -0.0965
57.4400 -38.2618 -0.0971
57.4600 -38.2751 -0.0950
57.4800 -38.2885 -0.0972
57.5000 -38.3018 -0.0976
57.5200 -38.3152 -0.0961
57.5400 -38.3285 -0.0955
57.5600 -38.3418 -0.0960
57.5800 -38.3552 -0.0949
57.6000 -38.3685 -0.0953
57.6200 -38.3818 -0.0964
57.6400 -38.3951 -0.0969
57.6600 -38.4084 -0.0952
57.6800 -38.4218 -0.0982
57.7000 -38.4351 -0.0957
57.7200 -38.4484 -0.0961
57.7400 -38.4618 -0.0970
57.7600 -38.4751 -0.0969
57.7800 -38.4885 -0.0964
57.8000 -38.5018 -0.0970
57.8200 -38.5151 -0.0943
57.8400 -38.5285 -0.0938
57.8600 -38.5419 -0.0957
57.8800 -38.5552 -0.0953
57.9000 -38.5685 -0.0949
57.9200 -38.5818 -0.0955
57.9400 -38.5951 -0.0965
57.9600 -38.6085 -0.0935
57.9800 -38.6218 -0.0962
58.0000 -38.6350 -0.0968
58.0200 -38.6484 -0.0956
58.0400 -38.6618 -0.0978
58.0600 -38.6751 -0.0962
58.0800 -38.6884 -0.0967
58.1000 -38.7017 -0.0969
58.1200 -38.7151 -0.0955
58.1400 -38.7286 -0.0943
58.1600 -38.7419 -0.0976
58.1800 -38.7552 -0.0935
58.2000 -38.7685 -0.0965
58.2200 -38.7819 -0.0959
58.2400 -38.7952 -0.0963
58.2600 -38.8085 -0.0944
58.2800 -38.8218 -0.0975
58.3000 -38.8350 -0.0964
58.3200 -38.8484 -0.0961
58.3400 -38.8617 -0.0954
58.3600 -38.8750 -0.0951
58.3800 -38.8884 -0.0972
58.4000 -38.9018 -0.0973
58.4200 -38.9151 -0.0985
58.4400 -38.9284 -0.0963
58.4600 -38.9418 -0.0998
58.4800 -38.9551 -0.0969
58.5000 -38.9685 -0.0987
58.5200 -38.9819 -0.0971
58.5400 -38.9952 -0.0975
58.5600 -39.0085 -0.0948
58.5800 -39.0219 -0.0992
58.6000 -39.0352 -0.0976
58.6200 -39.0485 -0.1004
58.6400 -39.0618 -0.0979
58.6600 -39.0751 -0.0980
58.6800 -39.0885 -0.0976
58.7000 -39.1018 -0.1004
58.7200 -39.1151 -0.1011
58.7400 -39.1284 -0.1014
58.7600 -39.1418 -0.1010
58.7800 -39.1551 -0.0995
58.8000 -39.1685 -0.0983
58.8200 -39.1818 -0.1003
58.8400 -39.1951 -0.0997
58.8600 -39.2085 -0.0991
58.8800 -39.2218 -0.0998
58.9000 -39.2351 -0.1006
58.9200 -39.2485 -0.0992
58.9400 -39.2618 -0.1007
58.9600 -39.2752 -0.1006
58.9800 -39.2885 -0.0998
59.0000 -39.3018 -0.0985
59.0200 -39.3151 -0.0988
59.0400 -39.3285 -0.0967
59.0600 -39.3418 -0.0982
59.0800 -39.3551 -0.1000
59.1000 -39.3684 -0.0990
59.1200 -39.3818 -0.1006
59.1400 -39.3951 -0.0981
59.1600 -39.4085 -0.1001
59.1800 -39.4218 -0.1003
59.2000 -39.4351 -0.1001
59.2200 -39.4485 -0.0985
59.2400 -39.4618 -0.0992
59.2600 -39.4751 -0.0987
59.2800 -39.4885 -0.0983
59.3000 -39.5018 -0.0961
59.3200 -39.5152 -0.0982
59.3400 -39.5285 -0.0971
59.3600 -39.5418 -0.0982
59.3800 -39.5551 -0.0978
59.4000 -39.5685 -0.0968
59.4200 -39.5818 -0.0969
59.4400 -39.5951 -0.0988
59.4600 -39.6084 -0.0984
59.4800 -39.6218 -0.0976
59.5000 -39.6351 -0.0998
59.5200 -39.6485 -0.0984
59.5400 -39.6618 -0.0997
59.5600 -39.6751 -0.0992
59.5800 -39.6885 -0.0989
59.6000 -39.7018 -0.1001
59.6200 -39.7151 -0.1010
59.6400 -39.7285 -0.1005
59.6600 -39.7418 -0.1006
59.6800 -39.7552 -0.1003
59.7000 -39.7685 -0.0998
59.7200 -39.7818 -0.1011
59.7400 -39.7951 -0.1014
59.7600 -39.8085 -0.0998
59.7800 -39.8218 -0.0974
59.8000 -39.8350 -0.0990
59.8200 -39.8484 -0.0998
59.8400 -39.8617 -0.1009
59.8600 -39.8751 -0.1011
59.8800 -39.8884 -0.1005
59.9000 -39.9018 -0.0985
59.9200 -39.9151 -0.0970
59.9400 -39.9285 -0.0970
59.9600 -39.9419 -0.0984
59.9800 -39.9552 -0.0989
60.0000 -39.9685 -0.0998
60.0200 -39.9818 -0.0985
60.0400 -39.9952 -0.0986
60.0480 -40.0004 -0.0933
