Raw Data
Time Displacement Force
(s) (mm) (N)
0.0000 0.0000 0.3423
0.0200 0.0001 0.3479
0.0400 0.0021 0.4132
0.0600 0.0098 0.4200
0.0800 0.0217 0.3265
0.1000 0.0342 0.3280
0.1200 0.0468 0.3681
0.1400 0.0602 0.3335
0.1600 0.0742 0.3396
0.1800 0.0884 0.3537
0.2000 0.1024 0.3221
0.2200 0.1160 0.3297
0.2400 0.1294 0.3516
0.2600 0.1426 0.3347
0.2800 0.1560 0.3480
0.3000 0.1693 0.3482
0.3200 0.1827 0.3261
0.3400 0.1961 0.3484
0.3600 0.2094 0.3505
0.3800 0.2227 0.3350
0.4000 0.2361 0.3491
0.4200 0.2494 0.3444
0.4400 0.2627 0.3324
0.4600 0.2760 0.3465
0.4800 0.2894 0.3473
0.5000 0.3027 0.3303
0.5200 0.3160 0.3398
0.5400 0.3293 0.3410
0.5600 0.3427 0.3324
0.5800 0.3560 0.3411
0.6000 0.3694 0.3406
0.6200 0.3827 0.3289
0.6400 0.3961 0.3386
0.6600 0.4094 0.3368
0.6800 0.4228 0.3347
0.7000 0.4361 0.3320
0.7200 0.4494 0.3427
0.7400 0.4628 0.3339
0.7600 0.4761 0.3329
0.7800 0.4894 0.3411
0.8000 0.5027 0.3273
0.8200 0.5161 0.3353
0.8400 0.5294 0.3419
0.8600 0.5428 0.3288
0.8800 0.5560 0.3330
0.9000 0.5693 0.3391
0.9200 0.5826 0.3307
0.9400 0.5960 0.3302
0.9600 0.6093 0.3377
0.9800 0.6227 0.3251
1.0000 0.6360 0.3300
1.0200 0.6494 0.3312
1.0400 0.6627 0.3194
1.0600 0.6761 0.3309
1.0800 0.6894 0.3278
1.1000 0.7027 0.3157
1.1200 0.7161 0.3289
1.1400 0.7294 0.3258
1.1600 0.7427 0.3127
1.1800 0.7560 0.3244
1.2000 0.7694 0.3262
1.2200 0.7827 0.3091
1.2400 0.7960 0.3206
1.2600 0.8093 0.3242
1.2800 0.8227 0.3110
1.3000 0.8360 0.3183
1.3200 0.8494 0.3131
1.3400 0.8627 0.3139
1.3600 0.8760 0.3153
1.3800 0.8894 0.3158
1.4000 0.9027 0.3105
1.4200 0.9161 0.3125
1.4400 0.9294 0.3154
1.4600 0.9427 0.3122
1.4800 0.9561 0.3087
1.5000 0.9694 0.3084
1.5200 0.9827 0.3112
1.5400 0.9960 0.3106
1.5600 1.0094 0.3117
1.5800 1.0227 0.3124
1.6000 1.0360 0.3004
1.6200 1.0493 0.3121
1.6400 1.0626 0.3079
1.6600 1.0760 0.3047
1.6800 1.0894 0.3117
1.7000 1.1027 0.3061
1.7200 1.1160 0.3026
1.7400 1.1294 0.3089
1.7600 1.1428 0.3078
1.7800 1.1561 0.3000
1.8000 1.1694 0.3088
1.8200 1.1828 0.3031
1.8400 1.1961 0.2975
1.8600 1.2094 0.3076
1.8800 1.2227 0.3039
1.9000 1.2360 0.3002
1.9200 1.2494 0.3013
1.9400 1.2627 0.2965
1.9600 1.2761 0.2975
1.9800 1.2893 0.2985
2.0000 1.3027 0.2938
2.0200 1.3160 0.3009
2.0400 1.3293 0.2952
2.0600 1.3427 0.2893
2.0800 1.3560 0.2993
2.1000 1.3694 0.2948
2.1200 1.3828 0.2929
2.1400 1.3961 0.2913
2.1600 1.4094 0.2971
2.1800 1.4228 0.2914
2.2000 1.4361 0.2874
2.2200 1.4494 0.2910
2.2400 1.4627 0.2982
2.2600 1.4760 0.2869
2.2800 1.4893 0.2916
2.3000 1.5027 0.2946
2.3200 1.5160 0.2838
2.3400 1.5294 0.2886
2.3600 1.5427 0.2927
2.3800 1.5561 0.2831
2.4000 1.5694 0.2936
2.4200 1.5828 0.2852
2.4400 1.5961 0.2806
2.4600 1.6094 0.2944
2.4800 1.6227 0.2828
2.5000 1.6360 0.2798
2.5200 1.6493 0.2909
2.5400 1.6626 0.2796
2.5600 1.6760 0.2829
2.5800 1.6894 0.2855
2.6000 1.7028 0.2770
2.6200 1.7161 0.2802
2.6400 1.7294 0.2840
2.6600 1.7428 0.2756
2.6800 1.7561 0.2794
2.7000 1.7694 0.2836
2.7200 1.7827 0.2692
2.7400 1.7960 0.2806
2.7600 1.8094 0.2803
2.7800 1.8227 0.2723
2.8000 1.8360 0.2784
2.8200 1.8493 0.2739
2.8400 1.8627 0.2699
2.8600 1.8761 0.2799
2.8800 1.8894 0.2773
2.9000 1.9027 0.2733
2.9200 1.9161 0.2755
2.9400 1.9294 0.2771
2.9600 1.9427 0.2689
2.9800 1.9561 0.2775
3.0000 1.9694 0.2768
3.0200 1.9827 0.2646
3.0400 1.9961 0.2735
3.0600 2.0094 0.2729
3.0800 2.0227 0.2636
3.1000 2.0360 0.2792
3.1200 2.0493 0.2667
3.1400 2.0627 0.2609
3.1600 2.0760 0.2771
3.1800 2.0894 0.2656
3.2000 2.1028 0.2649
3.2200 2.1161 0.2683
3.2400 2.1294 0.2608
3.2600 2.1428 0.2628
3.2800 2.1561 0.2667
3.3000 2.1695 0.2631
3.3200 2.1827 0.2639
3.3400 2.1960 0.2622
3.3600 2.2094 0.2571
3.3800 2.2227 0.2653
3.4000 2.2360 0.2603
3.4200 2.2493 0.2550
3.4400 2.2626 0.2661
3.4600 2.2760 0.2594
3.4800 2.2894 0.2551
3.5000 2.3027 0.2605
3.5200 2.3160 0.2580
3.5400 2.3294 0.2564
3.5600 2.3427 0.2612
3.5800 2.3561 0.2522
3.6000 2.3694 0.2532
3.6200 2.3828 0.2642
3.6400 2.3961 0.2552
3.6600 2.4095 0.2477
3.6800 2.4228 0.2601
3.7000 2.4361 0.2535
3.7200 2.4494 0.2484
3.7400 2.4627 0.2540
3.7600 2.4761 0.2503
3.7800 2.4893 0.2437
3.8000 2.5026 0.2544
3.8200 2.5160 0.2463
3.8400 2.5293 0.2462
3.8600 2.5427 0.2548
3.8800 2.5560 0.2438
3.9000 2.5694 0.2437
3.9200 2.5828 0.2547
3.9400 2.5961 0.2386
3.9600 2.6094 0.2451
3.9800 2.6227 0.2537
4.0000 2.6361 0.2421
4.0200 2.6494 0.2420
4.0400 2.6627 0.2517
4.0600 2.6760 0.2427
4.0800 2.6894 0.2388
4.1000 2.7027 0.2490
4.1200 2.7161 0.2382
4.1400 2.7294 0.2429
4.1600 2.7427 0.2465
4.1800 2.7560 0.2339
4.2000 2.7693 0.2416
4.2200 2.7827 0.2446
4.2400 2.7960 0.2363
4.2600 2.8094 0.2351
4.2800 2.8227 0.2438
4.3000 2.8361 0.2357
4.3200 2.8494 0.2348
4.3400 2.8627 0.2408
4.3600 2.8761 0.2327
4.3800 2.8895 0.2378
4.4000 2.9028 0.2320
4.4200 2.9161 0.2351
4.4400 2.9294 0.2399
4.4600 2.9427 0.2314
4.4800 2.9560 0.2325
4.5000 2.9694 0.2328
4.5200 2.9827 0.2339
4.5400 2.9960 0.2381
4.5600 3.0094 0.2321
4.5800 3.0227 0.2300
4.6000 3.0360 0.2330
4.6200 3.0494 0.2298
4.6400 3.0627 0.2293
4.6600 3.0761 0.2347
4.6800 3.0894 0.2263
4.7000 3.1027 0.2328
4.7200 3.1161 0.2319
4.7400 3.1294 0.2219
4.7600 3.1428 0.2342
4.7800 3.1561 0.2300
4.8000 3.1694 0.2169
4.8200 3.1828 0.2392
4.8400 3.1961 0.2281
4.8600 3.2094 0.2164
4.8800 3.2227 0.2346
4.9000 3.2359 0.2269
4.9200 3.2493 0.2149
4.9400 3.2626 0.2314
4.9600 3.2759 0.2228
4.9800 3.2893 0.2122
5.0000 3.3028 0.2320
5.0200 3.3162 0.2167
5.0400 3.3295 0.2150
5.0600 3.3428 0.2268
5.0800 3.3561 0.2150
5.1000 3.3695 0.2157
5.1200 3.3828 0.2272
5.1400 3.3961 0.2158
5.1600 3.4094 0.2175
5.1800 3.4227 0.2238
5.2000 3.4360 0.2153
5.2200 3.4493 0.2164
5.2400 3.4626 0.2203
5.2600 3.4760 0.2154
5.2800 3.4893 0.2133
5.3000 3.5027 0.2166
5.3200 3.5160 0.2161
5.3400 3.5294 0.2105
5.3600 3.5427 0.2143
5.3800 3.5561 0.2125
5.4000 3.5694 0.2086
5.4200 3.5828 0.2088
5.4400 3.5961 0.2146
5.4600 3.6095 0.2063
5.4800 3.6228 0.2070
5.5000 3.6361 0.2122
5.5200 3.6494 0.2066
5.5400 3.6627 0.2080
5.5600 3.6760 0.2087
5.5800 3.6894 0.2008
5.6000 3.7027 0.2081
5.6200 3.7160 0.2135
5.6400 3.7294 0.2002
5.6600 3.7427 0.2003
5.6800 3.7561 0.2096
5.7000 3.7694 0.1986
5.7200 3.7828 0.2058
5.7400 3.7961 0.2084
5.7600 3.8094 0.1969
5.7800 3.8227 0.2054
5.8000 3.8361 0.2033
5.8200 3.8494 0.1982
5.8400 3.8628 0.2030
5.8600 3.8761 0.2048
5.8800 3.8894 0.2001
5.9000 3.9027 0.2039
5.9200 3.9161 0.2024
5.9400 3.9294 0.1985
5.9600 3.9427 0.1990
5.9800 3.9560 0.1998
6.0000 3.9693 0.1986
6.0200 3.9827 0.1953
6.0400 3.9960 0.1976
6.0600 4.0094 0.2024
6.0800 4.0227 0.1891
6.1000 4.0361 0.1986
6.1200 4.0494 0.1982
6.1400 4.0628 0.1914
6.1600 4.0761 0.2015
6.1800 4.0894 0.1959
6.2000 4.1028 0.1880
6.2200 4.1161 0.2006
6.2400 4.1294 0.1946
6.2600 4.1427 0.1876
6.2800 4.1561 0.1976
6.3000 4.1694 0.1864
6.3200 4.1827 0.1896
6.3400 4.1960 0.1953
6.3600 4.2094 0.1865
6.3800 4.2227 0.1888
6.4000 4.2360 0.1915
6.4200 4.2493 0.1839
6.4400 4.2627 0.1912
6.4600 4.2761 0.1873
6.4800 4.2894 0.1818
6.5000 4.3027 0.1911
6.5200 4.3161 0.1868
6.5400 4.3294 0.1828
6.5600 4.3428 0.1838
6.5800 4.3561 0.1849
6.6000 4.3694 0.1808
6.6200 4.3827 0.1849
6.6400 4.3961 0.1860
6.6600 4.4094 0.1795
6.6800 4.4227 0.1877
6.7000 4.4360 0.1808
6.7200 4.4493 0.1783
6.7400 4.4627 0.1836
6.7600 4.4760 0.1800
6.7800 4.4894 0.1769
6.8000 4.5027 0.1823
6.8200 4.5161 0.1799
6.8400 4.5294 0.1752
6.8600 4.5427 0.1788
6.8800 4.5561 0.1819
6.9000 4.5694 0.1762
6.9200 4.5827 0.1805
6.9400 4.5961 0.1785
6.9600 4.6094 0.1781
6.9800 4.6227 0.1782
7.0000 4.6361 0.1763
7.0200 4.6494 0.1810
7.0400 4.6627 0.1772
7.0600 4.6760 0.1735
7.0800 4.6893 0.1794
7.1000 4.7026 0.1703
7.1200 4.7160 0.1775
7.1400 4.7293 0.1763
7.1600 4.7427 0.1757
7.1800 4.7561 0.1743
7.2000 4.7695 0.1729
7.2200 4.7828 0.1725
7.2400 4.7961 0.1707
7.2600 4.8095 0.1726
7.2800 4.8228 0.1684
7.3000 4.8361 0.1684
7.3200 4.8493 0.1714
7.3400 4.8626 0.1704
7.3600 4.8760 0.1659
7.3800 4.8893 0.1747
7.4000 4.9027 0.1671
7.4200 4.9160 0.1650
7.4400 4.9294 0.1758
7.4600 4.9428 0.1649
7.4800 4.9561 0.1639
7.5000 4.9694 0.1771
7.5200 4.9828 0.1585
7.5400 4.9961 0.1654
7.5600 5.0095 0.1733
7.5800 5.0228 0.1545
7.6000 5.0361 0.1627
7.6200 5.0494 0.1761
7.6400 5.0628 0.1553
7.6600 5.0761 0.1624
7.6800 5.0894 0.1753
7.7000 5.1027 0.1524
7.7200 5.1160 0.1655
7.7400 5.1294 0.1717
7.7600 5.1427 0.1502
7.7800 5.1560 0.1620
7.8000 5.1693 0.1703
7.8200 5.1827 0.1539
7.8400 5.1960 0.1660
7.8600 5.2094 0.1664
7.8800 5.2227 0.1543
7.9000 5.2361 0.1649
7.9200 5.2494 0.1654
7.9400 5.2628 0.1548
7.9600 5.2761 0.1605
7.9800 5.2894 0.1660
8.0000 5.3028 0.1526
8.0200 5.3161 0.1589
8.0400 5.3294 0.1650
8.0600 5.3427 0.1511
8.0800 5.3561 0.1565
8.1000 5.3694 0.1644
8.1200 5.3827 0.1538
8.1400 5.3960 0.1572
8.1600 5.4093 0.1615
8.1800 5.4227 0.1496
8.2000 5.4360 0.1564
8.2200 5.4493 0.1619
8.2400 5.4627 0.1510
8.2600 5.4761 0.1555
8.2800 5.4894 0.1561
8.3000 5.5028 0.1465
8.3200 5.5161 0.1559
8.3400 5.5294 0.1560
8.3600 5.5428 0.1495
8.3800 5.5561 0.1530
8.4000 5.5694 0.1578
8.4200 5.5827 0.1492
8.4400 5.5961 0.1570
8.4600 5.6094 0.1548
8.4800 5.6227 0.1447
8.5000 5.6360 0.1572
8.5200 5.6493 0.1556
8.5400 5.6627 0.1429
8.5600 5.6760 0.1520
8.5800 5.6894 0.1521
8.6000 5.7027 0.1439
8.6200 5.7161 0.1517
8.6400 5.7294 0.1496
8.6600 5.7427 0.1440
8.6800 5.7561 0.1491
8.7000 5.7694 0.1481
8.7200 5.7828 0.1435
8.7400 5.7961 0.1491
8.7600 5.8094 0.1446
8.7800 5.8227 0.1473
8.8000 5.8360 0.1472
8.8200 5.8494 0.1433
8.8400 5.8627 0.1495
8.8600 5.8760 0.1480
8.8800 5.8893 0.1399
8.9000 5.9027 0.1519
8.9200 5.9160 0.1423
8.9400 5.9294 0.1380
8.9600 5.9427 0.1513
8.9800 5.9561 0.1437
9.0000 5.9695 0.1401
9.0200 5.9828 0.1456
9.0400 5.9961 0.1403
9.0600 6.0094 0.1389
9.0800 6.0228 0.1475
9.1000 6.0361 0.1327
9.1200 6.0494 0.1362
9.1400 6.0627 0.1478
9.1600 6.0760 0.1327
9.1800 6.0894 0.1330
9.2000 6.1027 0.1411
9.2200 6.1160 0.1318
9.2400 6.1293 0.1287
9.2600 6.1427 0.1376
9.2800 6.1560 0.1283
9.3000 6.1693 0.1310
9.3200 6.1827 0.1386
9.3400 6.1961 0.1178
9.3600 6.2095 0.1296
9.3800 6.2228 0.1377
9.4000 6.2361 0.1151
9.4200 6.2494 0.1323
9.4400 6.2628 0.1283
9.4600 6.2761 0.1131
9.4800 6.2894 0.1303
9.5000 6.3027 0.1325
9.5200 6.3160 0.1127
9.5400 6.3294 0.1249
9.5600 6.3427 0.1306
9.5800 6.3560 0.1095
9.6000 6.3694 0.1303
9.6200 6.3827 0.1263
9.6400 6.3961 0.1078
9.6600 6.4094 0.1280
9.6800 6.4227 0.1235
9.7000 6.4361 0.1041
9.7200 6.4494 0.1245
9.7400 6.4627 0.1205
9.7600 6.4760 0.1056
9.7800 6.4893 0.1207
9.8000 6.5027 0.1200
9.8200 6.5161 0.1055
9.8400 6.5294 0.1190
9.8600 6.5427 0.1187
9.8800 6.5561 0.1057
9.9000 6.5695 0.1159
9.9200 6.5828 0.1133
9.9400 6.5960 0.1059
9.9600 6.6094 0.1188
9.9800 6.6227 0.1153
10.0000 6.6360 0.1026
10.0200 6.6493 0.1134
10.0400 6.6627 0.1142
10.0600 6.6760 0.1016
10.0800 6.6894 0.1161
10.1000 6.7027 0.1120
10.1200 6.7161 0.1053
10.1400 6.7294 0.1171
10.1600 6.7428 0.1090
10.1800 6.7561 0.1082
10.2000 6.7694 0.1153
10.2200 6.7827 0.1118
10.2400 6.7961 0.1092
10.2600 6.8094 0.1158
10.2800 6.8227 0.1121
10.3000 6.8360 0.1060
10.3200 6.8493 0.1160
10.3400 6.8627 0.1142
10.3600 6.8760 0.1094
10.3800 6.8894 0.1155
10.4000 6.9027 0.1107
10.4200 6.9161 0.1128
10.4400 6.9294 0.1141
10.4600 6.9428 0.1114
10.4800 6.9561 0.1135
10.5000 6.9694 0.1157
10.5200 6.9828 0.1113
10.5400 6.9961 0.1103
10.5600 7.0094 0.1153
10.5800 7.0227 0.1113
10.6000 7.0360 0.1136
10.6200 7.0494 0.1172
10.6400 7.0627 0.1066
10.6600 7.0760 0.1128
10.6800 7.0893 0.1158
10.7000 7.1027 0.1075
10.7200 7.1161 0.1091
10.7400 7.1294 0.1146
10.7600 7.1427 0.1086
10.7800 7.1560 0.1085
10.8000 7.1694 0.1112
10.8200 7.1827 0.1114
10.8400 7.1961 0.1082
10.8600 7.2094 0.1126
10.8800 7.2228 0.1068
10.9000 7.2361 0.1048
10.9200 7.2494 0.1101
10.9400 7.2627 0.1070
10.9600 7.2761 0.1081
10.9800 7.2894 0.1095
11.0000 7.3027 0.1028
11.0200 7.3160 0.1006
11.0400 7.3293 0.1100
11.0600 7.3426 0.1009
11.0800 7.3560 0.1021
11.1000 7.3694 0.1048
11.1200 7.3827 0.0943
11.1400 7.3961 0.1039
11.1600 7.4095 0.1008
11.1800 7.4228 0.0922
11.2000 7.4361 0.1026
11.2200 7.4494 0.0962
11.2400 7.4628 0.0933
11.2600 7.4761 0.1012
11.2800 7.4894 0.0919
11.3000 7.5027 0.0929
11.3200 7.5160 0.0978
11.3400 7.5294 0.0904
11.3600 7.5427 0.0928
11.3800 7.5561 0.0941
11.4000 7.5694 0.0850
11.4200 7.5827 0.0888
11.4400 7.5960 0.0940
11.4600 7.6094 0.0845
11.4800 7.6227 0.0921
11.5000 7.6360 0.0874
11.5200 7.6494 0.0809
11.5400 7.6628 0.0936
11.5600 7.6761 0.0892
11.5800 7.6894 0.0788
11.6000 7.7028 0.0910
11.6200 7.7161 0.0861
11.6400 7.7294 0.0784
11.6600 7.7427 0.0895
11.6800 7.7560 0.0897
11.7000 7.7694 0.0746
11.7200 7.7827 0.0861
11.7400 7.7960 0.0877
11.7600 7.8093 0.0765
11.7800 7.8227 0.0874
11.8000 7.8360 0.0858
11.8200 7.8494 0.0768
11.8400 7.8627 0.0819
11.8600 7.8760 0.0907
11.8800 7.8894 0.0792
11.9000 7.9027 0.0811
11.9200 7.9160 0.0857
11.9400 7.9294 0.0755
11.9600 7.9427 0.0821
11.9800 7.9561 0.0823
12.0000 7.9695 0.0754
12.0200 7.9828 0.0827
12.0400 7.9961 0.0865
12.0600 8.0094 0.0785
12.0800 8.0228 0.0820
12.1000 8.0360 0.0841
12.1200 8.0493 0.0785
12.1400 8.0626 0.0804
12.1600 8.0759 0.0808
12.1800 8.0893 0.0781
12.2000 8.1026 0.0807
12.2200 8.1160 0.0754
12.2400 8.1294 0.0772
12.2600 8.1428 0.0748
12.2800 8.1562 0.0765
12.3000 8.1695 0.0779
12.3200 8.1828 0.0746
12.3400 8.1962 0.0815
12.3600 8.2094 0.0772
12.3800 8.2227 0.0745
12.4000 8.2360 0.0811
12.4200 8.2494 0.0791
12.4400 8.2627 0.0760
12.4600 8.2760 0.0794
12.4800 8.2893 0.0806
12.5000 8.3026 0.0743
12.5200 8.3160 0.0763
12.5400 8.3293 0.0802
12.5600 8.3427 0.0739
12.5800 8.3561 0.0789
12.6000 8.3694 0.0760
12.6200 8.3828 0.0726
12.6400 8.3961 0.0797
12.6600 8.4094 0.0771
12.6800 8.4228 0.0772
12.7000 8.4361 0.0746
12.7200 8.4494 0.0730
12.7400 8.4627 0.0749
12.7600 8.4760 0.0834
12.7800 8.4894 0.0754
12.8000 8.5027 0.0708
12.8200 8.5159 0.0755
12.8400 8.5293 0.0738
12.8600 8.5426 0.0712
12.8800 8.5560 0.0738
12.9000 8.5694 0.0748
12.9200 8.5827 0.0692
12.9400 8.5961 0.0756
12.9600 8.6094 0.0771
12.9800 8.6228 0.0668
13.0000 8.6361 0.0775
13.0200 8.6494 0.0773
13.0400 8.6628 0.0654
13.0600 8.6761 0.0760
13.0800 8.6894 0.0765
13.1000 8.7027 0.0624
13.1200 8.7161 0.0769
13.1400 8.7294 0.0730
13.1600 8.7427 0.0608
13.1800 8.7560 0.0749
13.2000 8.7693 0.0757
13.2200 8.7826 0.0609
13.2400 8.7960 0.0726
13.2600 8.8094 0.0699
13.2800 8.8227 0.0568
13.3000 8.8361 0.0776
13.3200 8.8494 0.0712
13.3400 8.8628 0.0519
13.3600 8.8761 0.0731
13.3800 8.8894 0.0589
13.4000 8.9028 0.0548
13.4200 8.9161 0.0739
13.4400 8.9294 0.0566
13.4600 8.9427 0.0533
13.4800 8.9560 0.0729
13.5000 8.9694 0.0582
13.5200 8.9827 0.0447
13.5400 8.9960 0.0717
13.5600 9.0094 0.0603
13.5800 9.0227 0.0417
13.6000 9.0360 0.0724
13.6200 9.0493 0.0563
13.6400 9.0626 0.0428
13.6600 9.0760 0.0711
13.6800 9.0894 0.0562
13.7000 9.1028 0.0398
13.7200 9.1161 0.0667
13.7400 9.1294 0.0536
13.7600 9.1428 0.0408
13.7800 9.1561 0.0702
13.8000 9.1695 0.0479
13.8200 9.1828 0.0389
13.8400 9.1960 0.0697
13.8600 9.2094 0.0505
13.8800 9.2227 0.0409
13.9000 9.2360 0.0667
13.9200 9.2493 0.0421
13.9400 9.2627 0.0447
13.9600 9.2760 0.0637
13.9800 9.2894 0.0404
14.0000 9.3027 0.0401
14.0200 9.3160 0.0626
14.0400 9.3294 0.0404
14.0600 9.3427 0.0364
14.0800 9.3561 0.0574
14.1000 9.3694 0.0410
14.1200 9.3827 0.0348
14.1400 9.3961 0.0517
14.1600 9.4094 0.0407
14.1800 9.4227 0.0346
14.2000 9.4361 0.0530
14.2200 9.4494 0.0385
14.2400 9.4628 0.0344
14.2600 9.4760 0.0491
14.2800 9.4893 0.0392
14.3000 9.5026 0.0363
14.3200 9.5160 0.0465
14.3400 9.5293 0.0416
14.3600 9.5427 0.0342
14.3800 9.5560 0.0430
14.4000 9.5694 0.0425
14.4200 9.5828 0.0268
14.4400 9.5962 0.0455
14.4600 9.6095 0.0442
14.4800 9.6228 0.0288
14.5000 9.6361 0.0406
14.5200 9.6494 0.0364
14.5400 9.6627 0.0275
14.5600 9.6759 0.0467
14.5800 9.6893 0.0392
14.6000 9.7026 0.0289
14.6200 9.7160 0.0430
14.6400 9.7293 0.0336
14.6600 9.7427 0.0274
14.6800 9.7560 0.0437
14.7000 9.7694 0.0309
14.7200 9.7827 0.0304
14.7400 9.7961 0.0427
14.7600 9.8095 0.0277
14.7800 9.8228 0.0285
14.8000 9.8361 0.0431
14.8200 9.8494 0.0259
14.8400 9.8627 0.0306
14.8600 9.8761 0.0416
14.8800 9.8894 0.0241
14.9000 9.9027 0.0342
14.9200 9.9160 0.0417
14.9400 9.9294 0.0282
14.9600 9.9427 0.0312
14.9800 9.9560 0.0352
15.0000 9.9693 0.0258
15.0200 9.9827 0.0333
15.0400 9.9960 0.0335
15.0600 10.0094 0.0246
15.0800 10.0227 0.0319
15.1000 10.0360 0.0231
15.1200 10.0494 0.0246
15.1400 10.0628 0.0333
15.1600 10.0761 0.0218
15.1800 10.0894 0.0294
15.2000 10.1028 0.0268
15.2200 10.1161 0.0214
15.2400 10.1295 0.0255
15.2600 10.1428 0.0290
15.2800 10.1561 0.0191
15.3000 10.1694 0.0311
15.3200 10.1828 0.0231
15.3400 10.1961 0.0107
15.3600 10.2093 0.0336
15.3800 10.2226 0.0223
15.4000 10.2360 0.0140
15.4200 10.2494 0.0292
15.4400 10.2627 0.0170
15.4600 10.2760 0.0197
15.4800 10.2894 0.0302
15.5000 10.3028 0.0182
15.5200 10.3161 0.0124
15.5400 10.3294 0.0327
15.5600 10.3428 0.0209
15.5800 10.3561 0.0131
15.6000 10.3694 0.0314
15.6200 10.3827 0.0127
15.6400 10.3960 0.0137
15.6600 10.4094 0.0308
15.6800 10.4227 0.0142
15.7000 10.4360 0.0090
15.7200 10.4494 0.0247
15.7400 10.4627 0.0167
15.7600 10.4760 0.0100
15.7800 10.4894 0.0250
15.8000 10.5027 0.0152
15.8200 10.5160 0.0099
15.8400 10.5294 0.0297
15.8600 10.5427 0.0133
15.8800 10.5561 0.0125
15.9000 10.5694 0.0269
15.9200 10.5827 0.0171
15.9400 10.5961 0.0108
15.9600 10.6095 0.0274
15.9800 10.6228 0.0197
16.0000 10.6361 0.0124
16.0200 10.6494 0.0276
16.0400 10.6627 0.0159
16.0600 10.6760 0.0128
16.0800 10.6893 0.0273
16.1000 10.7026 0.0129
16.1200 10.7160 0.0120
16.1400 10.7294 0.0218
16.1600 10.7427 0.0180
16.1800 10.7560 0.0102
16.2000 10.7694 0.0251
16.2200 10.7828 0.0155
16.2400 10.7961 0.0055
16.2600 10.8094 0.0266
16.2800 10.8227 0.0180
16.3000 10.8361 0.0075
16.3200 10.8494 0.0196
16.3400 10.8628 0.0126
16.3600 10.8760 0.0095
16.3800 10.8894 0.0200
16.4000 10.9027 0.0144
16.4200 10.9161 0.0058
16.4400 10.9294 0.0199
16.4600 10.9427 0.0151
16.4800 10.9560 0.0070
16.5000 10.9693 0.0211
16.5200 10.9827 0.0103
16.5400 10.9960 0.0095
16.5600 11.0094 0.0168
16.5800 11.0228 0.0072
16.6000 11.0361 0.0104
16.6200 11.0494 0.0132
16.6400 11.0628 0.0075
16.6600 11.0761 0.0100
16.6800 11.0894 0.0101
16.7000 11.1027 0.0056
16.7200 11.1160 0.0067
16.7400 11.1293 0.0083
16.7600 11.1427 0.0090
16.7800 11.1560 0.0084
16.8000 11.1694 0.0061
16.8200 11.1827 0.0088
16.8400 11.1961 0.0040
16.8600 11.2094 0.0016
16.8800 11.2227 0.0111
16.9000 11.2361 0.0034
16.9200 11.2494 -0.0028
16.9400 11.2627 0.0115
16.9600 11.2760 -0.0006
16.9800 11.2893 -0.0049
17.0000 11.3027 0.0137
17.0200 11.3160 -0.0014
17.0400 11.3294 -0.0064
17.0600 11.3428 0.0102
17.0800 11.3561 -0.0046
17.1000 11.3694 -0.0034
17.1200 11.3828 0.0138
17.1400 11.3961 -0.0054
17.1600 11.4094 -0.0002
17.1800 11.4227 0.0068
17.2000 11.4360 -0.0114
17.2200 11.4494 -0.0007
17.2400 11.4627 0.0066
17.2600 11.4760 -0.0098
17.2800 11.4893 -0.0062
17.3000 11.5027 -0.0001
17.3200 11.5161 -0.0072
17.3400 11.5294 -0.0004
17.3600 11.5427 -0.0045
17.3800 11.5561 -0.0133
17.4000 11.5694 0.0042
17.4200 11.5828 -0.0026
17.4400 11.5961 -0.0132
17.4600 11.6094 -0.0037
17.4800 11.6227 -0.0047
17.5000 11.6361 -0.0091
17.5200 11.6494 -0.0033
17.5400 11.6627 -0.0112
17.5600 11.6760 -0.0072
17.5800 11.6893 -0.0052
17.6000 11.7027 -0.0085
17.6200 11.7160 -0.0080
17.6400 11.7294 -0.0042
17.6600 11.7427 -0.0126
17.6800 11.7561 -0.0160
17.7000 11.7694 -0.0084
17.7200 11.7828 -0.0040
17.7400 11.7961 -0.0121
17.7600 11.8095 -0.0129
17.7800 11.8228 -0.0067
17.8000 11.8360 -0.0108
17.8200 11.8494 -0.0082
17.8400 11.8627 -0.0080
17.8600 11.8761 -0.0163
17.8800 11.8893 -0.0101
17.9000 11.9027 -0.0040
17.9200 11.9160 -0.0136
17.9400 11.9294 -0.0160
17.9600 11.9427 -0.0093
17.9800 11.9561 -0.0073
18.0000 11.9694 -0.0184
18.0200 11.9827 -0.0088
18.0400 11.9961 -0.0108
18.0600 12.0094 -0.0153
18.0800 12.0227 -0.0081
18.1000 12.0361 -0.0076
18.1200 12.0495 -0.0211
18.1400 12.0628 -0.0083
18.1600 12.0761 -0.0090
18.1800 12.0894 -0.0165
18.2000 12.1027 -0.0090
18.2200 12.1161 -0.0035
18.2400 12.1294 -0.0234
18.2600 12.1427 -0.0103
18.2800 12.1560 -0.0059
18.3000 12.1693 -0.0198
18.3200 12.1827 -0.0125
18.3400 12.1960 -0.0101
18.3600 12.2094 -0.0197
18.3800 12.2228 -0.0139
18.4000 12.2361 -0.0153
18.4200 12.2494 -0.0187
18.4400 12.2627 -0.0167
18.4600 12.2761 -0.0096
18.4800 12.2894 -0.0212
18.5000 12.3027 -0.0148
18.5200 12.3160 -0.0096
18.5400 12.3294 -0.0198
18.5600 12.3427 -0.0202
18.5800 12.3561 -0.0082
18.6000 12.3694 -0.0209
18.6200 12.3827 -0.0255
18.6400 12.3960 -0.0089
18.6600 12.4094 -0.0225
18.6800 12.4227 -0.0213
18.7000 12.4360 -0.0113
18.7200 12.4494 -0.0290
18.7400 12.4627 -0.0184
18.7600 12.4761 -0.0106
18.7800 12.4894 -0.0273
18.8000 12.5027 -0.0238
18.8200 12.5161 -0.0117
18.8400 12.5294 -0.0294
18.8600 12.5428 -0.0262
18.8800 12.5561 -0.0079
18.9000 12.5693 -0.0346
18.9200 12.5827 -0.0236
18.9400 12.5960 -0.0163
18.9600 12.6094 -0.0338
18.9800 12.6227 -0.0238
19.0000 12.6360 -0.0205
19.0200 12.6493 -0.0346
19.0400 12.6627 -0.0295
19.0600 12.6760 -0.0226
19.0800 12.6894 -0.0327
19.1000 12.7027 -0.0283
19.1200 12.7161 -0.0257
19.1400 12.7294 -0.0379
19.1600 12.7427 -0.0259
19.1800 12.7560 -0.0297
19.2000 12.7694 -0.0398
19.2200 12.7828 -0.0308
19.2400 12.7961 -0.0304
19.2600 12.8094 -0.0380
19.2800 12.8228 -0.0317
19.3000 12.8361 -0.0332
19.3200 12.8494 -0.0440
19.3400 12.8627 -0.0325
19.3600 12.8760 -0.0293
19.3800 12.8893 -0.0433
19.4000 12.9026 -0.0328
19.4200 12.9160 -0.0334
19.4400 12.9293 -0.0420
19.4600 12.9427 -0.0305
19.4800 12.9561 -0.0329
19.5000 12.9694 -0.0438
19.5200 12.9828 -0.0408
19.5400 12.9961 -0.0332
19.5600 13.0095 -0.0449
19.5800 13.0228 -0.0384
19.6000 13.0361 -0.0321
19.6200 13.0494 -0.0468
19.6400 13.0627 -0.0427
19.6600 13.0760 -0.0355
19.6800 13.0894 -0.0453
19.7000 13.1026 -0.0382
19.7200 13.1160 -0.0329
19.7400 13.1293 -0.0474
19.7600 13.1427 -0.0430
19.7800 13.1560 -0.0336
19.8000 13.1694 -0.0513
19.8200 13.1827 -0.0403
19.8400 13.1961 -0.0322
19.8600 13.2094 -0.0503
19.8800 13.2228 -0.0422
19.9000 13.2361 -0.0333
19.9200 13.2494 -0.0487
19.9400 13.2628 -0.0427
19.9600 13.2761 -0.0357
19.9800 13.2894 -0.0465
20.0000 13.3027 -0.0443
20.0200 13.3161 -0.0373
20.0400 13.3294 -0.0480
20.0600 13.3427 -0.0411
20.0800 13.3560 -0.0382
20.1000 13.3693 -0.0476
20.1200 13.3827 -0.0392
20.1400 13.3961 -0.0391
20.1600 13.4094 -0.0461
20.1800 13.4227 -0.0361
20.2000 13.4361 -0.0399
20.2200 13.4494 -0.0466
20.2400 13.4627 -0.0381
20.2600 13.4761 -0.0389
20.2800 13.4894 -0.0465
20.3000 13.5028 -0.0427
20.3200 13.5161 -0.0384
20.3400 13.5294 -0.0477
20.3600 13.5427 -0.0431
20.3800 13.5561 -0.0407
20.4000 13.5694 -0.0473
20.4200 13.5827 -0.0442
20.4400 13.5960 -0.0391
20.4600 13.6093 -0.0488
20.4800 13.6227 -0.0491
20.5000 13.6360 -0.0424
20.5200 13.6494 -0.0462
20.5400 13.6627 -0.0497
20.5600 13.6761 -0.0490
20.5800 13.6895 -0.0478
20.6000 13.7028 -0.0510
20.6200 13.7161 -0.0454
20.6400 13.7294 -0.0499
20.6600 13.7428 -0.0541
20.6800 13.7561 -0.0399
20.7000 13.7694 -0.0573
20.7200 13.7827 -0.0549
20.7400 13.7960 -0.0390
20.7600 13.8094 -0.0555
20.7800 13.8227 -0.0530
20.8000 13.8360 -0.0405
20.8200 13.8493 -0.0546
20.8400 13.8627 -0.0560
20.8600 13.8760 -0.0427
20.8800 13.8893 -0.0507
20.9000 13.9027 -0.0533
20.9200 13.9161 -0.0449
20.9400 13.9294 -0.0553
20.9600 13.9428 -0.0519
20.9800 13.9561 -0.0434
21.0000 13.9695 -0.0523
21.0200 13.9828 -0.0572
21.0400 13.9961 -0.0441
21.0600 14.0094 -0.0545
21.0800 14.0227 -0.0562
21.1000 14.0361 -0.0448
21.1200 14.0494 -0.0533
21.1400 14.0627 -0.0558
21.1600 14.0760 -0.0480
21.1800 14.0893 -0.0536
21.2000 14.1027 -0.0604
21.2200 14.1160 -0.0457
21.2400 14.1293 -0.0530
21.2600 14.1427 -0.0604
21.2800 14.1561 -0.0492
21.3000 14.1694 -0.0578
21.3200 14.1828 -0.0614
21.3400 14.1961 -0.0480
21.3600 14.2094 -0.0530
21.3800 14.2228 -0.0649
21.4000 14.2361 -0.0465
21.4200 14.2494 -0.0536
21.4400 14.2627 -0.0625
21.4600 14.2761 -0.0482
21.4800 14.2894 -0.0569
21.5000 14.3027 -0.0611
21.5200 14.3160 -0.0467
21.5400 14.3293 -0.0558
21.5600 14.3426 -0.0606
21.5800 14.3560 -0.0503
21.6000 14.3693 -0.0610
21.6200 14.3827 -0.0614
21.6400 14.3961 -0.0471
21.6600 14.4095 -0.0608
21.6800 14.4228 -0.0654
21.7000 14.4361 -0.0451
21.7200 14.4495 -0.0619
21.7400 14.4628 -0.0654
21.7600 14.4761 -0.0496
21.7800 14.4893 -0.0636
21.8000 14.5026 -0.0672
21.8200 14.5160 -0.0499
21.8400 14.5293 -0.0639
21.8600 14.5426 -0.0660
21.8800 14.5560 -0.0513
21.9000 14.5694 -0.0696
21.9200 14.5827 -0.0627
21.9400 14.5961 -0.0605
21.9600 14.6094 -0.0669
21.9800 14.6228 -0.0598
22.0000 14.6361 -0.0602
22.0200 14.6495 -0.0693
22.0400 14.6628 -0.0658
22.0600 14.6761 -0.0659
22.0800 14.6894 -0.0669
22.1000 14.7027 -0.0666
22.1200 14.7161 -0.0679
22.1400 14.7294 -0.0705
22.1600 14.7427 -0.0658
22.1800 14.7560 -0.0739
22.2000 14.7694 -0.0730
22.2200 14.7827 -0.0685
22.2400 14.7960 -0.0735
22.2600 14.8093 -0.0748
22.2800 14.8227 -0.0736
22.3000 14.8361 -0.0779
22.3200 14.8494 -0.0747
22.3400 14.8627 -0.0736
22.3600 14.8761 -0.0839
22.3800 14.8895 -0.0750
22.4000 14.9028 -0.0778
22.4200 14.9161 -0.0841
22.4400 14.9294 -0.0746
22.4600 14.9428 -0.0806
22.4800 14.9561 -0.0867
22.5000 14.9694 -0.0753
22.5200 14.9827 -0.0782
22.5400 14.9961 -0.0869
22.5600 15.0094 -0.0746
22.5800 15.0227 -0.0812
22.6000 15.0360 -0.0832
22.6200 15.0493 -0.0768
22.6400 15.0627 -0.0822
22.6600 15.0760 -0.0879
22.6800 15.0893 -0.0813
22.7000 15.1027 -0.0826
22.7200 15.1161 -0.0907
22.7400 15.1295 -0.0844
22.7600 15.1428 -0.0848
22.7800 15.1561 -0.0863
22.8000 15.1694 -0.0828
22.8200 15.1828 -0.0869
22.8400 15.1961 -0.0888
22.8600 15.2094 -0.0841
22.8800 15.2227 -0.0841
22.9000 15.2360 -0.0901
22.9200 15.2494 -0.0925
22.9400 15.2627 -0.0838
22.9600 15.2760 -0.0904
22.9800 15.2893 -0.0890
23.0000 15.3027 -0.0879
23.0200 15.3160 -0.0926
23.0400 15.3294 -0.0940
23.0600 15.3427 -0.0890
23.0800 15.3561 -0.0880
23.1000 15.3694 -0.0975
23.1200 15.3827 -0.0911
23.1400 15.3961 -0.0913
23.1600 15.4094 -0.0966
23.1800 15.4228 -0.0864
23.2000 15.4361 -0.0961
23.2200 15.4494 -0.0939
23.2400 15.4627 -0.0909
23.2600 15.4760 -0.0956
23.2800 15.4894 -0.0935
23.3000 15.5027 -0.0930
23.3200 15.5160 -0.0989
23.3400 15.5293 -0.0924
23.3600 15.5427 -0.0950
23.3800 15.5560 -0.1041
23.4000 15.5694 -0.0951
23.4200 15.5827 -0.0969
23.4400 15.5961 -0.1039
23.4600 15.6095 -0.0953
23.4800 15.6228 -0.0986
23.5000 15.6361 -0.1024
23.5200 15.6494 -0.0954
23.5400 15.6628 -0.1024
23.5600 15.6761 -0.1006
23.5800 15.6894 -0.0968
23.6000 15.7027 -0.1068
23.6200 15.7160 -0.1042
23.6400 15.7294 -0.1003
23.6600 15.7427 -0.1095
23.6800 15.7560 -0.1030
23.7000 15.7693 -0.0969
23.7200 15.7827 -0.1056
23.7400 15.7960 -0.0999
23.7600 15.8093 -0.1029
23.7800 15.8227 -0.1064
23.8000 15.8361 -0.1002
23.8200 15.8494 -0.1053
23.8400 15.8628 -0.1015
23.8600 15.8761 -0.1009
23.8800 15.8894 -0.1053
23.9000 15.9028 -0.0981
23.9200 15.9161 -0.1024
23.9400 15.9294 -0.1079
23.9600 15.9427 -0.1006
23.9800 15.9560 -0.1008
24.0000 15.9694 -0.1040
24.0200 15.9827 -0.1010
24.0400 15.9960 -0.1101
24.0600 16.0094 -0.0990
24.0800 16.0227 -0.1024
24.1000 16.0361 -0.1125
24.1200 16.0494 -0.1014
24.1400 16.0627 -0.1028
24.1600 16.0761 -0.1154
24.1800 16.0894 -0.1011
24.2000 16.1027 -0.1031
24.2200 16.1160 -0.1118
24.2400 16.1293 -0.1020
24.2600 16.1427 -0.1001
24.2800 16.1561 -0.1142
24.3000 16.1694 -0.0987
24.3200 16.1827 -0.1010
24.3400 16.1961 -0.1124
24.3600 16.2095 -0.0987
24.3800 16.2228 -0.1049
24.4000 16.2361 -0.1095
24.4200 16.2494 -0.0969
24.4400 16.2627 -0.1092
24.4600 16.2760 -0.1061
24.4800 16.2893 -0.0989
24.5000 16.3027 -0.1082
24.5200 16.3160 -0.1080
24.5400 16.3294 -0.0987
24.5600 16.3428 -0.1116
24.5800 16.3561 -0.1063
24.6000 16.3694 -0.1036
24.6200 16.3828 -0.1108
24.6400 16.3961 -0.1083
24.6600 16.4094 -0.1064
24.6800 16.4227 -0.1086
24.7000 16.4361 -0.1040
24.7200 16.4494 -0.1064
24.7400 16.4627 -0.1093
24.7600 16.4760 -0.1070
24.7800 16.4893 -0.1058
24.8000 16.5027 -0.1032
24.8200 16.5160 -0.1115
24.8400 16.5294 -0.1096
24.8600 16.5427 -0.1026
24.8800 16.5561 -0.1116
24.9000 16.5694 -0.1073
24.9200 16.5828 -0.1024
24.9400 16.5961 -0.1123
24.9600 16.6094 -0.1086
24.9800 16.6228 -0.1094
25.0000 16.6361 -0.1083
25.0200 16.6494 -0.1080
25.0400 16.6627 -0.1056
25.0600 16.6761 -0.1115
25.0800 16.6894 -0.1111
25.1000 16.7027 -0.1090
25.1200 16.7160 -0.1120
25.1400 16.7293 -0.1129
25.1600 16.7427 -0.1127
25.1800 16.7560 -0.1175
25.2000 16.7694 -0.1150
25.2200 16.7827 -0.1133
25.2400 16.7960 -0.1140
25.2600 16.8094 -0.1225
25.2800 16.8228 -0.1156
25.3000 16.8361 -0.1158
25.3200 16.8494 -0.1222
25.3400 16.8628 -0.1107
25.3600 16.8761 -0.1201
25.3800 16.8894 -0.1251
25.4000 16.9027 -0.1123
25.4200 16.9161 -0.1216
25.4400 16.9294 -0.1225
25.4600 16.9427 -0.1145
25.4800 16.9560 -0.1235
25.5000 16.9693 -0.1272
25.5200 16.9826 -0.1140
25.5400 16.9959 -0.1205
25.5600 17.0093 -0.1277
25.5800 17.0226 -0.1151
25.6000 17.0360 -0.1288
25.6200 17.0494 -0.1231
25.6400 17.0628 -0.1198
25.6600 17.0761 -0.1284
25.6800 17.0894 -0.1219
25.7000 17.1027 -0.1199
25.7200 17.1161 -0.1321
25.7400 17.1294 -0.1249
25.7600 17.1427 -0.1211
25.7800 17.1560 -0.1283
25.8000 17.1694 -0.1250
25.8200 17.1827 -0.1256
25.8400 17.1961 -0.1296
25.8600 17.2094 -0.1243
25.8800 17.2227 -0.1321
25.9000 17.2360 -0.1298
25.9200 17.2494 -0.1250
25.9400 17.2627 -0.1345
25.9600 17.2761 -0.1317
25.9800 17.2894 -0.1261
26.0000 17.3028 -0.1325
26.0200 17.3161 -0.1328
26.0400 17.3294 -0.1282
26.0600 17.3428 -0.1339
26.0800 17.3561 -0.1364
26.1000 17.3694 -0.1291
26.1200 17.3827 -0.1366
26.1400 17.3960 -0.1344
26.1600 17.4094 -0.1320
26.1800 17.4227 -0.1382
26.2000 17.4360 -0.1312
26.2200 17.4493 -0.1352
26.2400 17.4627 -0.1381
26.2600 17.4761 -0.1306
26.2800 17.4894 -0.1362
26.3000 17.5027 -0.1383
26.3200 17.5161 -0.1316
26.3400 17.5294 -0.1356
26.3600 17.5428 -0.1364
26.3800 17.5561 -0.1337
26.4000 17.5694 -0.1338
26.4200 17.5827 -0.1402
26.4400 17.5961 -0.1311
26.4600 17.6094 -0.1335
26.4800 17.6228 -0.1365
26.5000 17.6361 -0.1372
26.5200 17.6494 -0.1339
26.5400 17.6628 -0.1367
26.5600 17.6760 -0.1353
26.5800 17.6893 -0.1360
26.6000 17.7026 -0.1377
26.6200 17.7159 -0.1317
26.6400 17.7293 -0.1372
26.6600 17.7426 -0.1434
26.6800 17.7560 -0.1304
26.7000 17.7694 -0.1423
26.7200 17.7828 -0.1453
26.7400 17.7961 -0.1310
26.7600 17.8095 -0.1390
26.7800 17.8228 -0.1492
26.8000 17.8362 -0.1360
26.8200 17.8495 -0.1435
26.8400 17.8628 -0.1485
26.8600 17.8760 -0.1323
26.8800 17.8894 -0.1424
26.9000 17.9027 -0.1515
26.9200 17.9160 -0.1381
26.9400 17.9293 -0.1475
26.9600 17.9426 -0.1483
26.9800 17.9560 -0.1353
27.0000 17.9693 -0.1524
27.0200 17.9827 -0.1514
27.0400 17.9960 -0.1362
27.0600 18.0094 -0.1485
27.0800 18.0228 -0.1577
27.1000 18.0361 -0.1396
27.1200 18.0494 -0.1452
27.1400 18.0628 -0.1576
27.1600 18.0761 -0.1393
27.1800 18.0894 -0.1509
27.2000 18.1027 -0.1588
27.2200 18.1160 -0.1408
27.2400 18.1294 -0.1565
27.2600 18.1427 -0.1603
27.2800 18.1560 -0.1441
27.3000 18.1693 -0.1549
27.3200 18.1827 -0.1670
27.3400 18.1960 -0.1484
27.3600 18.2094 -0.1591
27.3800 18.2227 -0.1664
27.4000 18.2361 -0.1506
27.4200 18.2494 -0.1552
27.4400 18.2628 -0.1666
27.4600 18.2761 -0.1520
27.4800 18.2894 -0.1595
27.5000 18.3027 -0.1691
27.5200 18.3161 -0.1525
27.5400 18.3294 -0.1572
27.5600 18.3428 -0.1743
27.5800 18.3561 -0.1537
27.6000 18.3694 -0.1584
27.6200 18.3828 -0.1757
27.6400 18.3961 -0.1516
27.6600 18.4093 -0.1595
27.6800 18.4227 -0.1740
27.7000 18.4360 -0.1529
27.7200 18.4494 -0.1643
27.7400 18.4627 -0.1718
27.7600 18.4760 -0.1513
27.7800 18.4894 -0.1708
27.8000 18.5028 -0.1703
27.8200 18.5161 -0.1513
27.8400 18.5294 -0.1704
27.8600 18.5427 -0.1680
27.8800 18.5561 -0.1560
27.9000 18.5694 -0.1765
27.9200 18.5827 -0.1614
27.9400 18.5960 -0.1590
27.9600 18.6094 -0.1766
27.9800 18.6227 -0.1597
28.0000 18.6360 -0.1637
28.0200 18.6494 -0.1791
28.0400 18.6627 -0.1564
28.0600 18.6760 -0.1656
28.0800 18.6894 -0.1780
28.1000 18.7027 -0.1619
28.1200 18.7160 -0.1678
28.1400 18.7294 -0.1731
28.1600 18.7428 -0.1594
28.1800 18.7561 -0.1722
28.2000 18.7694 -0.1684
28.2200 18.7828 -0.1599
28.2400 18.7961 -0.1748
28.2600 18.8095 -0.1706
28.2800 18.8228 -0.1591
28.3000 18.8361 -0.1743
28.3200 18.8494 -0.1631
28.3400 18.8627 -0.1635
28.3600 18.8761 -0.1722
28.3800 18.8893 -0.1561
28.4000 18.9027 -0.1695
28.4200 18.9160 -0.1726
28.4400 18.9294 -0.1583
28.4600 18.9427 -0.1702
28.4800 18.9560 -0.1712
28.5000 18.9694 -0.1579
28.5200 18.9828 -0.1752
28.5400 18.9961 -0.1729
28.5600 19.0094 -0.1619
28.5800 19.0227 -0.1723
28.6000 19.0361 -0.1755
28.6200 19.0494 -0.1690
28.6400 19.0627 -0.1806
28.6600 19.0761 -0.1758
28.6800 19.0894 -0.1688
28.7000 19.1028 -0.1830
28.7200 19.1161 -0.1794
28.7400 19.1293 -0.1756
28.7600 19.1426 -0.1864
28.7800 19.1560 -0.1786
28.8000 19.1693 -0.1794
28.8200 19.1827 -0.1890
28.8400 19.1960 -0.1846
28.8600 19.2094 -0.1818
28.8800 19.2228 -0.1900
28.9000 19.2362 -0.1866
28.9200 19.2495 -0.1845
28.9400 19.2628 -0.1852
28.9600 19.2761 -0.1896
28.9800 19.2895 -0.1880
29.0000 19.3027 -0.1907
29.0200 19.3160 -0.1916
29.0400 19.3293 -0.1863
29.0600 19.3427 -0.1936
29.0800 19.3560 -0.1929
29.1000 19.3693 -0.1873
29.1200 19.3827 -0.1906
29.1400 19.3961 -0.1948
29.1600 19.4094 -0.1938
29.1800 19.4228 -0.1950
29.2000 19.4361 -0.1910
29.2200 19.4494 -0.1920
29.2400 19.4628 -0.1971
29.2600 19.4761 -0.1909
29.2800 19.4894 -0.1943
29.3000 19.5027 -0.1961
29.3200 19.5161 -0.1939
29.3400 19.5294 -0.1983
29.3600 19.5427 -0.1957
29.3800 19.5560 -0.1982
29.4000 19.5694 -0.2046
29.4200 19.5827 -0.1979
29.4400 19.5961 -0.1978
29.4600 19.6093 -0.2080
29.4800 19.6227 -0.2048
29.5000 19.6360 -0.2053
29.5200 19.6494 -0.2089
29.5400 19.6627 -0.2062
29.5600 19.6760 -0.2095
29.5800 19.6894 -0.2058
29.6000 19.7028 -0.2066
29.6200 19.7161 -0.2096
29.6400 19.7294 -0.2114
29.6600 19.7427 -0.2046
29.6800 19.7561 -0.2092
29.7000 19.7694 -0.2141
29.7200 19.7827 -0.2052
29.7400 19.7960 -0.2150
29.7600 19.8094 -0.2120
29.7800 19.8228 -0.2147
29.8000 19.8361 -0.2135
29.8200 19.8493 -0.2148
29.8400 19.8626 -0.2186
29.8600 19.8760 -0.2158
29.8800 19.8894 -0.2209
29.9000 19.9027 -0.2166
29.9200 19.9160 -0.2174
29.9400 19.9294 -0.2229
29.9600 19.9428 -0.2195
29.9800 19.9561 -0.2271
30.0000 19.9694 -0.2235
30.0200 19.9828 -0.2171
30.0400 19.9961 -0.2308
30.0600 20.0094 -0.2236
30.0800 20.0227 -0.2261
30.1000 20.0360 -0.2306
30.1200 20.0494 -0.2219
30.1400 20.0627 -0.2266
30.1600 20.0761 -0.2317
30.1800 20.0894 -0.2217
30.2000 20.1027 -0.2244
30.2200 20.1160 -0.2317
30.2400 20.1294 -0.2280
30.2600 20.1427 -0.2238
30.2800 20.1560 -0.2304
30.3000 20.1694 -0.2255
30.3200 20.1827 -0.2266
30.3400 20.1961 -0.2330
30.3600 20.2094 -0.2333
30.3800 20.2227 -0.2244
30.4000 20.2361 -0.2387
30.4200 20.2495 -0.2320
30.4400 20.2628 -0.2262
30.4600 20.2761 -0.2359
30.4800 20.2894 -0.2356
30.5000 20.3027 -0.2295
30.5200 20.3160 -0.2329
30.5400 20.3293 -0.2330
30.5600 20.3426 -0.2263
30.5800 20.3560 -0.2355
30.6000 20.3693 -0.2359
30.6200 20.3827 -0.1921
30.6400 20.3960 -0.1249
30.6600 20.4094 -0.0498
30.6800 20.4228 -0.0004
30.7000 20.4362 0.0092
30.7200 20.4494 0.0458
30.7400 20.4627 0.1036
30.7600 20.4761 0.1425
30.7800 20.4894 0.2034
30.8000 20.5028 0.2669
30.8200 20.5160 0.3072
30.8400 20.5294 0.3649
30.8600 20.5427 0.4252
30.8800 20.5561 0.4639
30.9000 20.5694 0.5081
30.9200 20.5827 0.5519
30.9400 20.5960 0.5725
30.9600 20.6093 0.5590
30.9800 20.6227 0.5515
31.0000 20.6360 0.5396
31.0200 20.6494 0.5296
31.0400 20.6628 0.5429
31.0600 20.6761 0.5322
31.0800 20.6894 0.5339
31.1000 20.7028 0.5452
31.1200 20.7161 0.5270
31.1400 20.7294 0.5211
31.1600 20.7427 0.5332
31.1800 20.7560 0.5182
31.2000 20.7693 0.5240
31.2200 20.7827 0.5415
31.2400 20.7960 0.5240
31.2600 20.8093 0.5195
31.2800 20.8227 0.5290
31.3000 20.8360 0.5127
31.3200 20.8494 0.5134
31.3400 20.8627 0.5249
31.3600 20.8761 0.5051
31.3800 20.8894 0.4997
31.4000 20.9028 0.5176
31.4200 20.9161 0.5034
31.4400 20.9294 0.5020
31.4600 20.9427 0.5201
31.4800 20.9560 0.5027
31.5000 20.9694 0.5024
31.5200 20.9827 0.5200
31.5400 20.9961 0.5022
31.5600 21.0094 0.5068
31.5800 21.0228 0.5175
31.6000 21.0361 0.4954
31.6200 21.0494 0.5009
31.6400 21.0627 0.5130
31.6600 21.0760 0.4906
31.6800 21.0894 0.5023
31.7000 21.1027 0.5049
31.7200 21.1160 0.4929
31.7400 21.1293 0.5046
31.7600 21.1427 0.5022
31.7800 21.1561 0.4930
31.8000 21.1694 0.4964
31.8200 21.1827 0.5008
31.8400 21.1961 0.4847
31.8600 21.2094 0.4865
31.8800 21.2228 0.4925
31.9000 21.2361 0.4796
31.9200 21.2494 0.4865
31.9400 21.2627 0.4872
31.9600 21.2761 0.4764
31.9800 21.2894 0.4801
32.0000 21.3027 0.4800
32.0200 21.3160 0.4760
32.0400 21.3293 0.4785
32.0600 21.3427 0.4877
32.0800 21.3560 0.4733
32.1000 21.3694 0.4776
32.1200 21.3827 0.4785
32.1400 21.3961 0.4690
32.1600 21.4094 0.4758
32.1800 21.4228 0.4776
32.2000 21.4361 0.4708
32.2200 21.4494 0.4728
32.2400 21.4628 0.4704
32.2600 21.4761 0.4686
32.2800 21.4894 0.4757
32.3000 21.5027 0.4705
32.3200 21.5160 0.4671
32.3400 21.5293 0.4669
32.3600 21.5426 0.4607
32.3800 21.5560 0.4669
32.4000 21.5694 0.4656
32.4200 21.5827 0.4610
32.4400 21.5960 0.4703
32.4600 21.6093 0.4648
32.4800 21.6227 0.4597
32.5000 21.6361 0.4642
32.5200 21.6494 0.4570
32.5400 21.6627 0.4617
32.5600 21.6761 0.4649
32.5800 21.6894 0.4503
32.6000 21.7028 0.4591
32.6200 21.7161 0.4640
32.6400 21.7294 0.4518
32.6600 21.7427 0.4557
32.6800 21.7561 0.4572
32.7000 21.7694 0.4518
32.7200 21.7827 0.4562
32.7400 21.7960 0.4595
32.7600 21.8093 0.4470
32.7800 21.8227 0.4502
32.8000 21.8360 0.4552
32.8200 21.8494 0.4432
32.8400 21.8627 0.4506
32.8600 21.8761 0.4552
32.8800 21.8895 0.4351
32.9000 21.9028 0.4387
32.9200 21.9161 0.4532
32.9400 21.9294 0.4390
32.9600 21.9428 0.4437
32.9800 21.9561 0.4434
33.0000 21.9694 0.4325
33.0200 21.9827 0.4458
33.0400 21.9961 0.4394
33.0600 22.0094 0.4261
33.0800 22.0227 0.4413
33.1000 22.0360 0.4393
33.1200 22.0494 0.4273
33.1400 22.0627 0.4400
33.1600 22.0760 0.4350
33.1800 22.0894 0.4285
33.2000 22.1027 0.4354
33.2200 22.1161 0.4285
33.2400 22.1294 0.4322
33.2600 22.1427 0.4389
33.2800 22.1561 0.4235
33.3000 22.1694 0.4282
33.3200 22.1828 0.4346
33.3400 22.1961 0.4247
33.3600 22.2094 0.4264
33.3800 22.2227 0.4321
33.4000 22.2360 0.4274
33.4200 22.2493 0.4262
33.4400 22.2627 0.4263
33.4600 22.2760 0.4245
33.4800 22.2894 0.4227
33.5000 22.3027 0.4236
33.5200 22.3160 0.4226
33.5400 22.3294 0.4259
33.5600 22.3427 0.4227
33.5800 22.3561 0.4187
33.6000 22.3694 0.4171
33.6200 22.3827 0.4201
33.6400 22.3960 0.4231
33.6600 22.4094 0.4171
33.6800 22.4228 0.4172
33.7000 22.4361 0.4196
33.7200 22.4494 0.4156
33.7400 22.4628 0.4135
33.7600 22.4761 0.4121
33.7800 22.4894 0.4113
33.8000 22.5027 0.4147
33.8200 22.5160 0.4133
33.8400 22.5293 0.4122
33.8600 22.5426 0.4095
33.8800 22.5560 0.4109
33.9000 22.5693 0.4075
33.9200 22.5827 0.4096
33.9400 22.5961 0.4052
33.9600 22.6095 0.4052
33.9800 22.6228 0.4094
34.0000 22.6361 0.4045
34.0200 22.6495 0.4069
34.0400 22.6628 0.4085
34.0600 22.6761 0.4004
34.0800 22.6894 0.4103
34.1000 22.7027 0.4101
34.1200 22.7160 0.4001
34.1400 22.7293 0.4072
34.1600 22.7426 0.4071
34.1800 22.7560 0.3949
34.2000 22.7693 0.4057
34.2200 22.7827 0.4026
34.2400 22.7960 0.3954
34.2600 22.8093 0.4037
34.2800 22.8227 0.3999
34.3000 22.8361 0.3948
34.3200 22.8495 0.4032
34.3400 22.8628 0.3921
34.3600 22.8761 0.3970
34.3800 22.8895 0.4013
34.4000 22.9028 0.3871
34.4200 22.9161 0.3963
34.4400 22.9294 0.4004
34.4600 22.9427 0.3831
34.4800 22.9560 0.3938
34.5000 22.9694 0.3992
34.5200 22.9827 0.3804
34.5400 22.9960 0.3931
34.5600 23.0093 0.3951
34.5800 23.0227 0.3796
34.6000 23.0360 0.3913
34.6200 23.0493 0.3884
34.6400 23.0627 0.3818
34.6600 23.0761 0.3880
34.6800 23.0894 0.3834
34.7000 23.1028 0.3803
34.7200 23.1161 0.3869
34.7400 23.1294 0.3778
34.7600 23.1428 0.3809
34.7800 23.1561 0.3858
34.8000 23.1694 0.3761
34.8200 23.1827 0.3816
34.8400 23.1961 0.3779
34.8600 23.2094 0.3743
34.8800 23.2227 0.3754
34.9000 23.2360 0.3792
34.9200 23.2493 0.3781
34.9400 23.2627 0.3724
34.9600 23.2760 0.3710
34.9800 23.2894 0.3812
35.0000 23.3027 0.3770
35.0200 23.3161 0.3704
35.0400 23.3295 0.3708
35.0600 23.3428 0.3755
35.0800 23.3561 0.3668
35.1000 23.3694 0.3738
35.1200 23.3828 0.3760
35.1400 23.3961 0.3619
35.1600 23.4094 0.3716
35.1800 23.4227 0.3748
35.2000 23.4361 0.3662
35.2200 23.4494 0.3695
35.2400 23.4627 0.3703
35.2600 23.4760 0.3634
35.2800 23.4893 0.3650
35.3000 23.5027 0.3621
35.3200 23.5160 0.3628
35.3400 23.5293 0.3703
35.3600 23.5427 0.3566
35.3800 23.5561 0.3567
35.4000 23.5694 0.3673
35.4200 23.5828 0.3544
35.4400 23.5961 0.3578
35.4600 23.6094 0.3660
35.4800 23.6228 0.3524
35.5000 23.6361 0.3564
35.5200 23.6494 0.3647
35.5400 23.6627 0.3504
35.5600 23.6761 0.3585
35.5800 23.6894 0.3607
35.6000 23.7027 0.3472
35.6200 23.7160 0.3536
35.6400 23.7294 0.3623
35.6600 23.7427 0.3473
35.6800 23.7560 0.3493
35.7000 23.7694 0.3579
35.7200 23.7827 0.3482
35.7400 23.7961 0.3505
35.7600 23.8094 0.3572
35.7800 23.8227 0.3410
35.8000 23.8361 0.3527
35.8200 23.8494 0.3583
35.8400 23.8628 0.3399
35.8600 23.8761 0.3471
35.8800 23.8894 0.3601
35.9000 23.9027 0.3437
35.9200 23.9161 0.3470
35.9400 23.9294 0.3574
35.9600 23.9427 0.3404
35.9800 23.9560 0.3451
36.0000 23.9693 0.3588
36.0200 23.9826 0.3344
36.0400 23.9960 0.3398
36.0600 24.0093 0.3539
36.0800 24.0227 0.3334
36.1000 24.0361 0.3424
36.1200 24.0495 0.3476
36.1400 24.0628 0.3315
36.1600 24.0761 0.3389
36.1800 24.0895 0.3446
36.2000 24.1028 0.3308
36.2200 24.1161 0.3375
36.2400 24.1293 0.3417
36.2600 24.1426 0.3322
36.2800 24.1560 0.3326
36.3000 24.1693 0.3424
36.3200 24.1827 0.3272
36.3400 24.1960 0.3346
36.3600 24.2093 0.3427
36.3800 24.2227 0.3226
36.4000 24.2361 0.3317
36.4200 24.2494 0.3372
36.4400 24.2628 0.3197
36.4600 24.2761 0.3328
36.4800 24.2895 0.3388
36.5000 24.3028 0.3247
36.5200 24.3161 0.3273
36.5400 24.3294 0.3283
36.5600 24.3428 0.3185
36.5800 24.3561 0.3330
36.6000 24.3694 0.3285
36.6200 24.3827 0.3194
36.6400 24.3960 0.3211
36.6600 24.4094 0.3255
36.6800 24.4227 0.3186
36.7000 24.4360 0.3271
36.7200 24.4493 0.3216
36.7400 24.4627 0.3157
36.7600 24.4761 0.3208
36.7800 24.4894 0.3193
36.8000 24.5027 0.3218
36.8200 24.5161 0.3205
36.8400 24.5294 0.3126
36.8600 24.5428 0.3137
36.8800 24.5561 0.3245
36.9000 24.5694 0.3205
36.9200 24.5828 0.3143
36.9400 24.5961 0.3160
36.9600 24.6094 0.3178
36.9800 24.6227 0.3156
37.0000 24.6361 0.3155
37.0200 24.6494 0.3155
37.0400 24.6627 0.3199
37.0600 24.6760 0.3104
37.0800 24.6893 0.3207
37.1000 24.7027 0.3193
37.1200 24.7160 0.3071
37.1400 24.7294 0.3223
37.1600 24.7427 0.3139
37.1800 24.7561 0.3044
37.2000 24.7694 0.3262
37.2200 24.7828 0.3134
37.2400 24.7961 0.3003
37.2600 24.8094 0.3239
37.2800 24.8228 0.3135
37.3000 24.8361 0.3006
37.3200 24.8494 0.3226
37.3400 24.8627 0.3066
37.3600 24.8760 0.3049
37.3800 24.8894 0.3259
37.4000 24.9027 0.3044
37.4200 24.9160 0.3022
37.4400 24.9294 0.3181
37.4600 24.9427 0.3030
37.4800 24.9560 0.3018
37.5000 24.9694 0.3151
37.5200 24.9827 0.2994
37.5400 24.9960 0.3068
37.5600 25.0094 0.3077
37.5800 25.0227 0.2938
37.6000 25.0361 0.3119
37.6200 25.0494 0.3103
37.6400 25.0628 0.2909
37.6600 25.0761 0.3039
37.6800 25.0894 0.3064
37.7000 25.1027 0.2963
37.7200 25.1161 0.2981
37.7400 25.1294 0.3009
37.7600 25.1427 0.2955
37.7800 25.1560 0.2992
37.8000 25.1693 0.2964
37.8200 25.1826 0.3007
37.8400 25.1960 0.2941
37.8600 25.2093 0.2945
37.8800 25.2227 0.2980
37.9000 25.2361 0.2919
37.9200 25.2495 0.2966
37.9400 25.2628 0.2953
37.9600 25.2761 0.2870
37.9800 25.2894 0.2966
38.0000 25.3028 0.2968
38.0200 25.3161 0.2861
38.0400 25.3294 0.2919
38.0600 25.3427 0.2926
38.0800 25.3561 0.2870
38.1000 25.3694 0.2910
38.1200 25.3827 0.2865
38.1400 25.3960 0.2839
38.1600 25.4093 0.2916
38.1800 25.4226 0.2845
38.2000 25.4360 0.2800
38.2200 25.4493 0.2870
38.2400 25.4626 0.2840
38.2600 25.4760 0.2810
38.2800 25.4894 0.2853
38.3000 25.5027 0.2810
38.3200 25.5161 0.2782
38.3400 25.5294 0.2844
38.3600 25.5428 0.2791
38.3800 25.5561 0.2772
38.4000 25.5694 0.2774
38.4200 25.5827 0.2739
38.4400 25.5960 0.2786
38.4600 25.6094 0.2798
38.4800 25.6227 0.2732
38.5000 25.6360 0.2715
38.5200 25.6494 0.2775
38.5400 25.6627 0.2745
38.5600 25.6761 0.2726
38.5800 25.6894 0.2742
38.6000 25.7027 0.2710
38.6200 25.7161 0.2720
38.6400 25.7294 0.2714
38.6600 25.7427 0.2682
38.6800 25.7560 0.2737
38.7000 25.7693 0.2701
38.7200 25.7827 0.2707
38.7400 25.7961 0.2706
38.7600 25.8094 0.2704
38.7800 25.8228 0.2708
38.8000 25.8361 0.2698
38.8200 25.8495 0.2672
38.8400 25.8628 0.2672
38.8600 25.8761 0.2677
38.8800 25.8893 0.2633
38.9000 25.9027 0.2729
38.9200 25.9160 0.2685
38.9400 25.9293 0.2609
38.9600 25.9427 0.2701
38.9800 25.9560 0.2633
39.0000 25.9694 0.2533
39.0200 25.9827 0.2737
39.0400 25.9961 0.2658
39.0600 26.0094 0.2575
39.0800 26.0227 0.2717
39.1000 26.0361 0.2615
39.1200 26.0494 0.2565
39.1400 26.0627 0.2764
39.1600 26.0761 0.2613
39.1800 26.0894 0.2601
39.2000 26.1027 0.2662
39.2200 26.1160 0.2608
39.2400 26.1293 0.2647
39.2600 26.1427 0.2663
39.2800 26.1560 0.2558
39.3000 26.1693 0.2643
39.3200 26.1827 0.2616
39.3400 26.1961 0.2562
39.3600 26.2094 0.2652
39.3800 26.2228 0.2591
39.4000 26.2361 0.2534
39.4200 26.2495 0.2671
39.4400 26.2628 0.2577
39.4600 26.2761 0.2571
39.4800 26.2894 0.2634
39.5000 26.3027 0.2598
39.5200 26.3160 0.2590
39.5400 26.3294 0.2610
39.5600 26.3427 0.2512
39.5800 26.3560 0.2589
39.6000 26.3693 0.2581
39.6200 26.3827 0.2491
39.6400 26.3961 0.2599
39.6600 26.4094 0.2512
39.6800 26.4227 0.2446
39.7000 26.4361 0.2555
39.7200 26.4494 0.2472
39.7400 26.4628 0.2453
39.7600 26.4761 0.2641
39.7800 26.4894 0.2427
39.8000 26.5028 0.2351
39.8200 26.5161 0.2654
39.8400 26.5294 0.2468
39.8600 26.5427 0.2339
39.8800 26.5560 0.2608
39.9000 26.5694 0.2385
39.9200 26.5827 0.2374
39.9400 26.5960 0.2497
39.9600 26.6093 0.2377
39.9800 26.6226 0.2423
40.0000 26.6360 0.2462
40.0200 26.6493 0.2331
40.0400 26.6627 0.2425
40.0600 26.6760 0.2474
40.0800 26.6894 0.2280
40.1000 26.7028 0.2373
40.1200 26.7161 0.2401
40.1400 26.7294 0.2258
40.1600 26.7427 0.2448
40.1800 26.7561 0.2388
40.2000 26.7694 0.2294
40.2200 26.7827 0.2491
40.2400 26.7960 0.2303
40.2600 26.8094 0.2150
40.2800 26.8227 0.2582
40.3000 26.8361 0.2460
40.3200 26.8494 0.2136
40.3400 26.8627 0.2356
40.3600 26.8760 0.2347
40.3800 26.8893 0.2287
40.4000 26.9027 0.2461
40.4200 26.9160 0.2330
40.4400 26.9294 0.2245
40.4600 26.9428 0.2358
40.4800 26.9561 0.2308
40.5000 26.9694 0.2336
40.5200 26.9827 0.2453
40.5400 26.9961 0.2285
40.5600 27.0094 0.2186
40.5800 27.0227 0.2388
40.6000 27.0360 0.2303
40.6200 27.0494 0.2273
40.6400 27.0627 0.2347
40.6600 27.0760 0.2313
40.6800 27.0893 0.2234
40.7000 27.1027 0.2293
40.7200 27.1160 0.2334
40.7400 27.1294 0.2239
40.7600 27.1427 0.2309
40.7800 27.1560 0.2333
40.8000 27.1694 0.2156
40.8200 27.1827 0.2212
40.8400 27.1961 0.2341
40.8600 27.2094 0.2257
40.8800 27.2227 0.2199
40.9000 27.2361 0.2290
40.9200 27.2495 0.2170
40.9400 27.2628 0.2168
40.9600 27.2761 0.2370
40.9800 27.2894 0.2193
41.0000 27.3028 0.2125
41.0200 27.3161 0.2293
41.0400 27.3294 0.2138
41.0600 27.3426 0.2207
41.0800 27.3559 0.2317
41.1000 27.3693 0.2101
41.1200 27.3826 0.2099
41.1400 27.3960 0.2260
41.1600 27.4094 0.2091
41.1800 27.4228 0.2133
41.2000 27.4361 0.2257
41.2200 27.4495 0.2043
41.2400 27.4628 0.2082
41.2600 27.4761 0.2275
41.2800 27.4895 0.2040
41.3000 27.5027 0.2028
41.3200 27.5160 0.2250
41.3400 27.5294 0.2072
41.3600 27.5427 0.2042
41.3800 27.5560 0.2187
41.4000 27.5693 0.2081
41.4200 27.5826 0.2024
41.4400 27.5960 0.2161
41.4600 27.6093 0.2049
41.4800 27.6227 0.2064
41.5000 27.6360 0.2176
41.5200 27.6494 0.2051
41.5400 27.6628 0.2031
41.5600 27.6761 0.2168
41.5800 27.6894 0.2054
41.6000 27.7028 0.2031
41.6200 27.7161 0.2188
41.6400 27.7294 0.1999
41.6600 27.7427 0.2012
41.6800 27.7560 0.2188
41.7000 27.7694 0.2049
41.7200 27.7827 0.1984
41.7400 27.7960 0.2153
41.7600 27.8093 0.2019
41.7800 27.8227 0.2003
41.8000 27.8360 0.2161
41.8200 27.8494 0.1980
41.8400 27.8627 0.1998
41.8600 27.8761 0.2128
41.8800 27.8894 0.1968
41.9000 27.9028 0.1989
41.9200 27.9161 0.2082
41.9400 27.9294 0.2003
41.9600 27.9428 0.2009
41.9800 27.9561 0.2063
42.0000 27.9694 0.1969
42.0200 27.9827 0.1990
42.0400 27.9961 0.2028
42.0600 28.0094 0.1994
42.0800 28.0227 0.1990
42.1000 28.0361 0.1958
42.1200 28.0493 0.1984
42.1400 28.0626 0.1986
42.1600 28.0760 0.1939
42.1800 28.0894 0.2001
42.2000 28.1027 0.1941
42.2200 28.1160 0.1918
42.2400 28.1294 0.1952
42.2600 28.1428 0.1926
42.2800 28.1561 0.1935
42.3000 28.1694 0.1986
42.3200 28.1828 0.1892
42.3400 28.1961 0.1894
42.3600 28.2094 0.1940
42.3800 28.2227 0.1872
42.4000 28.2360 0.1938
42.4200 28.2493 0.1952
42.4400 28.2627 0.1842
42.4600 28.2761 0.1904
42.4800 28.2894 0.1931
42.5000 28.3027 0.1845
42.5200 28.3160 0.1947
42.5400 28.3294 0.1943
42.5600 28.3427 0.1737
42.5800 28.3560 0.1977
42.6000 28.3694 0.1897
42.6200 28.3827 0.1754
42.6400 28.3961 0.1995
42.6600 28.4094 0.1831
42.6800 28.4228 0.1772
42.7000 28.4361 0.1916
42.7200 28.4495 0.1811
42.7400 28.4628 0.1830
42.7600 28.4761 0.1902
42.7800 28.4894 0.1774
42.8000 28.5027 0.1782
42.8200 28.5160 0.1837
42.8400 28.5294 0.1755
42.8600 28.5427 0.1855
42.8800 28.5560 0.1795
42.9000 28.5694 0.1712
42.9200 28.5827 0.1813
42.9400 28.5960 0.1688
42.9600 28.6094 0.1745
42.9800 28.6227 0.1837
43.0000 28.6361 0.1689
43.0200 28.6494 0.1693
43.0400 28.6627 0.1805
43.0600 28.6761 0.1725
43.0800 28.6894 0.1720
43.1000 28.7027 0.1752
43.1200 28.7161 0.1674
43.1400 28.7294 0.1753
43.1600 28.7427 0.1741
43.1800 28.7561 0.1697
43.2000 28.7693 0.1772
43.2200 28.7826 0.1681
43.2400 28.7960 0.1697
43.2600 28.8093 0.1726
43.2800 28.8227 0.1665
43.3000 28.8360 0.1732
43.3200 28.8494 0.1718
43.3400 28.8628 0.1593
43.3600 28.8762 0.1737
43.3800 28.8895 0.1744
43.4000 28.9028 0.1529
43.4200 28.9162 0.1722
43.4400 28.9295 0.1700
43.4600 28.9427 0.1523
43.4800 28.9560 0.1735
43.5000 28.9693 0.1723
43.5200 28.9826 0.1558
43.5400 28.9960 0.1677
43.5600 29.0093 0.1612
43.5800 29.0227 0.1611
43.6000 29.0360 0.1682
43.6200 29.0494 0.1562
43.6400 29.0628 0.1538
43.6600 29.0761 0.1685
43.6800 29.0894 0.1564
43.7000 29.1028 0.1576
43.7200 29.1161 0.1673
43.7400 29.1294 0.1523
43.7600 29.1427 0.1563
43.7800 29.1561 0.1663
43.8000 29.1694 0.1534
43.8200 29.1827 0.1576
43.8400 29.1960 0.1603
43.8600 29.2094 0.1583
43.8800 29.2227 0.1552
43.9000 29.2360 0.1554
43.9200 29.2493 0.1588
43.9400 29.2627 0.1591
43.9600 29.2760 0.1545
43.9800 29.2894 0.1543
44.0000 29.3027 0.1522
44.0200 29.3160 0.1545
44.0400 29.3294 0.1564
44.0600 29.3428 0.1546
44.0800 29.3561 0.1545
44.1000 29.3694 0.1583
44.1200 29.3827 0.1541
44.1400 29.3961 0.1553
44.1600 29.4095 0.1562
44.1800 29.4228 0.1529
44.2000 29.4361 0.1535
44.2200 29.4494 0.1548
44.2400 29.4627 0.1549
44.2600 29.4760 0.1549
44.2800 29.4893 0.1583
44.3000 29.5026 0.1559
44.3200 29.5160 0.1503
44.3400 29.5293 0.1523
44.3600 29.5427 0.1539
44.3800 29.5560 0.1501
44.4000 29.5694 0.1575
44.4200 29.5827 0.1471
44.4400 29.5961 0.1469
44.4600 29.6094 0.1540
44.4800 29.6228 0.1489
44.5000 29.6361 0.1456
44.5200 29.6494 0.1544
44.5400 29.6627 0.1464
44.5600 29.6760 0.1470
44.5800 29.6894 0.1516
44.6000 29.7027 0.1456
44.6200 29.7161 0.1477
44.6400 29.7294 0.1495
44.6600 29.7427 0.1469
44.6800 29.7560 0.1475
44.7000 29.7694 0.1451
44.7200 29.7827 0.1425
44.7400 29.7960 0.1475
44.7600 29.8094 0.1441
44.7800 29.8227 0.1436
44.8000 29.8361 0.1467
44.8200 29.8494 0.1355
44.8400 29.8627 0.1461
44.8600 29.8761 0.1452
44.8800 29.8895 0.1360
44.9000 29.9028 0.1451
44.9200 29.9161 0.1390
44.9400 29.9294 0.1341
44.9600 29.9427 0.1480
44.9800 29.9560 0.1333
45.0000 29.9693 0.1344
45.0200 29.9826 0.1490
45.0400 29.9960 0.1298
45.0600 30.0094 0.1327
45.0800 30.0227 0.1461
45.1000 30.0360 0.1338
45.1200 30.0494 0.1303
45.1400 30.0628 0.1397
45.1600 30.0761 0.1309
45.1800 30.0894 0.1373
45.2000 30.1027 0.1419
45.2200 30.1161 0.1253
45.2400 30.1294 0.1309
45.2600 30.1428 0.1413
45.2800 30.1561 0.1301
45.3000 30.1694 0.1345
45.3200 30.1827 0.1369
45.3400 30.1960 0.1300
45.3600 30.2093 0.1302
45.3800 30.2227 0.1346
45.4000 30.2360 0.1312
45.4200 30.2493 0.1305
45.4400 30.2627 0.1305
45.4600 30.2760 0.1293
45.4800 30.2894 0.1269
45.5000 30.3028 0.1286
45.5200 30.3161 0.1311
45.5400 30.3294 0.1207
45.5600 30.3428 0.1258
45.5800 30.3561 0.1319
45.6000 30.3694 0.1190
45.6200 30.3828 0.1280
45.6400 30.3960 0.1297
45.6600 30.4093 0.1138
45.6800 30.4227 0.1262
45.7000 30.4360 0.1291
45.7200 30.4493 0.1090
45.7400 30.4627 0.1312
45.7600 30.4760 0.1278
45.7800 30.4894 0.1071
45.8000 30.5028 0.1259
45.8200 30.5161 0.1263
45.8400 30.5294 0.1104
45.8600 30.5427 0.1313
45.8800 30.5561 0.1239
45.9000 30.5694 0.1068
45.9200 30.5827 0.1365
45.9400 30.5960 0.1221
45.9600 30.6094 0.1091
45.9800 30.6228 0.1298
46.0000 30.6361 0.1163
46.0200 30.6494 0.1108
46.0400 30.6628 0.1324
46.0600 30.6761 0.1151
46.0800 30.6894 0.1105
46.1000 30.7027 0.1288
46.1200 30.7160 0.1120
46.1400 30.7294 0.1085
46.1600 30.7427 0.1269
46.1800 30.7560 0.1098
46.2000 30.7693 0.1139
46.2200 30.7827 0.1273
46.2400 30.7961 0.1071
46.2600 30.8094 0.1105
46.2800 30.8227 0.1221
46.3000 30.8361 0.1066
46.3200 30.8494 0.1134
46.3400 30.8628 0.1143
46.3600 30.8761 0.1089
46.3800 30.8894 0.1136
46.4000 30.9028 0.1109
46.4200 30.9161 0.1072
46.4400 30.9294 0.1107
46.4600 30.9427 0.1115
46.4800 30.9560 0.1075
46.5000 30.9693 0.1140
46.5200 30.9827 0.1123
46.5400 30.9960 0.1034
46.5600 31.0094 0.1098
46.5800 31.0227 0.1117
46.6000 31.0361 0.1070
46.6200 31.0494 0.1075
46.6400 31.0627 0.1109
46.6600 31.0761 0.1079
46.6800 31.0894 0.1009
46.7000 31.1028 0.1119
46.7200 31.1161 0.1095
46.7400 31.1294 0.0975
46.7600 31.1427 0.1101
46.7800 31.1561 0.1075
46.8000 31.1694 0.1000
46.8200 31.1827 0.1149
46.8400 31.1960 0.1056
46.8600 31.2094 0.0968
46.8800 31.2227 0.1148
46.9000 31.2360 0.1029
46.9200 31.2494 0.0958
46.9400 31.2627 0.1149
46.9600 31.2761 0.0952
46.9800 31.2894 0.0960
47.0000 31.3027 0.1168
47.0200 31.3161 0.0909
47.0400 31.3294 0.1027
47.0600 31.3428 0.1175
47.0800 31.3561 0.0854
47.1000 31.3694 0.1036
47.1200 31.3827 0.1107
47.1400 31.3961 0.0841
47.1600 31.4094 0.0997
47.1800 31.4226 0.1088
47.2000 31.4360 0.0894
47.2200 31.4493 0.0941
47.2400 31.4627 0.1099
47.2600 31.4760 0.0848
47.2800 31.4894 0.0945
47.3000 31.5027 0.1074
47.3200 31.5161 0.0849
47.3400 31.5294 0.0888
47.3600 31.5427 0.1064
47.3800 31.5561 0.0869
47.4000 31.5694 0.0879
47.4200 31.5828 0.1052
47.4400 31.5961 0.0892
47.4600 31.6094 0.0844
47.4800 31.6227 0.0987
47.5000 31.6360 0.0903
47.5200 31.6494 0.0823
47.5400 31.6627 0.0927
47.5600 31.6760 0.0974
47.5800 31.6894 0.0760
47.6000 31.7027 0.0874
47.6200 31.7160 0.0957
47.6400 31.7294 0.0782
47.6600 31.7427 0.0875
47.6800 31.7561 0.0919
47.7000 31.7695 0.0765
47.7200 31.7828 0.0871
47.7400 31.7961 0.0959
47.7600 31.8094 0.0806
47.7800 31.8228 0.0819
47.8000 31.8361 0.0909
47.8200 31.8494 0.0753
47.8400 31.8627 0.0941
47.8600 31.8760 0.0873
47.8800 31.8894 0.0705
47.9000 31.9027 0.0929
47.9200 31.9160 0.0816
47.9400 31.9293 0.0733
47.9600 31.9427 0.0864
47.9800 31.9560 0.0771
48.0000 31.9693 0.0714
48.0200 31.9827 0.0875
48.0400 31.9960 0.0751
48.0600 32.0094 0.0758
48.0800 32.0227 0.0823
48.1000 32.0360 0.0786
48.1200 32.0494 0.0792
48.1400 32.0628 0.0828
48.1600 32.0761 0.0714
48.1800 32.0894 0.0749
48.2000 32.1028 0.0808
48.2200 32.1161 0.0758
48.2400 32.1294 0.0798
48.2600 32.1427 0.0767
48.2800 32.1560 0.0709
48.3000 32.1693 0.0777
48.3200 32.1826 0.0745
48.3400 32.1960 0.0764
48.3600 32.2093 0.0707
48.3800 32.2227 0.0753
48.4000 32.2361 0.0718
48.4200 32.2495 0.0725
48.4400 32.2628 0.0745
48.4600 32.2761 0.0720
48.4800 32.2895 0.0734
48.5000 32.3028 0.0707
48.5200 32.3161 0.0713
48.5400 32.3294 0.0709
48.5600 32.3427 0.0707
48.5800 32.3560 0.0707
48.6000 32.3694 0.0666
48.6200 32.3827 0.0691
48.6400 32.3960 0.0691
48.6600 32.4093 0.0671
48.6800 32.4227 0.0680
48.7000 32.4360 0.0684
48.7200 32.4494 0.0664
48.7400 32.4627 0.0646
48.7600 32.4761 0.0678
48.7800 32.4895 0.0648
48.8000 32.5028 0.0677
48.8200 32.5161 0.0642
48.8400 32.5295 0.0637
48.8600 32.5428 0.0648
48.8800 32.5561 0.0628
48.9000 32.5694 0.0641
48.9200 32.5827 0.0672
48.9400 32.5960 0.0580
48.9600 32.6094 0.0623
48.9800 32.6227 0.0683
49.0000 32.6360 0.0634
49.0200 32.6493 0.0636
49.0400 32.6627 0.0610
49.0600 32.6761 0.0586
49.0800 32.6894 0.0619
49.1000 32.7027 0.0627
49.1200 32.7161 0.0568
49.1400 32.7294 0.0635
49.1600 32.7428 0.0557
49.1800 32.7561 0.0557
49.2000 32.7694 0.0678
49.2200 32.7828 0.0548
49.2400 32.7961 0.0538
49.2600 32.8094 0.0662
49.2800 32.8227 0.0571
49.3000 32.8361 0.0554
49.3200 32.8494 0.0618
49.3400 32.8627 0.0576
49.3600 32.8760 0.0548
49.3800 32.8893 0.0653
49.4000 32.9027 0.0527
49.4200 32.9160 0.0561
49.4400 32.9294 0.0625
49.4600 32.9427 0.0516
49.4800 32.9561 0.0604
49.5000 32.9695 0.0583
49.5200 32.9828 0.0515
49.5400 32.9961 0.0608
49.5600 33.0094 0.0571
49.5800 33.0228 0.0513
49.6000 33.0361 0.0567
49.6200 33.0494 0.0606
49.6400 33.0627 0.0472
49.6600 33.0760 0.0554
49.6800 33.0894 0.0592
49.7000 33.1027 0.0480
49.7200 33.1160 0.0575
49.7400 33.1293 0.0552
49.7600 33.1427 0.0453
49.7800 33.1560 0.0538
49.8000 33.1693 0.0531
49.8200 33.1827 0.0429
49.8400 33.1961 0.0514
49.8600 33.2094 0.0521
49.8800 33.2228 0.0371
49.9000 33.2361 0.0562
49.9200 33.2494 0.0500
49.9400 33.2628 0.0357
49.9600 33.2761 0.0594
49.9800 33.2894 0.0436
50.0000 33.3027 0.0390
50.0200 33.3161 0.0596
50.0400 33.3294 0.0420
50.0600 33.3427 0.0377
50.0800 33.3560 0.0624
50.1000 33.3693 0.0346
50.1200 33.3827 0.0308
50.1400 33.3960 0.0666
50.1600 33.4094 0.0355
50.1800 33.4227 0.0335
50.2000 33.4361 0.0623
50.2200 33.4494 0.0273
50.2400 33.4627 0.0366
50.2600 33.4761 0.0645
50.2800 33.4894 0.0280
50.3000 33.5028 0.0367
50.3200 33.5161 0.0629
50.3400 33.5294 0.0176
50.3600 33.5427 0.0413
50.3800 33.5561 0.0675
50.4000 33.5694 0.0131
50.4200 33.5827 0.0395
50.4400 33.5960 0.0628
50.4600 33.6093 0.0109
50.4800 33.6227 0.0489
50.5000 33.6360 0.0606
50.5200 33.6493 0.0022
50.5400 33.6627 0.0495
50.5600 33.6761 0.0522
50.5800 33.6895 0.0048
50.6000 33.7028 0.0519
50.6200 33.7161 0.0454
50.6400 33.7295 0.0110
50.6600 33.7428 0.0505
50.6800 33.7561 0.0288
50.7000 33.7694 0.0159
50.7200 33.7826 0.0592
50.7400 33.7960 0.0241
50.7600 33.8093 0.0164
50.7800 33.8227 0.0560
50.8000 33.8360 0.0147
50.8200 33.8494 0.0304
50.8400 33.8627 0.0531
50.8600 33.8761 0.0035
50.8800 33.8894 0.0376
50.9000 33.9027 0.0452
50.9200 33.9161 0.0035
50.9400 33.9295 0.0446
50.9600 33.9427 0.0364
50.9800 33.9560 0.0086
51.0000 33.9693 0.0447
51.0200 33.9827 0.0348
51.0400 33.9960 0.0136
51.0600 34.0094 0.0441
51.0800 34.0227 0.0269
51.1000 34.0360 0.0181
51.1200 34.0494 0.0418
51.1400 34.0627 0.0171
51.1600 34.0760 0.0224
51.1800 34.0893 0.0428
51.2000 34.1027 0.0137
51.2200 34.1160 0.0245
51.2400 34.1294 0.0342
51.2600 34.1427 0.0181
51.2800 34.1561 0.0266
51.3000 34.1694 0.0314
51.3200 34.1828 0.0167
51.3400 34.1961 0.0278
51.3600 34.2094 0.0271
51.3800 34.2228 0.0174
51.4000 34.2361 0.0257
51.4200 34.2494 0.0225
51.4400 34.2627 0.0174
51.4600 34.2761 0.0220
51.4800 34.2894 0.0214
51.5000 34.3027 0.0173
51.5200 34.3160 0.0202
51.5400 34.3293 0.0198
51.5600 34.3427 0.0188
51.5800 34.3560 0.0168
51.6000 34.3694 0.0196
51.6200 34.3827 0.0184
51.6400 34.3961 0.0130
51.6600 34.4094 0.0212
51.6800 34.4228 0.0205
51.7000 34.4361 0.0123
51.7200 34.4494 0.0173
51.7400 34.4628 0.0156
51.7600 34.4761 0.0097
51.7800 34.4894 0.0208
51.8000 34.5027 0.0166
51.8200 34.5160 0.0082
51.8400 34.5294 0.0144
51.8600 34.5427 0.0093
51.8800 34.5560 0.0132
51.9000 34.5693 0.0191
51.9200 34.5827 0.0121
51.9400 34.5961 0.0050
51.9600 34.6094 0.0166
51.9800 34.6227 0.0102
52.0000 34.6360 0.0104
52.0200 34.6494 0.0136
52.0400 34.6627 0.0048
52.0600 34.6761 0.0069
52.0800 34.6894 0.0126
52.1000 34.7028 0.0038
52.1200 34.7161 0.0097
52.1400 34.7294 0.0112
52.1600 34.7427 0.0035
52.1800 34.7560 0.0066
52.2000 34.7694 0.0099
52.2200 34.7827 0.0056
52.2400 34.7960 0.0051
52.2600 34.8093 0.0110
52.2800 34.8227 0.0078
52.3000 34.8360 -0.0010
52.3200 34.8493 0.0068
52.3400 34.8627 0.0042
52.3600 34.8761 0.0038
52.3800 34.8895 0.0074
52.4000 34.9028 -0.0017
52.4200 34.9161 -0.0009
52.4400 34.9294 0.0003
52.4600 34.9428 0.0028
52.4800 34.9561 0.0016
52.5000 34.9694 -0.0013
52.5200 34.9827 0.0019
52.5400 34.9960 0.0029
52.5600 35.0094 -0.0061
52.5800 35.0227 0.0008
52.6000 35.0360 0.0046
52.6200 35.0493 -0.0095
52.6400 35.0626 -0.0002
52.6600 35.0760 0.0030
52.6800 35.0893 -0.0103
52.7000 35.1027 0.0008
52.7200 35.1160 0.0000
52.7400 35.1294 -0.0126
52.7600 35.1428 0.0004
52.7800 35.1561 0.0034
52.8000 35.1694 -0.0123
52.8200 35.1828 0.0030
52.8400 35.1961 -0.0017
52.8600 35.2094 -0.0151
52.8800 35.2227 0.0061
52.9000 35.2360 -0.0072
52.9200 35.2493 -0.0179
52.9400 35.2627 0.0058
52.9600 35.2760 -0.0116
52.9800 35.2894 -0.0105
53.0000 35.3027 0.0087
53.0200 35.3161 -0.0198
53.0400 35.3294 -0.0148
53.0600 35.3428 0.0073
53.0800 35.3561 -0.0226
53.1000 35.3694 -0.0111
53.1200 35.3827 0.0049
53.1400 35.3960 -0.0269
53.1600 35.4093 -0.0069
53.1800 35.4227 -0.0005
53.2000 35.4361 -0.0244
53.2200 35.4494 -0.0146
53.2400 35.4627 -0.0031
53.2600 35.4761 -0.0241
53.2800 35.4894 -0.0178
53.3000 35.5028 -0.0047
53.3200 35.5160 -0.0214
53.3400 35.5293 -0.0172
53.3600 35.5427 -0.0113
53.3800 35.5560 -0.0196
53.4000 35.5694 -0.0186
53.4200 35.5827 -0.0109
53.4400 35.5960 -0.0188
53.4600 35.6094 -0.0281
53.4800 35.6228 -0.0145
53.5000 35.6361 -0.0170
53.5200 35.6494 -0.0287
53.5400 35.6627 -0.0124
53.5600 35.6761 -0.0197
53.5800 35.6894 -0.0310
53.6000 35.7027 -0.0122
53.6200 35.7161 -0.0221
53.6400 35.7294 -0.0357
53.6600 35.7428 -0.0137
53.6800 35.7560 -0.0225
53.7000 35.7693 -0.0357
53.7200 35.7826 -0.0112
53.7400 35.7960 -0.0304
53.7600 35.8093 -0.0316
53.7800 35.8227 -0.0069
53.8000 35.8360 -0.0356
53.8200 35.8494 -0.0315
53.8400 35.8628 -0.0141
53.8600 35.8761 -0.0369
53.8800 35.8894 -0.0254
53.9000 35.9028 -0.0167
53.9200 35.9161 -0.0384
53.9400 35.9294 -0.0254
53.9600 35.9427 -0.0206
53.9800 35.9560 -0.0337
54.0000 35.9694 -0.0226
54.0200 35.9827 -0.0251
54.0400 35.9960 -0.0360
54.0600 36.0093 -0.0226
54.0800 36.0227 -0.0268
54.1000 36.0360 -0.0322
54.1200 36.0494 -0.0290
54.1400 36.0627 -0.0312
54.1600 36.0760 -0.0305
54.1800 36.0894 -0.0267
54.2000 36.1027 -0.0352
54.2200 36.1161 -0.0321
54.2400 36.1294 -0.0297
54.2600 36.1428 -0.0340
54.2800 36.1561 -0.0366
54.3000 36.1695 -0.0336
54.3200 36.1827 -0.0357
54.3400 36.1960 -0.0306
54.3600 36.2094 -0.0355
54.3800 36.2227 -0.0329
54.4000 36.2360 -0.0339
54.4200 36.2493 -0.0374
54.4400 36.2627 -0.0332
54.4600 36.2760 -0.0321
54.4800 36.2894 -0.0413
54.5000 36.3027 -0.0364
54.5200 36.3160 -0.0342
54.5400 36.3294 -0.0464
54.5600 36.3428 -0.0345
54.5800 36.3561 -0.0372
54.6000 36.3694 -0.0506
54.6200 36.3828 -0.0278
54.6400 36.3961 -0.0396
54.6600 36.4094 -0.0508
54.6800 36.4227 -0.0276
54.7000 36.4360 -0.0411
54.7200 36.4494 -0.0484
54.7400 36.4627 -0.0352
54.7600 36.4760 -0.0430
54.7800 36.4893 -0.0450
54.8000 36.5027 -0.0348
54.8200 36.5160 -0.0451
54.8400 36.5294 -0.0470
54.8600 36.5427 -0.0364
54.8800 36.5560 -0.0477
54.9000 36.5694 -0.0489
54.9200 36.5828 -0.0387
54.9400 36.5961 -0.0461
54.9600 36.6094 -0.0470
54.9800 36.6228 -0.0478
55.0000 36.6361 -0.0458
55.0200 36.6494 -0.0528
55.0400 36.6627 -0.0520
55.0600 36.6760 -0.0417
55.0800 36.6893 -0.0468
55.1000 36.7027 -0.0563
55.1200 36.7160 -0.0457
55.1400 36.7293 -0.0516
55.1600 36.7426 -0.0545
55.1800 36.7560 -0.0460
55.2000 36.7694 -0.0558
55.2200 36.7827 -0.0554
55.2400 36.7960 -0.0451
55.2600 36.8094 -0.0604
55.2800 36.8227 -0.0577
55.3000 36.8361 -0.0388
55.3200 36.8494 -0.0603
55.3400 36.8627 -0.0611
55.3600 36.8761 -0.0443
55.3800 36.8895 -0.0663
55.4000 36.9028 -0.0595
55.4200 36.9161 -0.0439
55.4400 36.9294 -0.0704
55.4600 36.9428 -0.0640
55.4800 36.9561 -0.0452
55.5000 36.9693 -0.0662
55.5200 36.9826 -0.0646
55.5400 36.9959 -0.0469
55.5600 37.0093 -0.0665
55.5800 37.0226 -0.0703
55.6000 37.0360 -0.0518
55.6200 37.0494 -0.0623
55.6400 37.0628 -0.0711
55.6600 37.0761 -0.0593
55.6800 37.0895 -0.0627
55.7000 37.1028 -0.0662
55.7200 37.1161 -0.0581
55.7400 37.1295 -0.0628
55.7600 37.1428 -0.0757
55.7800 37.1561 -0.0562
55.8000 37.1694 -0.0558
55.8200 37.1827 -0.0729
55.8400 37.1960 -0.0615
55.8600 37.2093 -0.0613
55.8800 37.2226 -0.0718
55.9000 37.2360 -0.0609
55.9200 37.2493 -0.0591
55.9400 37.2627 -0.0737
55.9600 37.2760 -0.0694
55.9800 37.2894 -0.0603
56.0000 37.3028 -0.0704
56.0200 37.3161 -0.0647
56.0400 37.3294 -0.0633
56.0600 37.3428 -0.0731
56.0800 37.3561 -0.0696
56.1000 37.3695 -0.0622
56.1200 37.3828 -0.0714
56.1400 37.3960 -0.0715
56.1600 37.4094 -0.0652
56.1800 37.4227 -0.0710
56.2000 37.4360 -0.0712
56.2200 37.4494 -0.0669
56.2400 37.4627 -0.0749
56.2600 37.4760 -0.0739
56.2800 37.4894 -0.0695
56.3000 37.5027 -0.0769
56.3200 37.5160 -0.0699
56.3400 37.5294 -0.0707
56.3600 37.5428 -0.0793
56.3800 37.5561 -0.0727
56.4000 37.5694 -0.0706
56.4200 37.5827 -0.0796
56.4400 37.5961 -0.0685
56.4600 37.6094 -0.0780
56.4800 37.6227 -0.0800
56.5000 37.6361 -0.0664
56.5200 37.6494 -0.0746
56.5400 37.6627 -0.0842
56.5600 37.6761 -0.0713
56.5800 37.6893 -0.0764
56.6000 37.7026 -0.0853
56.6200 37.7160 -0.0678
56.6400 37.7294 -0.0792
56.6600 37.7427 -0.0871
56.6800 37.7560 -0.0720
56.7000 37.7694 -0.0763
56.7200 37.7828 -0.0867
56.7400 37.7961 -0.0748
56.7600 37.8094 -0.0788
56.7800 37.8228 -0.0883
56.8000 37.8361 -0.0754
56.8200 37.8494 -0.0764
56.8400 37.8627 -0.0909
56.8600 37.8760 -0.0776
56.8800 37.8893 -0.0770
56.9000 37.9027 -0.0877
56.9200 37.9160 -0.0782
56.9400 37.9294 -0.0818
56.9600 37.9427 -0.0871
56.9800 37.9560 -0.0800
57.0000 37.9694 -0.0837
57.0200 37.9827 -0.0866
57.0400 37.9960 -0.0814
57.0600 38.0094 -0.0822
57.0800 38.0228 -0.0913
57.1000 38.0361 -0.0883
57.1200 38.0494 -0.0885
57.1400 38.0628 -0.0931
57.1600 38.0761 -0.0885
57.1800 38.0895 -0.0912
57.2000 38.1028 -0.0930
57.2200 38.1161 -0.0910
57.2400 38.1294 -0.0944
57.2600 38.1427 -0.0924
57.2800 38.1560 -0.0961
57.3000 38.1693 -0.0915
57.3200 38.1827 -0.0981
57.3400 38.1960 -0.0947
57.3600 38.2094 -0.0958
57.3800 38.2227 -0.0982
57.4000 38.2360 -0.0955
57.4200 38.2494 -0.0977
57.4400 38.2627 -0.1016
57.4600 38.2761 -0.0985
57.4800 38.2894 -0.0977
57.5000 38.3027 -0.1039
57.5200 38.3161 -0.0992
57.5400 38.3295 -0.0984
57.5600 38.3428 -0.1059
57.5800 38.3561 -0.0990
57.6000 38.3694 -0.1000
57.6200 38.3827 -0.1084
57.6400 38.3960 -0.0971
57.6600 38.4093 -0.0991
57.6800 38.4226 -0.1063
57.7000 38.4360 -0.1014
57.7200 38.4493 -0.1013
57.7400 38.4627 -0.1087
57.7600 38.4760 -0.1024
57.7800 38.4894 -0.1036
57.8000 38.5028 -0.1140
57.8200 38.5161 -0.1034
57.8400 38.5295 -0.1041
57.8600 38.5428 -0.1149
57.8800 38.5561 -0.1004
57.9000 38.5695 -0.1063
57.9200 38.5828 -0.1139
57.9400 38.5960 -0.1028
57.9600 38.6093 -0.1074
57.9800 38.6226 -0.1149
58.0000 38.6360 -0.1041
58.0200 38.6493 -0.1115
58.0400 38.6627 -0.1151
58.0600 38.6760 -0.1021
58.0800 38.6894 -0.1132
58.1000 38.7027 -0.1148
58.1200 38.7161 -0.1077
58.1400 38.7295 -0.1229
58.1600 38.7428 -0.1142
58.1800 38.7561 -0.1077
58.2000 38.7694 -0.1174
58.2200 38.7827 -0.1156
58.2400 38.7961 -0.1166
58.2600 38.8094 -0.1185
58.2800 38.8228 -0.1104
58.3000 38.8361 -0.1132
58.3200 38.8494 -0.1290
58.3400 38.8627 -0.1121
58.3600 38.8761 -0.1183
58.3800 38.8894 -0.1231
58.4000 38.9027 -0.1104
58.4200 38.9160 -0.1200
58.4400 38.9294 -0.1307
58.4600 38.9427 -0.1143
58.4800 38.9560 -0.1198
58.5000 38.9694 -0.1295
58.5200 38.9828 -0.1091
58.5400 38.9961 -0.1290
58.5600 39.0094 -0.1389
58.5800 39.0227 -0.1091
58.6000 39.0361 -0.1259
58.6200 39.0494 -0.1392
58.6400 39.0628 -0.1131
58.6600 39.0761 -0.1292
58.6800 39.0894 -0.1333
58.7000 39.1027 -0.1155
58.7200 39.1161 -0.1407
58.7400 39.1294 -0.1260
58.7600 39.1427 -0.1174
58.7800 39.1560 -0.1446
58.8000 39.1694 -0.1273
58.8200 39.1827 -0.1211
58.8400 39.1960 -0.1435
58.8600 39.2093 -0.1230
58.8800 39.2227 -0.1284
58.9000 39.2361 -0.1440
58.9200 39.2495 -0.1290
58.9400 39.2628 -0.1304
58.9600 39.2761 -0.1368
58.9800 39.2894 -0.1279
59.0000 39.3027 -0.1395
59.0200 39.3160 -0.1430
59.0400 39.3294 -0.1308
59.0600 39.3427 -0.1360
59.0800 39.3561 -0.1420
59.1000 39.3694 -0.1366
59.1200 39.3827 -0.1411
59.1400 39.3960 -0.1460
59.1600 39.4094 -0.1374
59.1800 39.4227 -0.1388
59.2000 39.4360 -0.1453
59.2200 39.4493 -0.1452
59.2400 39.4627 -0.1436
59.2600 39.4761 -0.1472
59.2800 39.4894 -0.1382
59.3000 39.5027 -0.1462
59.3200 39.5161 -0.1472
59.3400 39.5295 -0.1431
59.3600 39.5428 -0.1533
59.3800 39.5561 -0.1474
59.4000 39.5694 -0.1409
59.4200 39.5827 -0.1517
59.4400 39.5960 -0.1481
59.4600 39.6094 -0.1485
59.4800 39.6227 -0.1544
59.5000 39.6360 -0.1454
59.5200 39.6494 -0.1510
59.5400 39.6627 -0.1628
59.5600 39.6760 -0.1432
59.5800 39.6894 -0.1566
59.6000 39.7028 -0.1592
59.6200 39.7161 -0.1445
59.6400 39.7295 -0.1603
59.6600 39.7428 -0.1639
59.6800 39.7561 -0.1456
59.7000 39.7694 -0.1638
59.7200 39.7828 -0.1633
59.7400 39.7961 -0.1476
59.7600 39.8094 -0.1683
59.7800 39.8227 -0.1612
59.8000 39.8361 -0.1537
59.8200 39.8494 -0.1727
59.8400 39.8627 -0.1611
59.8600 39.8760 -0.1563
59.8800 39.8893 -0.1761
59.9000 39.9027 -0.1618
59.9200 39.9160 -0.1563
59.9400 39.9294 -0.1782
59.9600 39.9427 -0.1667
59.9800 39.9561 -0.1601
60.0000 39.9695 -0.1817
60.0200 39.9828 -0.1661
60.0400 39.9961 -0.1698
60.0470 40.0006 -0.1941
