Raw Data
Time Displacement Force
(s) (mm) (N)
0.0000 0.0000 0.1971
0.0200 0.0001 0.2023
0.0400 0.0021 0.2766
0.0600 0.0098 0.2707
0.0800 0.0217 0.1816
0.1000 0.0341 0.1893
0.1200 0.0467 0.2281
0.1400 0.0601 0.1962
0.1600 0.0742 0.1994
0.1800 0.0884 0.2010
0.2000 0.1023 0.1817
0.2200 0.1160 0.1936
0.2400 0.1293 0.2017
0.2600 0.1426 0.1836
0.2800 0.1559 0.2022
0.3000 0.1693 0.1907
0.3200 0.1827 0.1766
0.3400 0.1960 0.2017
0.3600 0.2093 0.1876
0.3800 0.2227 0.1812
0.4000 0.2360 0.1952
0.4200 0.2493 0.1858
0.4400 0.2626 0.1827
0.4600 0.2759 0.1883
0.4800 0.2893 0.1872
0.5000 0.3027 0.1819
0.5200 0.3160 0.1853
0.5400 0.3293 0.1816
0.5600 0.3426 0.1825
0.5800 0.3559 0.1866
0.6000 0.3693 0.1812
0.6200 0.3827 0.1835
0.6400 0.3960 0.1874
0.6600 0.4094 0.1768
0.6800 0.4228 0.1806
0.7000 0.4361 0.1817
0.7200 0.4494 0.1825
0.7400 0.4627 0.1828
0.7600 0.4761 0.1821
0.7800 0.4894 0.1831
0.8000 0.5027 0.1807
0.8200 0.5160 0.1835
0.8400 0.5294 0.1856
0.8600 0.5427 0.1812
0.8800 0.5560 0.1780
0.9000 0.5693 0.1843
0.9200 0.5826 0.1844
0.9400 0.5959 0.1802
0.9600 0.6093 0.1832
0.9800 0.6226 0.1814
1.0000 0.6359 0.1736
1.0200 0.6493 0.1850
1.0400 0.6627 0.1765
1.0600 0.6760 0.1756
1.0800 0.6894 0.1830
1.1000 0.7027 0.1766
1.1200 0.7161 0.1717
1.1400 0.7294 0.1819
1.1600 0.7427 0.1764
1.1800 0.7560 0.1760
1.2000 0.7693 0.1831
1.2200 0.7827 0.1714
1.2400 0.7960 0.1706
1.2600 0.8093 0.1804
1.2800 0.8226 0.1682
1.3000 0.8360 0.1771
1.3200 0.8493 0.1779
1.3400 0.8626 0.1644
1.3600 0.8760 0.1739
1.3800 0.8893 0.1753
1.4000 0.9027 0.1628
1.4200 0.9160 0.1762
1.4400 0.9293 0.1755
1.4600 0.9427 0.1638
1.4800 0.9561 0.1753
1.5000 0.9694 0.1715
1.5200 0.9827 0.1651
1.5400 0.9960 0.1769
1.5600 1.0093 0.1697
1.5800 1.0226 0.1640
1.6000 1.0359 0.1730
1.6200 1.0492 0.1661
1.6400 1.0626 0.1632
1.6600 1.0759 0.1715
1.6800 1.0893 0.1676
1.7000 1.1026 0.1672
1.7200 1.1160 0.1697
1.7400 1.1294 0.1629
1.7600 1.1428 0.1695
1.7800 1.1561 0.1666
1.8000 1.1694 0.1687
1.8200 1.1827 0.1685
1.8400 1.1960 0.1673
1.8600 1.2094 0.1648
1.8800 1.2227 0.1673
1.9000 1.2360 0.1672
1.9200 1.2494 0.1690
1.9400 1.2627 0.1649
1.9600 1.2760 0.1599
1.9800 1.2893 0.1614
2.0000 1.3026 0.1662
2.0200 1.3159 0.1670
2.0400 1.3293 0.1628
2.0600 1.3426 0.1577
2.0800 1.3560 0.1644
2.1000 1.3693 0.1664
2.1200 1.3827 0.1617
2.1400 1.3960 0.1656
2.1600 1.4093 0.1646
2.1800 1.4227 0.1628
2.2000 1.4360 0.1643
2.2200 1.4494 0.1617
2.2400 1.4627 0.1623
2.2600 1.4760 0.1660
2.2800 1.4893 0.1622
2.3000 1.5027 0.1582
2.3200 1.5160 0.1648
2.3400 1.5293 0.1639
2.3600 1.5427 0.1567
2.3800 1.5561 0.1616
2.4000 1.5694 0.1584
2.4200 1.5827 0.1616
2.4400 1.5960 0.1609
2.4600 1.6093 0.1629
2.4800 1.6226 0.1606
2.5000 1.6359 0.1646
2.5200 1.6492 0.1583
2.5400 1.6625 0.1587
2.5600 1.6759 0.1630
2.5800 1.6894 0.1552
2.6000 1.7027 0.1508
2.6200 1.7160 0.1625
2.6400 1.7294 0.1578
2.6600 1.7428 0.1529
2.6800 1.7561 0.1584
2.7000 1.7694 0.1580
2.7200 1.7827 0.1521
2.7400 1.7960 0.1567
2.7600 1.8093 0.1518
2.7800 1.8226 0.1568
2.8000 1.8359 0.1560
2.8200 1.8493 0.1466
2.8400 1.8627 0.1530
2.8600 1.8760 0.1534
2.8800 1.8894 0.1476
2.9000 1.9027 0.1561
2.9200 1.9160 0.1532
2.9400 1.9294 0.1439
2.9600 1.9427 0.1529
2.9800 1.9560 0.1548
3.0000 1.9693 0.1439
3.0200 1.9827 0.1543
3.0400 1.9960 0.1495
3.0600 2.0093 0.1431
3.0800 2.0226 0.1537
3.1000 2.0359 0.1454
3.1200 2.0493 0.1480
3.1400 2.0627 0.1527
3.1600 2.0760 0.1410
3.1800 2.0893 0.1446
3.2000 2.1027 0.1489
3.2200 2.1161 0.1429
3.2400 2.1294 0.1445
3.2600 2.1428 0.1478
3.2800 2.1561 0.1442
3.3000 2.1694 0.1406
3.3200 2.1827 0.1476
3.3400 2.1960 0.1485
3.3600 2.2093 0.1417
3.3800 2.2227 0.1473
3.4000 2.2360 0.1447
3.4200 2.2493 0.1389
3.4400 2.2626 0.1489
3.4600 2.2759 0.1435
3.4800 2.2893 0.1361
3.5000 2.3027 0.1489
3.5200 2.3160 0.1451
3.5400 2.3294 0.1339
3.5600 2.3427 0.1539
3.5800 2.3561 0.1462
3.6000 2.3694 0.1321
3.6200 2.3827 0.1545
3.6400 2.3961 0.1401
3.6600 2.4094 0.1352
3.6800 2.4227 0.1495
3.7000 2.4360 0.1345
3.7200 2.4493 0.1340
3.7400 2.4627 0.1533
3.7600 2.4760 0.1363
3.7800 2.4893 0.1360
3.8000 2.5026 0.1441
3.8200 2.5159 0.1328
3.8400 2.5293 0.1410
3.8600 2.5426 0.1459
3.8800 2.5559 0.1271
3.9000 2.5693 0.1370
3.9200 2.5827 0.1418
3.9400 2.5961 0.1296
3.9600 2.6094 0.1319
3.9800 2.6227 0.1446
4.0000 2.6360 0.1366
4.0200 2.6494 0.1277
4.0400 2.6627 0.1401
4.0600 2.6760 0.1352
4.0800 2.6893 0.1339
4.1000 2.7027 0.1414
4.1200 2.7160 0.1304
4.1400 2.7293 0.1332
4.1600 2.7427 0.1391
4.1800 2.7560 0.1301
4.2000 2.7693 0.1332
4.2200 2.7826 0.1404
4.2400 2.7959 0.1274
4.2600 2.8093 0.1294
4.2800 2.8227 0.1409
4.3000 2.8361 0.1248
4.3200 2.8494 0.1347
4.3400 2.8627 0.1377
4.3600 2.8761 0.1261
4.3800 2.8894 0.1322
4.4000 2.9027 0.1264
4.4200 2.9160 0.1285
4.4400 2.9293 0.1368
4.4600 2.9427 0.1325
4.4800 2.9560 0.1280
4.5000 2.9693 0.1332
4.5200 2.9826 0.1302
4.5400 2.9960 0.1306
4.5600 3.0093 0.1343
4.5800 3.0227 0.1219
4.6000 3.0360 0.1318
4.6200 3.0493 0.1245
4.6400 3.0627 0.1259
4.6600 3.0760 0.1319
4.6800 3.0893 0.1188
4.7000 3.1026 0.1308
4.7200 3.1160 0.1325
4.7400 3.1294 0.1194
4.7600 3.1428 0.1331
4.7800 3.1561 0.1308
4.8000 3.1694 0.1179
4.8200 3.1827 0.1270
4.8400 3.1961 0.1339
4.8600 3.2093 0.1159
4.8800 3.2226 0.1322
4.9000 3.2358 0.1270
4.9200 3.2492 0.1129
4.9400 3.2625 0.1360
4.9600 3.2759 0.1259
4.9800 3.2893 0.1156
5.0000 3.3027 0.1355
5.0200 3.3161 0.1176
5.0400 3.3294 0.1128
5.0600 3.3428 0.1376
5.0800 3.3561 0.1176
5.1000 3.3695 0.1144
5.1200 3.3827 0.1323
5.1400 3.3960 0.1089
5.1600 3.4093 0.1174
5.1800 3.4226 0.1339
5.2000 3.4360 0.1103
5.2200 3.4493 0.1213
5.2400 3.4626 0.1238
5.2600 3.4759 0.1091
5.2800 3.4893 0.1171
5.3000 3.5026 0.1245
5.3200 3.5160 0.1081
5.3400 3.5293 0.1160
5.3600 3.5427 0.1168
5.3800 3.5561 0.1094
5.4000 3.5694 0.1182
5.4200 3.5827 0.1212
5.4400 3.5961 0.1132
5.4600 3.6094 0.1107
5.4800 3.6227 0.1192
5.5000 3.6360 0.1150
5.5200 3.6493 0.1153
5.5400 3.6627 0.1173
5.5600 3.6760 0.1077
5.5800 3.6893 0.1144
5.6000 3.7026 0.1106
5.6200 3.7159 0.1155
5.6400 3.7293 0.1161
5.6600 3.7427 0.1098
5.6800 3.7560 0.1119
5.7000 3.7693 0.1163
5.7200 3.7827 0.1135
5.7400 3.7961 0.1118
5.7600 3.8094 0.1116
5.7800 3.8227 0.1112
5.8000 3.8360 0.1162
5.8200 3.8494 0.1122
5.8400 3.8627 0.1054
5.8600 3.8760 0.1183
5.8800 3.8894 0.1071
5.9000 3.9027 0.1124
5.9200 3.9160 0.1159
5.9400 3.9293 0.1081
5.9600 3.9426 0.1147
5.9800 3.9559 0.1151
6.0000 3.9693 0.1037
6.0200 3.9827 0.1104
6.0400 3.9960 0.1169
6.0600 4.0093 0.1009
6.0800 4.0227 0.1145
6.1000 4.0361 0.1133
6.1200 4.0494 0.0992
6.1400 4.0627 0.1188
6.1600 4.0760 0.1100
6.1800 4.0894 0.0989
6.2000 4.1027 0.1131
6.2200 4.1160 0.1065
6.2400 4.1293 0.1028
6.2600 4.1427 0.1181
6.2800 4.1560 0.1068
6.3000 4.1693 0.0948
6.3200 4.1826 0.1148
6.3400 4.1960 0.1038
6.3600 4.2093 0.0974
6.3800 4.2226 0.1136
6.4000 4.2359 0.1021
6.4200 4.2493 0.1012
6.4400 4.2626 0.1101
6.4600 4.2760 0.1000
6.4800 4.2894 0.1002
6.5000 4.3027 0.1100
6.5200 4.3160 0.0971
6.5400 4.3294 0.0973
6.5600 4.3427 0.1110
6.5800 4.3561 0.0992
6.6000 4.3694 0.1008
6.6200 4.3827 0.1099
6.6400 4.3960 0.0960
6.6600 4.4093 0.1014
6.6800 4.4226 0.1068
6.7000 4.4360 0.0966
6.7200 4.4493 0.1056
6.7400 4.4626 0.0978
6.7600 4.4760 0.0984
6.7800 4.4893 0.1039
6.8000 4.5026 0.1005
6.8200 4.5160 0.1005
6.8400 4.5294 0.0985
6.8600 4.5427 0.1013
6.8800 4.5560 0.0980
6.9000 4.5694 0.1001
6.9200 4.5827 0.0993
6.9400 4.5960 0.1003
6.9600 4.6093 0.0982
6.9800 4.6226 0.0979
7.0000 4.6360 0.1002
7.0200 4.6493 0.0986
7.0400 4.6626 0.0989
7.0600 4.6759 0.0990
7.0800 4.6893 0.0974
7.1000 4.7026 0.0973
7.1200 4.7160 0.1002
7.1400 4.7293 0.1004
7.1600 4.7427 0.0925
7.1800 4.7561 0.1002
7.2000 4.7695 0.0935
7.2200 4.7828 0.0936
7.2400 4.7961 0.1044
7.2600 4.8094 0.0955
7.2800 4.8228 0.0914
7.3000 4.8360 0.1003
7.3200 4.8492 0.0963
7.3400 4.8625 0.0974
7.3600 4.8759 0.0998
7.3800 4.8892 0.0932
7.4000 4.9026 0.0952
7.4200 4.9160 0.1003
7.4400 4.9293 0.0901
7.4600 4.9427 0.0972
7.4800 4.9561 0.1018
7.5000 4.9694 0.0890
7.5200 4.9827 0.1008
7.5400 4.9961 0.0957
7.5600 5.0094 0.0920
7.5800 5.0227 0.0978
7.6000 5.0360 0.0960
7.6200 5.0494 0.0917
7.6400 5.0627 0.0981
7.6600 5.0760 0.0947
7.6800 5.0893 0.0943
7.7000 5.1026 0.0987
7.7200 5.1160 0.0915
7.7400 5.1293 0.0971
7.7600 5.1426 0.0961
7.7800 5.1559 0.0906
7.8000 5.1693 0.0986
7.8200 5.1826 0.0921
7.8400 5.1960 0.0935
7.8600 5.2093 0.1009
7.8800 5.2227 0.0955
7.9000 5.2360 0.0936
7.9200 5.2494 0.0968
7.9400 5.2627 0.0913
7.9600 5.2760 0.0914
7.9800 5.2894 0.0988
8.0000 5.3028 0.0915
8.0200 5.3161 0.0900
8.0400 5.3294 0.1010
8.0600 5.3427 0.0941
8.0800 5.3560 0.0915
8.1000 5.3694 0.0914
8.1200 5.3827 0.0926
8.1400 5.3960 0.0954
8.1600 5.4093 0.0901
8.1800 5.4226 0.0926
8.2000 5.4360 0.0927
8.2200 5.4493 0.0907
8.2400 5.4626 0.0960
8.2600 5.4760 0.0860
8.2800 5.4894 0.0917
8.3000 5.5027 0.0964
8.3200 5.5160 0.0823
8.3400 5.5294 0.0901
8.3600 5.5427 0.0998
8.3800 5.5560 0.0788
8.4000 5.5693 0.0910
8.4200 5.5827 0.0963
8.4400 5.5960 0.0774
8.4600 5.6093 0.0949
8.4800 5.6226 0.0881
8.5000 5.6360 0.0794
8.5200 5.6493 0.0923
8.5400 5.6627 0.0874
8.5600 5.6760 0.0734
8.5800 5.6893 0.0940
8.6000 5.7027 0.0858
8.6200 5.7160 0.0743
8.6400 5.7294 0.0940
8.6600 5.7427 0.0797
8.6800 5.7560 0.0795
8.7000 5.7694 0.0924
8.7200 5.7827 0.0760
8.7400 5.7961 0.0821
8.7600 5.8094 0.0922
8.7800 5.8227 0.0805
8.8000 5.8360 0.0783
8.8200 5.8493 0.0895
8.8400 5.8626 0.0797
8.8600 5.8759 0.0785
8.8800 5.8893 0.0878
8.9000 5.9026 0.0829
8.9200 5.9160 0.0806
8.9400 5.9293 0.0794
8.9600 5.9427 0.0835
8.9800 5.9561 0.0804
9.0000 5.9694 0.0777
9.0200 5.9827 0.0817
9.0400 5.9960 0.0794
9.0600 6.0094 0.0801
9.0800 6.0227 0.0796
9.1000 6.0361 0.0779
9.1200 6.0493 0.0851
9.1400 6.0626 0.0771
9.1600 6.0760 0.0805
9.1800 6.0893 0.0750
9.2000 6.1026 0.0801
9.2200 6.1159 0.0792
9.2400 6.1293 0.0739
9.2600 6.1426 0.0783
9.2800 6.1560 0.0752
9.3000 6.1693 0.0741
9.3200 6.1826 0.0751
9.3400 6.1960 0.0739
9.3600 6.2094 0.0763
9.3800 6.2227 0.0745
9.4000 6.2360 0.0725
9.4200 6.2494 0.0713
9.4400 6.2627 0.0759
9.4600 6.2760 0.0688
9.4800 6.2893 0.0761
9.5000 6.3026 0.0829
9.5200 6.3160 0.0733
9.5400 6.3293 0.0699
9.5600 6.3427 0.0777
9.5800 6.3560 0.0706
9.6000 6.3693 0.0693
9.6200 6.3827 0.0755
9.6400 6.3960 0.0668
9.6600 6.4093 0.0694
9.6800 6.4227 0.0744
9.7000 6.4360 0.0710
9.7200 6.4493 0.0679
9.7400 6.4626 0.0740
9.7600 6.4759 0.0728
9.7800 6.4892 0.0704
9.8000 6.5027 0.0705
9.8200 6.5160 0.0698
9.8400 6.5294 0.0694
9.8600 6.5427 0.0724
9.8800 6.5561 0.0607
9.9000 6.5694 0.0664
9.9200 6.5827 0.0676
9.9400 6.5960 0.0619
9.9600 6.6093 0.0695
9.9800 6.6226 0.0721
10.0000 6.6360 0.0670
10.0200 6.6493 0.0654
10.0400 6.6626 0.0656
10.0600 6.6760 0.0687
10.0800 6.6894 0.0654
10.1000 6.7027 0.0632
10.1200 6.7160 0.0632
10.1400 6.7294 0.0696
10.1600 6.7427 0.0647
10.1800 6.7561 0.0569
10.2000 6.7694 0.0704
10.2200 6.7827 0.0669
10.2400 6.7960 0.0588
10.2600 6.8094 0.0688
10.2800 6.8227 0.0677
10.3000 6.8360 0.0628
10.3200 6.8493 0.0679
10.3400 6.8626 0.0696
10.3600 6.8760 0.0631
10.3800 6.8893 0.0643
10.4000 6.9026 0.0695
10.4200 6.9160 0.0648
10.4400 6.9294 0.0614
10.4600 6.9427 0.0695
10.4800 6.9561 0.0641
10.5000 6.9694 0.0643
10.5200 6.9827 0.0635
10.5400 6.9960 0.0604
10.5600 7.0093 0.0697
10.5800 7.0226 0.0654
10.6000 7.0360 0.0637
10.6200 7.0493 0.0655
10.6400 7.0626 0.0696
10.6600 7.0759 0.0591
10.6800 7.0893 0.0656
10.7000 7.1027 0.0717
10.7200 7.1160 0.0574
10.7400 7.1293 0.0621
10.7600 7.1426 0.0696
10.7800 7.1560 0.0535
10.8000 7.1694 0.0641
10.8200 7.1827 0.0660
10.8400 7.1960 0.0534
10.8600 7.2094 0.0632
10.8800 7.2227 0.0683
10.9000 7.2361 0.0529
10.9200 7.2494 0.0593
10.9400 7.2627 0.0677
10.9600 7.2760 0.0593
10.9800 7.2894 0.0558
11.0000 7.3027 0.0637
11.0200 7.3160 0.0557
11.0400 7.3293 0.0572
11.0600 7.3426 0.0629
11.0800 7.3560 0.0526
11.1000 7.3693 0.0573
11.1200 7.3826 0.0650
11.1400 7.3960 0.0521
11.1600 7.4094 0.0560
11.1800 7.4227 0.0611
11.2000 7.4360 0.0516
11.2200 7.4493 0.0542
11.2400 7.4627 0.0623
11.2600 7.4760 0.0493
11.2800 7.4894 0.0526
11.3000 7.5027 0.0616
11.3200 7.5160 0.0511
11.3400 7.5294 0.0546
11.3600 7.5427 0.0566
11.3800 7.5560 0.0499
11.4000 7.5693 0.0533
11.4200 7.5827 0.0540
11.4400 7.5960 0.0468
11.4600 7.6093 0.0547
11.4800 7.6227 0.0547
11.5000 7.6360 0.0469
11.5200 7.6494 0.0479
11.5400 7.6627 0.0562
11.5600 7.6760 0.0462
11.5800 7.6894 0.0464
11.6000 7.7027 0.0595
11.6200 7.7161 0.0499
11.6400 7.7294 0.0469
11.6600 7.7427 0.0588
11.6800 7.7560 0.0505
11.7000 7.7693 0.0451
11.7200 7.7826 0.0577
11.7400 7.7959 0.0492
11.7600 7.8093 0.0436
11.7800 7.8226 0.0581
11.8000 7.8360 0.0463
11.8200 7.8493 0.0427
11.8400 7.8626 0.0581
11.8600 7.8760 0.0497
11.8800 7.8893 0.0428
11.9000 7.9027 0.0601
11.9200 7.9160 0.0501
11.9400 7.9293 0.0413
11.9600 7.9427 0.0620
11.9800 7.9561 0.0439
12.0000 7.9694 0.0463
12.0200 7.9827 0.0625
12.0400 7.9961 0.0426
12.0600 8.0094 0.0440
12.0800 8.0227 0.0600
12.1000 8.0360 0.0453
12.1200 8.0492 0.0471
12.1400 8.0625 0.0587
12.1600 8.0758 0.0378
12.1800 8.0892 0.0444
12.2000 8.1026 0.0651
12.2200 8.1160 0.0398
12.2400 8.1294 0.0454
12.2600 8.1428 0.0541
12.2800 8.1561 0.0397
12.3000 8.1695 0.0475
12.3200 8.1828 0.0533
12.3400 8.1961 0.0380
12.3600 8.2094 0.0476
12.3800 8.2227 0.0537
12.4000 8.2360 0.0394
12.4200 8.2493 0.0479
12.4400 8.2627 0.0476
12.4600 8.2760 0.0409
12.4800 8.2893 0.0507
12.5000 8.3026 0.0484
12.5200 8.3160 0.0407
12.5400 8.3293 0.0498
12.5600 8.3426 0.0476
12.5800 8.3560 0.0419
12.6000 8.3694 0.0494
12.6200 8.3828 0.0491
12.6400 8.3961 0.0435
12.6600 8.4094 0.0506
12.6800 8.4227 0.0454
12.7000 8.4361 0.0473
12.7200 8.4494 0.0497
12.7400 8.4627 0.0441
12.7600 8.4760 0.0532
12.7800 8.4893 0.0453
12.8000 8.5026 0.0411
12.8200 8.5159 0.0491
12.8400 8.5292 0.0428
12.8600 8.5426 0.0472
12.8800 8.5560 0.0471
12.9000 8.5694 0.0426
12.9200 8.5827 0.0476
12.9400 8.5960 0.0463
12.9600 8.6094 0.0387
12.9800 8.6227 0.0484
13.0000 8.6361 0.0456
13.0200 8.6494 0.0373
13.0400 8.6627 0.0509
13.0600 8.6761 0.0436
13.0800 8.6894 0.0365
13.1000 8.7027 0.0529
13.1200 8.7160 0.0417
13.1400 8.7294 0.0406
13.1600 8.7427 0.0474
13.1800 8.7560 0.0354
13.2000 8.7693 0.0429
13.2200 8.7826 0.0489
13.2400 8.7960 0.0333
13.2600 8.8093 0.0392
13.2800 8.8227 0.0450
13.3000 8.8360 0.0346
13.3200 8.8494 0.0436
13.3400 8.8628 0.0365
13.3600 8.8761 0.0343
13.3800 8.8894 0.0430
13.4000 8.9027 0.0367
13.4200 8.9161 0.0382
13.4400 8.9294 0.0390
13.4600 8.9427 0.0341
13.4800 8.9560 0.0435
13.5000 8.9693 0.0384
13.5200 8.9827 0.0359
13.5400 8.9960 0.0380
13.5600 9.0093 0.0314
13.5800 9.0226 0.0364
13.6000 9.0360 0.0409
13.6200 9.0493 0.0294
13.6400 9.0626 0.0391
13.6600 9.0759 0.0340
13.6800 9.0893 0.0269
13.7000 9.1027 0.0378
13.7200 9.1160 0.0321
13.7400 9.1294 0.0277
13.7600 9.1427 0.0359
13.7800 9.1561 0.0307
13.8000 9.1694 0.0246
13.8200 9.1827 0.0332
13.8400 9.1960 0.0324
13.8600 9.2093 0.0261
13.8800 9.2227 0.0317
13.9000 9.2360 0.0243
13.9200 9.2493 0.0279
13.9400 9.2626 0.0343
13.9600 9.2760 0.0239
13.9800 9.2893 0.0245
14.0000 9.3027 0.0342
14.0200 9.3160 0.0219
14.0400 9.3293 0.0243
14.0600 9.3427 0.0315
14.0800 9.3560 0.0243
14.1000 9.3693 0.0225
14.1200 9.3827 0.0275
14.1400 9.3960 0.0211
14.1600 9.4094 0.0238
14.1800 9.4227 0.0273
14.2000 9.4360 0.0243
14.2200 9.4494 0.0229
14.2400 9.4627 0.0291
14.2600 9.4760 0.0233
14.2800 9.4893 0.0265
14.3000 9.5026 0.0301
14.3200 9.5160 0.0155
14.3400 9.5293 0.0255
14.3600 9.5426 0.0272
14.3800 9.5560 0.0220
14.4000 9.5694 0.0205
14.4200 9.5828 0.0248
14.4400 9.5961 0.0191
14.4600 9.6094 0.0244
14.4800 9.6228 0.0270
14.5000 9.6361 0.0142
14.5200 9.6494 0.0252
14.5400 9.6626 0.0268
14.5600 9.6758 0.0188
14.5800 9.6892 0.0287
14.6000 9.7026 0.0229
14.6200 9.7159 0.0195
14.6400 9.7293 0.0249
14.6600 9.7426 0.0229
14.6800 9.7560 0.0248
14.7000 9.7694 0.0229
14.7200 9.7827 0.0238
14.7400 9.7960 0.0202
14.7600 9.8094 0.0234
14.7800 9.8228 0.0202
14.8000 9.8361 0.0169
14.8200 9.8494 0.0360
14.8400 9.8627 0.0155
14.8600 9.8761 0.0187
14.8800 9.8894 0.0283
14.9000 9.9027 0.0141
14.9200 9.9160 0.0214
14.9400 9.9293 0.0259
14.9600 9.9427 0.0163
14.9800 9.9560 0.0189
15.0000 9.9693 0.0270
15.0200 9.9826 0.0174
15.0400 9.9960 0.0190
15.0600 10.0093 0.0268
15.0800 10.0226 0.0108
15.1000 10.0360 0.0238
15.1200 10.0494 0.0269
15.1400 10.0627 0.0143
15.1600 10.0761 0.0246
15.1800 10.0894 0.0254
15.2000 10.1027 0.0152
15.2200 10.1161 0.0243
15.2400 10.1294 0.0254
15.2600 10.1427 0.0061
15.2800 10.1560 0.0268
15.3000 10.1694 0.0270
15.3200 10.1827 0.0074
15.3400 10.1960 0.0248
15.3600 10.2093 0.0236
15.3800 10.2226 0.0097
15.4000 10.2359 0.0279
15.4200 10.2493 0.0211
15.4400 10.2626 0.0088
15.4600 10.2760 0.0260
15.4800 10.2893 0.0195
15.5000 10.3027 0.0063
15.5200 10.3161 0.0253
15.5400 10.3294 0.0167
15.5600 10.3427 0.0108
15.5800 10.3561 0.0251
15.6000 10.3694 0.0161
15.6200 10.3827 0.0151
15.6400 10.3960 0.0260
15.6600 10.4093 0.0109
15.6800 10.4227 0.0132
15.7000 10.4360 0.0248
15.7200 10.4493 0.0140
15.7400 10.4626 0.0135
15.7600 10.4760 0.0221
15.7800 10.4893 0.0161
15.8000 10.5026 0.0150
15.8200 10.5159 0.0214
15.8400 10.5293 0.0184
15.8600 10.5427 0.0093
15.8800 10.5560 0.0175
15.9000 10.5694 0.0204
15.9200 10.5827 0.0181
15.9400 10.5960 0.0163
15.9600 10.6094 0.0198
15.9800 10.6227 0.0155
16.0000 10.6360 0.0196
16.0200 10.6493 0.0262
16.0400 10.6627 0.0142
16.0600 10.6760 0.0203
16.0800 10.6893 0.0266
16.1000 10.7026 0.0130
16.1200 10.7160 0.0238
16.1400 10.7293 0.0250
16.1600 10.7426 0.0103
16.1800 10.7560 0.0251
16.2000 10.7694 0.0298
16.2200 10.7828 0.0134
16.2400 10.7961 0.0227
16.2600 10.8094 0.0281
16.2800 10.8227 0.0145
16.3000 10.8360 0.0218
16.3200 10.8494 0.0227
16.3400 10.8627 0.0175
16.3600 10.8760 0.0206
16.3800 10.8893 0.0231
16.4000 10.9027 0.0143
16.4200 10.9160 0.0197
16.4400 10.9293 0.0212
16.4600 10.9426 0.0176
16.4800 10.9559 0.0175
16.5000 10.9693 0.0209
16.5200 10.9826 0.0131
16.5400 10.9960 0.0159
16.5600 11.0093 0.0207
16.5800 11.0227 0.0170
16.6000 11.0361 0.0152
16.6200 11.0494 0.0166
16.6400 11.0627 0.0176
16.6600 11.0761 0.0164
16.6800 11.0894 0.0199
16.7000 11.1027 0.0133
16.7200 11.1160 0.0164
16.7400 11.1293 0.0219
16.7600 11.1426 0.0161
16.7800 11.1560 0.0136
16.8000 11.1693 0.0210
16.8200 11.1827 0.0162
16.8400 11.1960 0.0092
16.8600 11.2094 0.0174
16.8800 11.2227 0.0155
16.9000 11.2360 0.0131
16.9200 11.2493 0.0189
16.9400 11.2627 0.0077
16.9600 11.2760 0.0111
16.9800 11.2892 0.0185
17.0000 11.3026 0.0137
17.0200 11.3160 0.0137
17.0400 11.3294 0.0166
17.0600 11.3427 0.0063
17.0800 11.3560 0.0130
17.1000 11.3694 0.0165
17.1200 11.3827 0.0104
17.1400 11.3961 0.0122
17.1600 11.4094 0.0149
17.1800 11.4226 0.0095
17.2000 11.4360 0.0092
17.2200 11.4493 0.0153
17.2400 11.4626 0.0132
17.2600 11.4760 0.0067
17.2800 11.4893 0.0151
17.3000 11.5027 0.0086
17.3200 11.5160 0.0070
17.3400 11.5294 0.0150
17.3600 11.5427 0.0118
17.3800 11.5560 0.0069
17.4000 11.5694 0.0103
17.4200 11.5827 0.0128
17.4400 11.5960 0.0036
17.4600 11.6094 0.0159
17.4800 11.6227 0.0113
17.5000 11.6360 -0.0029
17.5200 11.6493 0.0159
17.5400 11.6626 0.0101
17.5600 11.6759 0.0010
17.5800 11.6893 0.0123
17.6000 11.7026 0.0072
17.6200 11.7160 0.0028
17.6400 11.7293 0.0109
17.6600 11.7427 0.0048
17.6800 11.7561 -0.0013
17.7000 11.7694 0.0103
17.7200 11.7827 0.0054
17.7400 11.7961 0.0002
17.7600 11.8094 0.0108
17.7800 11.8227 0.0115
17.8000 11.8360 0.0029
17.8200 11.8493 0.0077
17.8400 11.8627 0.0075
17.8600 11.8760 0.0035
17.8800 11.8893 0.0059
17.9000 11.9026 0.0140
17.9200 11.9160 0.0041
17.9400 11.9293 0.0031
17.9600 11.9427 0.0095
17.9800 11.9560 0.0068
18.0000 11.9693 0.0003
18.0200 11.9827 0.0120
18.0400 11.9960 0.0026
18.0600 12.0094 0.0025
18.0800 12.0227 0.0140
18.1000 12.0360 0.0024
18.1200 12.0494 0.0004
18.1400 12.0627 0.0118
18.1600 12.0760 -0.0005
18.1800 12.0893 0.0040
18.2000 12.1027 0.0118
18.2200 12.1160 -0.0059
18.2400 12.1293 0.0059
18.2600 12.1426 0.0131
18.2800 12.1559 -0.0045
18.3000 12.1693 0.0050
18.3200 12.1826 0.0114
18.3400 12.1960 -0.0062
18.3600 12.2093 0.0068
18.3800 12.2227 0.0065
18.4000 12.2361 -0.0052
18.4200 12.2494 0.0094
18.4400 12.2627 0.0076
18.4600 12.2760 -0.0013
18.4800 12.2894 0.0067
18.5000 12.3027 0.0054
18.5200 12.3160 0.0047
18.5400 12.3293 0.0062
18.5600 12.3426 0.0059
18.5800 12.3560 -0.0002
18.6000 12.3694 0.0063
18.6200 12.3827 0.0061
18.6400 12.3960 0.0028
18.6600 12.4093 0.0041
18.6800 12.4227 0.0042
18.7000 12.4360 0.0082
18.7200 12.4493 0.0019
18.7400 12.4627 0.0045
18.7600 12.4761 0.0052
18.7800 12.4894 -0.0016
18.8000 12.5027 0.0027
18.8200 12.5160 0.0012
18.8400 12.5294 -0.0022
18.8600 12.5427 0.0033
18.8800 12.5560 0.0003
18.9000 12.5693 0.0000
18.9200 12.5826 0.0027
18.9400 12.5960 -0.0030
18.9600 12.6093 -0.0045
18.9800 12.6226 0.0006
19.0000 12.6359 -0.0046
19.0200 12.6493 -0.0055
19.0400 12.6626 -0.0017
19.0600 12.6760 -0.0050
19.0800 12.6893 -0.0030
19.1000 12.7027 -0.0021
19.1200 12.7160 -0.0075
19.1400 12.7294 -0.0050
19.1600 12.7427 -0.0032
19.1800 12.7560 -0.0071
19.2000 12.7694 -0.0056
19.2200 12.7828 -0.0063
19.2400 12.7961 -0.0094
19.2600 12.8094 -0.0028
19.2800 12.8227 -0.0085
19.3000 12.8361 -0.0101
19.3200 12.8494 -0.0065
19.3400 12.8626 -0.0106
19.3600 12.8759 -0.0101
19.3800 12.8892 -0.0068
19.4000 12.9025 -0.0127
19.4200 12.9159 -0.0066
19.4400 12.9293 -0.0068
19.4600 12.9427 -0.0143
19.4800 12.9561 -0.0087
19.5000 12.9694 -0.0092
19.5200 12.9828 -0.0133
19.5400 12.9961 -0.0049
19.5600 13.0095 -0.0096
19.5800 13.0228 -0.0117
19.6000 13.0361 -0.0051
19.6200 13.0493 -0.0091
19.6400 13.0626 -0.0108
19.6600 13.0760 -0.0070
19.6800 13.0893 -0.0114
19.7000 13.1026 -0.0097
19.7200 13.1159 -0.0047
19.7400 13.1293 -0.0139
19.7600 13.1427 -0.0123
19.7800 13.1560 -0.0034
19.8000 13.1693 -0.0108
19.8200 13.1827 -0.0090
19.8400 13.1961 -0.0020
19.8600 13.2094 -0.0187
19.8800 13.2227 -0.0101
19.9000 13.2360 -0.0032
19.9200 13.2494 -0.0177
19.9400 13.2628 -0.0115
19.9600 13.2760 -0.0051
19.9800 13.2893 -0.0148
20.0000 13.3027 -0.0096
20.0200 13.3160 -0.0072
20.0400 13.3293 -0.0150
20.0600 13.3426 -0.0105
20.0800 13.3559 -0.0070
20.1000 13.3693 -0.0162
20.1200 13.3827 -0.0066
20.1400 13.3960 -0.0090
20.1600 13.4094 -0.0150
20.1800 13.4227 -0.0076
20.2000 13.4361 -0.0101
20.2200 13.4494 -0.0201
20.2400 13.4627 -0.0098
20.2600 13.4760 -0.0063
20.2800 13.4894 -0.0154
20.3000 13.5027 -0.0109
20.3200 13.5160 -0.0088
20.3400 13.5294 -0.0146
20.3600 13.5427 -0.0125
20.3800 13.5560 -0.0071
20.4000 13.5693 -0.0144
20.4200 13.5826 -0.0144
20.4400 13.5959 -0.0091
20.4600 13.6093 -0.0147
20.4800 13.6227 -0.0142
20.5000 13.6360 -0.0114
20.5200 13.6493 -0.0183
20.5400 13.6627 -0.0157
20.5600 13.6761 -0.0134
20.5800 13.6894 -0.0165
20.6000 13.7027 -0.0135
20.6200 13.7160 -0.0084
20.6400 13.7294 -0.0193
20.6600 13.7427 -0.0146
20.6800 13.7560 -0.0123
20.7000 13.7693 -0.0152
20.7200 13.7826 -0.0148
20.7400 13.7960 -0.0143
20.7600 13.8093 -0.0200
20.7800 13.8226 -0.0108
20.8000 13.8360 -0.0118
20.8200 13.8493 -0.0190
20.8400 13.8626 -0.0170
20.8600 13.8760 -0.0145
20.8800 13.8893 -0.0185
20.9000 13.9027 -0.0140
20.9200 13.9160 -0.0150
20.9400 13.9294 -0.0188
20.9600 13.9427 -0.0161
20.9800 13.9560 -0.0126
21.0000 13.9694 -0.0196
21.0200 13.9828 -0.0149
21.0400 13.9961 -0.0125
21.0600 14.0094 -0.0153
21.0800 14.0227 -0.0130
21.1000 14.0360 -0.0081
21.1200 14.0494 -0.0169
21.1400 14.0627 -0.0123
21.1600 14.0760 -0.0064
21.1800 14.0893 -0.0203
21.2000 14.1026 -0.0068
21.2200 14.1160 -0.0101
21.2400 14.1293 -0.0198
21.2600 14.1427 -0.0012
21.2800 14.1560 -0.0120
21.3000 14.1694 -0.0183
21.3200 14.1827 -0.0011
21.3400 14.1960 -0.0102
21.3600 14.2094 -0.0150
21.3800 14.2227 -0.0047
21.4000 14.2360 -0.0111
21.4200 14.2493 -0.0116
21.4400 14.2627 -0.0040
21.4600 14.2760 -0.0151
21.4800 14.2894 -0.0130
21.5000 14.3026 -0.0040
21.5200 14.3159 -0.0149
21.5400 14.3293 -0.0088
21.5600 14.3426 -0.0129
21.5800 14.3559 -0.0151
21.6000 14.3693 -0.0101
21.6200 14.3827 -0.0184
21.6400 14.3961 -0.0119
21.6600 14.4095 -0.0120
21.6800 14.4228 -0.0183
21.7000 14.4361 -0.0119
21.7200 14.4494 -0.0147
21.7400 14.4628 -0.0221
21.7600 14.4760 -0.0074
21.7800 14.4892 -0.0157
21.8000 14.5025 -0.0212
21.8200 14.5159 -0.0046
21.8400 14.5293 -0.0211
21.8600 14.5426 -0.0237
21.8800 14.5559 -0.0018
21.9000 14.5693 -0.0219
21.9200 14.5827 -0.0258
21.9400 14.5960 -0.0061
21.9600 14.6094 -0.0258
21.9800 14.6227 -0.0208
22.0000 14.6361 -0.0030
22.0200 14.6494 -0.0273
22.0400 14.6627 -0.0238
22.0600 14.6760 -0.0085
22.0800 14.6893 -0.0286
22.1000 14.7027 -0.0170
22.1200 14.7160 -0.0088
22.1400 14.7293 -0.0279
22.1600 14.7426 -0.0162
22.1800 14.7560 -0.0126
22.2000 14.7693 -0.0273
22.2200 14.7826 -0.0195
22.2400 14.7960 -0.0120
22.2600 14.8093 -0.0235
22.2800 14.8227 -0.0235
22.3000 14.8360 -0.0144
22.3200 14.8493 -0.0243
22.3400 14.8627 -0.0219
22.3600 14.8761 -0.0180
22.3800 14.8894 -0.0212
22.4000 14.9027 -0.0236
22.4200 14.9160 -0.0158
22.4400 14.9294 -0.0207
22.4600 14.9427 -0.0285
22.4800 14.9561 -0.0150
22.5000 14.9694 -0.0188
22.5200 14.9827 -0.0283
22.5400 14.9960 -0.0167
22.5600 15.0094 -0.0164
22.5800 15.0226 -0.0337
22.6000 15.0359 -0.0184
22.6200 15.0493 -0.0158
22.6400 15.0627 -0.0346
22.6600 15.0760 -0.0218
22.6800 15.0893 -0.0232
22.7000 15.1026 -0.0329
22.7200 15.1160 -0.0191
22.7400 15.1294 -0.0267
22.7600 15.1427 -0.0335
22.7800 15.1560 -0.0199
22.8000 15.1694 -0.0283
22.8200 15.1827 -0.0317
22.8400 15.1960 -0.0191
22.8600 15.2093 -0.0268
22.8800 15.2226 -0.0297
22.9000 15.2360 -0.0210
22.9200 15.2494 -0.0302
22.9400 15.2627 -0.0319
22.9600 15.2760 -0.0225
22.9800 15.2893 -0.0297
23.0000 15.3026 -0.0332
23.0200 15.3160 -0.0243
23.0400 15.3293 -0.0293
23.0600 15.3426 -0.0339
23.0800 15.3560 -0.0257
23.1000 15.3694 -0.0309
23.1200 15.3827 -0.0357
23.1400 15.3960 -0.0295
23.1600 15.4094 -0.0276
23.1800 15.4227 -0.0355
23.2000 15.4361 -0.0320
23.2200 15.4494 -0.0319
23.2400 15.4627 -0.0349
23.2600 15.4760 -0.0294
23.2800 15.4893 -0.0332
23.3000 15.5026 -0.0418
23.3200 15.5159 -0.0265
23.3400 15.5292 -0.0366
23.3600 15.5426 -0.0394
23.3800 15.5560 -0.0261
23.4000 15.5693 -0.0331
23.4200 15.5827 -0.0412
23.4400 15.5961 -0.0307
23.4600 15.6094 -0.0363
23.4800 15.6227 -0.0405
23.5000 15.6360 -0.0302
23.5200 15.6494 -0.0367
23.5400 15.6627 -0.0415
23.5600 15.6761 -0.0334
23.5800 15.6894 -0.0357
23.6000 15.7027 -0.0357
23.6200 15.7160 -0.0355
23.6400 15.7293 -0.0388
23.6600 15.7427 -0.0358
23.6800 15.7560 -0.0399
23.7000 15.7693 -0.0349
23.7200 15.7826 -0.0353
23.7400 15.7960 -0.0384
23.7600 15.8093 -0.0393
23.7800 15.8226 -0.0392
23.8000 15.8360 -0.0387
23.8200 15.8494 -0.0390
23.8400 15.8627 -0.0397
23.8600 15.8760 -0.0396
23.8800 15.8894 -0.0368
23.9000 15.9027 -0.0386
23.9200 15.9160 -0.0374
23.9400 15.9293 -0.0361
23.9600 15.9426 -0.0381
23.9800 15.9560 -0.0373
24.0000 15.9693 -0.0418
24.0200 15.9827 -0.0377
24.0400 15.9960 -0.0420
24.0600 16.0093 -0.0369
24.0800 16.0227 -0.0376
24.1000 16.0360 -0.0443
24.1200 16.0494 -0.0378
24.1400 16.0627 -0.0413
24.1600 16.0760 -0.0418
24.1800 16.0893 -0.0378
24.2000 16.1026 -0.0409
24.2200 16.1159 -0.0406
24.2400 16.1292 -0.0381
24.2600 16.1426 -0.0385
24.2800 16.1560 -0.0431
24.3000 16.1694 -0.0321
24.3200 16.1827 -0.0409
24.3400 16.1960 -0.0426
24.3600 16.2094 -0.0330
24.3800 16.2227 -0.0452
24.4000 16.2360 -0.0396
24.4200 16.2493 -0.0336
24.4400 16.2626 -0.0443
24.4600 16.2760 -0.0385
24.4800 16.2893 -0.0319
24.5000 16.3026 -0.0420
24.5200 16.3160 -0.0393
24.5400 16.3294 -0.0303
24.5600 16.3427 -0.0415
24.5800 16.3560 -0.0383
24.6000 16.3694 -0.0289
24.6200 16.3827 -0.0454
24.6400 16.3961 -0.0374
24.6600 16.4094 -0.0317
24.6800 16.4227 -0.0421
24.7000 16.4360 -0.0357
24.7200 16.4494 -0.0319
24.7400 16.4627 -0.0468
24.7600 16.4760 -0.0371
24.7800 16.4893 -0.0334
24.8000 16.5026 -0.0462
24.8200 16.5160 -0.0362
24.8400 16.5293 -0.0341
24.8600 16.5426 -0.0450
24.8800 16.5560 -0.0362
24.9000 16.5694 -0.0411
24.9200 16.5827 -0.0449
24.9400 16.5961 -0.0353
24.9600 16.6094 -0.0412
24.9800 16.6228 -0.0440
25.0000 16.6361 -0.0414
25.0200 16.6494 -0.0446
25.0400 16.6627 -0.0361
25.0600 16.6760 -0.0381
25.0800 16.6893 -0.0435
25.1000 16.7027 -0.0390
25.1200 16.7160 -0.0422
25.1400 16.7293 -0.0407
25.1600 16.7426 -0.0363
25.1800 16.7560 -0.0439
25.2000 16.7693 -0.0405
25.2200 16.7826 -0.0354
25.2400 16.7960 -0.0461
25.2600 16.8093 -0.0365
25.2800 16.8227 -0.0349
25.3000 16.8360 -0.0479
25.3200 16.8494 -0.0393
25.3400 16.8627 -0.0386
25.3600 16.8761 -0.0468
25.3800 16.8894 -0.0358
25.4000 16.9027 -0.0384
25.4200 16.9160 -0.0415
25.4400 16.9294 -0.0376
25.4600 16.9427 -0.0368
25.4800 16.9560 -0.0439
25.5000 16.9692 -0.0398
25.5200 16.9825 -0.0356
25.5400 16.9959 -0.0423
25.5600 17.0092 -0.0389
25.5800 17.0226 -0.0348
25.6000 17.0360 -0.0429
25.6200 17.0494 -0.0369
25.6400 17.0627 -0.0399
25.6600 17.0760 -0.0436
25.6800 17.0893 -0.0396
25.7000 17.1027 -0.0397
25.7200 17.1160 -0.0441
25.7400 17.1293 -0.0429
25.7600 17.1427 -0.0425
25.7800 17.1560 -0.0389
25.8000 17.1693 -0.0427
25.8200 17.1827 -0.0435
25.8400 17.1960 -0.0399
25.8600 17.2093 -0.0463
25.8800 17.2227 -0.0423
25.9000 17.2360 -0.0418
25.9200 17.2493 -0.0474
25.9400 17.2626 -0.0394
25.9600 17.2760 -0.0439
25.9800 17.2894 -0.0483
26.0000 17.3027 -0.0394
26.0200 17.3161 -0.0439
26.0400 17.3294 -0.0486
26.0600 17.3427 -0.0408
26.0800 17.3561 -0.0485
26.1000 17.3694 -0.0482
26.1200 17.3827 -0.0351
26.1400 17.3960 -0.0486
26.1600 17.4093 -0.0493
26.1800 17.4226 -0.0384
26.2000 17.4359 -0.0523
26.2200 17.4493 -0.0448
26.2400 17.4626 -0.0400
26.2600 17.4760 -0.0529
26.2800 17.4894 -0.0454
26.3000 17.5027 -0.0419
26.3200 17.5160 -0.0503
26.3400 17.5294 -0.0458
26.3600 17.5427 -0.0402
26.3800 17.5560 -0.0506
26.4000 17.5693 -0.0451
26.4200 17.5827 -0.0450
26.4400 17.5961 -0.0496
26.4600 17.6094 -0.0422
26.4800 17.6227 -0.0484
26.5000 17.6361 -0.0468
26.5200 17.6494 -0.0433
26.5400 17.6627 -0.0476
26.5600 17.6760 -0.0506
26.5800 17.6892 -0.0460
26.6000 17.7025 -0.0460
26.6200 17.7159 -0.0537
26.6400 17.7292 -0.0496
26.6600 17.7426 -0.0443
26.6800 17.7560 -0.0467
26.7000 17.7694 -0.0485
26.7200 17.7828 -0.0515
26.7400 17.7961 -0.0505
26.7600 17.8094 -0.0490
26.7800 17.8228 -0.0544
26.8000 17.8361 -0.0507
26.8200 17.8494 -0.0487
26.8400 17.8627 -0.0524
26.8600 17.8760 -0.0515
26.8800 17.8893 -0.0516
26.9000 17.9027 -0.0513
26.9200 17.9160 -0.0494
26.9400 17.9293 -0.0567
26.9600 17.9426 -0.0523
26.9800 17.9559 -0.0447
27.0000 17.9693 -0.0597
27.0200 17.9826 -0.0549
27.0400 17.9960 -0.0492
27.0600 18.0094 -0.0582
27.0800 18.0227 -0.0516
27.1000 18.0361 -0.0482
27.1200 18.0494 -0.0624
27.1400 18.0627 -0.0512
27.1600 18.0760 -0.0511
27.1800 18.0894 -0.0589
27.2000 18.1027 -0.0534
27.2200 18.1160 -0.0522
27.2400 18.1294 -0.0609
27.2600 18.1427 -0.0532
27.2800 18.1560 -0.0585
27.3000 18.1693 -0.0597
27.3200 18.1826 -0.0535
27.3400 18.1960 -0.0597
27.3600 18.2094 -0.0656
27.3800 18.2227 -0.0564
27.4000 18.2360 -0.0580
27.4200 18.2494 -0.0646
27.4400 18.2628 -0.0563
27.4600 18.2761 -0.0626
27.4800 18.2894 -0.0654
27.5000 18.3027 -0.0591
27.5200 18.3160 -0.0614
27.5400 18.3294 -0.0654
27.5600 18.3427 -0.0606
27.5800 18.3560 -0.0623
27.6000 18.3694 -0.0638
27.6200 18.3827 -0.0651
27.6400 18.3960 -0.0618
27.6600 18.4093 -0.0690
27.6800 18.4226 -0.0634
27.7000 18.4360 -0.0604
27.7200 18.4493 -0.0701
27.7400 18.4627 -0.0653
27.7600 18.4760 -0.0579
27.7800 18.4894 -0.0753
27.8000 18.5027 -0.0660
27.8200 18.5161 -0.0545
27.8400 18.5294 -0.0758
27.8600 18.5427 -0.0649
27.8800 18.5561 -0.0541
27.9000 18.5694 -0.0783
27.9200 18.5826 -0.0628
27.9400 18.5959 -0.0553
27.9600 18.6093 -0.0766
27.9800 18.6227 -0.0596
28.0000 18.6360 -0.0574
28.0200 18.6493 -0.0810
28.0400 18.6626 -0.0551
28.0600 18.6760 -0.0602
28.0800 18.6893 -0.0825
28.1000 18.7026 -0.0609
28.1200 18.7160 -0.0619
28.1400 18.7293 -0.0811
28.1600 18.7427 -0.0618
28.1800 18.7561 -0.0622
28.2000 18.7694 -0.0783
28.2200 18.7827 -0.0623
28.2400 18.7961 -0.0664
28.2600 18.8094 -0.0749
28.2800 18.8227 -0.0600
28.3000 18.8360 -0.0616
28.3200 18.8494 -0.0767
28.3400 18.8627 -0.0643
28.3600 18.8760 -0.0598
28.3800 18.8893 -0.0773
28.4000 18.9026 -0.0652
28.4200 18.9160 -0.0568
28.4400 18.9293 -0.0755
28.4600 18.9427 -0.0660
28.4800 18.9560 -0.0562
28.5000 18.9694 -0.0736
28.5200 18.9827 -0.0659
28.5400 18.9960 -0.0567
28.5600 19.0093 -0.0812
28.5800 19.0227 -0.0674
28.6000 19.0360 -0.0569
28.6200 19.0494 -0.0797
28.6400 19.0627 -0.0674
28.6600 19.0760 -0.0593
28.6800 19.0893 -0.0803
28.7000 19.1027 -0.0698
28.7200 19.1160 -0.0617
28.7400 19.1293 -0.0812
28.7600 19.1426 -0.0681
28.7800 19.1559 -0.0663
28.8000 19.1693 -0.0842
28.8200 19.1826 -0.0669
28.8400 19.1960 -0.0649
28.8600 19.2094 -0.0825
28.8800 19.2228 -0.0716
28.9000 19.2361 -0.0696
28.9200 19.2494 -0.0810
28.9400 19.2628 -0.0685
28.9600 19.2761 -0.0649
28.9800 19.2894 -0.0840
29.0000 19.3026 -0.0754
29.0200 19.3159 -0.0661
29.0400 19.3292 -0.0846
29.0600 19.3426 -0.0685
29.0800 19.3559 -0.0706
29.1000 19.3693 -0.0887
29.1200 19.3827 -0.0709
29.1400 19.3960 -0.0784
29.1600 19.4094 -0.0860
29.1800 19.4227 -0.0714
29.2000 19.4360 -0.0809
29.2200 19.4494 -0.0937
29.2400 19.4627 -0.0729
29.2600 19.4761 -0.0781
29.2800 19.4894 -0.0914
29.3000 19.5027 -0.0733
29.3200 19.5160 -0.0788
29.3400 19.5294 -0.0916
29.3600 19.5427 -0.0745
29.3800 19.5560 -0.0831
29.4000 19.5693 -0.0843
29.4200 19.5827 -0.0804
29.4400 19.5960 -0.0844
29.4600 19.6093 -0.0826
29.4800 19.6226 -0.0784
29.5000 19.6360 -0.0840
29.5200 19.6493 -0.0850
29.5400 19.6627 -0.0781
29.5600 19.6760 -0.0859
29.5800 19.6893 -0.0807
29.6000 19.7027 -0.0791
29.6200 19.7160 -0.0856
29.6400 19.7293 -0.0777
29.6600 19.7427 -0.0803
29.6800 19.7560 -0.0858
29.7000 19.7694 -0.0822
29.7200 19.7827 -0.0820
29.7400 19.7960 -0.0803
29.7600 19.8093 -0.0766
29.7800 19.8227 -0.0852
29.8000 19.8360 -0.0815
29.8200 19.8493 -0.0821
29.8400 19.8626 -0.0862
29.8600 19.8759 -0.0790
29.8800 19.8893 -0.0864
29.9000 19.9026 -0.0851
29.9200 19.9160 -0.0845
29.9400 19.9293 -0.0865
29.9600 19.9427 -0.0890
29.9800 19.9561 -0.0822
30.0000 19.9694 -0.0921
30.0200 19.9827 -0.0845
30.0400 19.9960 -0.0857
30.0600 20.0094 -0.0914
30.0800 20.0227 -0.0836
30.1000 20.0360 -0.0844
30.1200 20.0493 -0.0905
30.1400 20.0627 -0.0847
30.1600 20.0760 -0.0853
30.1800 20.0893 -0.0946
30.2000 20.1026 -0.0831
30.2200 20.1160 -0.0916
30.2400 20.1293 -0.0959
30.2600 20.1427 -0.0849
30.2800 20.1560 -0.0955
30.3000 20.1693 -0.0906
30.3200 20.1827 -0.0903
30.3400 20.1960 -0.0952
30.3600 20.2094 -0.0943
30.3800 20.2227 -0.0959
30.4000 20.2360 -0.0974
30.4200 20.2494 -0.0960
30.4400 20.2627 -0.0985
30.4600 20.2760 -0.0965
30.4800 20.2893 -0.0956
30.5000 20.3027 -0.0994
30.5200 20.3160 -0.0970
30.5400 20.3293 -0.0955
30.5600 20.3426 -0.0990
30.5800 20.3559 -0.0969
30.6000 20.3693 -0.0971
30.6200 20.3826 -0.1008
30.6400 20.3960 -0.0987
30.6600 20.4094 -0.0863
30.6800 20.4228 -0.0532
30.7000 20.4361 -0.0020
30.7200 20.4494 0.0631
30.7400 20.4627 0.1209
30.7600 20.4760 0.1813
30.7800 20.4894 0.2418
30.8000 20.5027 0.2805
30.8200 20.5160 0.3297
30.8400 20.5293 0.3757
30.8600 20.5427 0.3755
30.8800 20.5560 0.3566
30.9000 20.5693 0.3396
30.9200 20.5826 0.3187
30.9400 20.5959 0.3175
30.9600 20.6093 0.3217
30.9800 20.6226 0.3100
31.0000 20.6360 0.3191
31.0200 20.6493 0.3206
31.0400 20.6627 0.3105
31.0600 20.6761 0.3070
31.0800 20.6894 0.3080
31.1000 20.7027 0.3095
31.1200 20.7161 0.3194
31.1400 20.7294 0.3204
31.1600 20.7427 0.3181
31.1800 20.7560 0.3095
31.2000 20.7693 0.3102
31.2200 20.7826 0.3108
31.2400 20.7960 0.3017
31.2600 20.8093 0.3060
31.2800 20.8227 0.3015
31.3000 20.8360 0.2869
31.3200 20.8494 0.3015
31.3400 20.8627 0.3001
31.3600 20.8760 0.2875
31.3800 20.8894 0.3035
31.4000 20.9027 0.2954
31.4200 20.9160 0.2920
31.4400 20.9293 0.3019
31.4600 20.9426 0.2986
31.4800 20.9560 0.2935
31.5000 20.9693 0.2954
31.5200 20.9827 0.2956
31.5400 20.9960 0.2995
31.5600 21.0094 0.3040
31.5800 21.0227 0.2932
31.6000 21.0361 0.2959
31.6200 21.0494 0.3030
31.6400 21.0627 0.2962
31.6600 21.0760 0.3001
31.6800 21.0893 0.2964
31.7000 21.1026 0.2979
31.7200 21.1160 0.2990
31.7400 21.1293 0.2870
31.7600 21.1427 0.2952
31.7800 21.1560 0.2916
31.8000 21.1694 0.2851
31.8200 21.1827 0.2996
31.8400 21.1960 0.2917
31.8600 21.2094 0.2861
31.8800 21.2227 0.2941
31.9000 21.2360 0.2852
31.9200 21.2493 0.2828
31.9400 21.2627 0.2972
31.9600 21.2760 0.2862
31.9800 21.2893 0.2857
32.0000 21.3026 0.2965
32.0200 21.3159 0.2802
32.0400 21.3293 0.2848
32.0600 21.3426 0.2938
32.0800 21.3560 0.2765
32.1000 21.3693 0.2849
32.1200 21.3827 0.2914
32.1400 21.3961 0.2719
32.1600 21.4094 0.2843
32.1800 21.4227 0.2975
32.2000 21.4361 0.2790
32.2200 21.4494 0.2814
32.2400 21.4627 0.2874
32.2600 21.4760 0.2761
32.2800 21.4893 0.2855
32.3000 21.5026 0.2817
32.3200 21.5160 0.2728
32.3400 21.5293 0.2853
32.3600 21.5426 0.2843
32.3800 21.5559 0.2787
32.4000 21.5693 0.2856
32.4200 21.5827 0.2765
32.4400 21.5960 0.2749
32.4600 21.6093 0.2796
32.4800 21.6227 0.2777
32.5000 21.6360 0.2768
32.5200 21.6494 0.2758
32.5400 21.6627 0.2754
32.5600 21.6760 0.2749
32.5800 21.6894 0.2707
32.6000 21.7027 0.2751
32.6200 21.7160 0.2798
32.6400 21.7293 0.2736
32.6600 21.7427 0.2723
32.6800 21.7560 0.2761
32.7000 21.7693 0.2707
32.7200 21.7826 0.2736
32.7400 21.7959 0.2752
32.7600 21.8093 0.2708
32.7800 21.8226 0.2701
32.8000 21.8360 0.2727
32.8200 21.8493 0.2699
32.8400 21.8627 0.2702
32.8600 21.8761 0.2684
32.8800 21.8894 0.2648
32.9000 21.9027 0.2657
32.9200 21.9160 0.2705
32.9400 21.9294 0.2675
32.9600 21.9427 0.2637
32.9800 21.9560 0.2676
33.0000 21.9693 0.2676
33.0200 21.9827 0.2682
33.0400 21.9960 0.2669
33.0600 22.0094 0.2670
33.0800 22.0227 0.2697
33.1000 22.0360 0.2670
33.1200 22.0493 0.2648
33.1400 22.0627 0.2650
33.1600 22.0760 0.2594
33.1800 22.0893 0.2662
33.2000 22.1027 0.2648
33.2200 22.1161 0.2623
33.2400 22.1294 0.2614
33.2600 22.1427 0.2666
33.2800 22.1560 0.2615
33.3000 22.1694 0.2648
33.3200 22.1827 0.2649
33.3400 22.1960 0.2568
33.3600 22.2093 0.2570
33.3800 22.2226 0.2627
33.4000 22.2360 0.2538
33.4200 22.2493 0.2564
33.4400 22.2626 0.2637
33.4600 22.2760 0.2479
33.4800 22.2893 0.2600
33.5000 22.3026 0.2592
33.5200 22.3160 0.2444
33.5400 22.3293 0.2658
33.5600 22.3427 0.2548
33.5800 22.3560 0.2446
33.6000 22.3694 0.2593
33.6200 22.3827 0.2530
33.6400 22.3960 0.2473
33.6600 22.4094 0.2600
33.6800 22.4227 0.2482
33.7000 22.4361 0.2460
33.7200 22.4494 0.2575
33.7400 22.4627 0.2475
33.7600 22.4761 0.2501
33.7800 22.4894 0.2567
33.8000 22.5026 0.2453
33.8200 22.5159 0.2486
33.8400 22.5292 0.2542
33.8600 22.5425 0.2455
33.8800 22.5559 0.2498
33.9000 22.5692 0.2521
33.9200 22.5827 0.2518
33.9400 22.5961 0.2460
33.9600 22.6094 0.2518
33.9800 22.6228 0.2499
34.0000 22.6361 0.2459
34.0200 22.6495 0.2498
34.0400 22.6628 0.2508
34.0600 22.6761 0.2466
34.0800 22.6894 0.2513
34.1000 22.7027 0.2496
34.1200 22.7160 0.2487
34.1400 22.7293 0.2485
34.1600 22.7426 0.2489
34.1800 22.7559 0.2453
34.2000 22.7693 0.2478
34.2200 22.7826 0.2433
34.2400 22.7960 0.2460
34.2600 22.8093 0.2512
34.2800 22.8227 0.2416
34.3000 22.8361 0.2429
34.3200 22.8494 0.2469
34.3400 22.8628 0.2413
34.3600 22.8761 0.2422
34.3800 22.8894 0.2481
34.4000 22.9028 0.2450
34.4200 22.9160 0.2415
34.4400 22.9293 0.2437
34.4600 22.9426 0.2415
34.4800 22.9560 0.2497
34.5000 22.9693 0.2402
34.5200 22.9826 0.2356
34.5400 22.9959 0.2455
34.5600 23.0093 0.2399
34.5800 23.0226 0.2405
34.6000 23.0360 0.2435
34.6200 23.0493 0.2385
34.6400 23.0627 0.2366
34.6600 23.0760 0.2452
34.6800 23.0894 0.2345
34.7000 23.1027 0.2386
34.7200 23.1160 0.2448
34.7400 23.1294 0.2321
34.7600 23.1427 0.2388
34.7800 23.1560 0.2437
34.8000 23.1693 0.2301
34.8200 23.1827 0.2386
34.8400 23.1960 0.2410
34.8600 23.2094 0.2282
34.8800 23.2226 0.2372
34.9000 23.2359 0.2427
34.9200 23.2493 0.2289
34.9400 23.2626 0.2367
34.9600 23.2760 0.2394
34.9800 23.2893 0.2299
35.0000 23.3027 0.2371
35.0200 23.3161 0.2381
35.0400 23.3294 0.2260
35.0600 23.3427 0.2324
35.0800 23.3560 0.2356
35.1000 23.3694 0.2298
35.1200 23.3827 0.2309
35.1400 23.3960 0.2364
35.1600 23.4093 0.2309
35.1800 23.4226 0.2325
35.2000 23.4360 0.2373
35.2200 23.4494 0.2298
35.2400 23.4627 0.2338
35.2600 23.4760 0.2364
35.2800 23.4893 0.2322
35.3000 23.5026 0.2268
35.3200 23.5159 0.2332
35.3400 23.5293 0.2332
35.3600 23.5426 0.2266
35.3800 23.5560 0.2340
35.4000 23.5694 0.2255
35.4200 23.5827 0.2244
35.4400 23.5960 0.2377
35.4600 23.6094 0.2271
35.4800 23.6228 0.2267
35.5000 23.6361 0.2376
35.5200 23.6494 0.2226
35.5400 23.6627 0.2300
35.5600 23.6760 0.2389
35.5800 23.6894 0.2214
35.6000 23.7027 0.2264
35.6200 23.7160 0.2372
35.6400 23.7293 0.2207
35.6600 23.7426 0.2227
35.6800 23.7560 0.2390
35.7000 23.7693 0.2194
35.7200 23.7827 0.2266
35.7400 23.7960 0.2349
35.7600 23.8094 0.2185
35.7800 23.8227 0.2281
35.8000 23.8360 0.2322
35.8200 23.8494 0.2231
35.8400 23.8627 0.2281
35.8600 23.8760 0.2281
35.8800 23.8893 0.2219
35.9000 23.9027 0.2311
35.9200 23.9160 0.2248
35.9400 23.9293 0.2244
35.9600 23.9426 0.2238
35.9800 23.9559 0.2250
36.0000 23.9692 0.2265
36.0200 23.9826 0.2234
36.0400 23.9959 0.2212
36.0600 24.0093 0.2192
36.0800 24.0227 0.2279
36.1000 24.0361 0.2212
36.1200 24.0495 0.2181
36.1400 24.0628 0.2205
36.1600 24.0761 0.2212
36.1800 24.0894 0.2234
36.2000 24.1027 0.2144
36.2200 24.1160 0.2199
36.2400 24.1293 0.2259
36.2600 24.1425 0.2173
36.2800 24.1559 0.2185
36.3000 24.1693 0.2237
36.3200 24.1826 0.2145
36.3400 24.1959 0.2181
36.3600 24.2093 0.2216
36.3800 24.2227 0.2130
36.4000 24.2360 0.2194
36.4200 24.2494 0.2194
36.4400 24.2627 0.2132
36.4600 24.2761 0.2213
36.4800 24.2894 0.2178
36.5000 24.3027 0.2064
36.5200 24.3160 0.2205
36.5400 24.3293 0.2194
36.5600 24.3427 0.2033
36.5800 24.3560 0.2232
36.6000 24.3693 0.2185
36.6200 24.3826 0.2044
36.6400 24.3960 0.2232
36.6600 24.4093 0.2124
36.6800 24.4226 0.2069
36.7000 24.4360 0.2176
36.7200 24.4493 0.2124
36.7400 24.4627 0.2030
36.7600 24.4760 0.2186
36.7800 24.4893 0.2115
36.8000 24.5027 0.2018
36.8200 24.5160 0.2136
36.8400 24.5294 0.2048
36.8600 24.5427 0.2061
36.8800 24.5560 0.2122
36.9000 24.5694 0.2080
36.9200 24.5827 0.2109
36.9400 24.5961 0.2043
36.9600 24.6094 0.2119
36.9800 24.6227 0.2146
37.0000 24.6360 0.2061
37.0200 24.6494 0.2103
37.0400 24.6627 0.2150
37.0600 24.6760 0.2064
37.0800 24.6893 0.2118
37.1000 24.7026 0.2170
37.1200 24.7160 0.2052
37.1400 24.7293 0.2109
37.1600 24.7426 0.2131
37.1800 24.7560 0.2004
37.2000 24.7694 0.2140
37.2200 24.7827 0.2106
37.2400 24.7960 0.2028
37.2600 24.8094 0.2123
37.2800 24.8227 0.2076
37.3000 24.8361 0.2033
37.3200 24.8493 0.2146
37.3400 24.8626 0.2087
37.3600 24.8760 0.2035
37.3800 24.8894 0.2150
37.4000 24.9027 0.2025
37.4200 24.9160 0.2018
37.4400 24.9293 0.2164
37.4600 24.9427 0.2006
37.4800 24.9560 0.2042
37.5000 24.9693 0.2146
37.5200 24.9826 0.2000
37.5400 24.9960 0.2034
37.5600 25.0094 0.2122
37.5800 25.0227 0.1996
37.6000 25.0360 0.2045
37.6200 25.0493 0.2128
37.6400 25.0627 0.1961
37.6600 25.0761 0.2001
37.6800 25.0894 0.2124
37.7000 25.1027 0.1977
37.7200 25.1160 0.1998
37.7400 25.1294 0.2088
37.7600 25.1427 0.1928
37.7800 25.1560 0.2002
37.8000 25.1693 0.2083
37.8200 25.1826 0.1957
37.8400 25.1960 0.1978
37.8600 25.2093 0.2072
37.8800 25.2227 0.1943
37.9000 25.2361 0.1976
37.9200 25.2494 0.2026
37.9400 25.2628 0.1921
37.9600 25.2761 0.1969
37.9800 25.2894 0.2044
38.0000 25.3027 0.1911
38.0200 25.3161 0.1944
38.0400 25.3294 0.2033
38.0600 25.3427 0.1935
38.0800 25.3560 0.1934
38.1000 25.3694 0.2053
38.1200 25.3827 0.1917
38.1400 25.3959 0.1918
38.1600 25.4093 0.2089
38.1800 25.4226 0.1895
38.2000 25.4360 0.1932
38.2200 25.4493 0.2027
38.2400 25.4626 0.1863
38.2600 25.4759 0.1964
38.2800 25.4893 0.2054
38.3000 25.5027 0.1867
38.3200 25.5160 0.1958
38.3400 25.5294 0.2039
38.3600 25.5427 0.1875
38.3800 25.5561 0.1922
38.4000 25.5693 0.2095
38.4200 25.5826 0.1851
38.4400 25.5960 0.1907
38.4600 25.6093 0.2030
38.4800 25.6227 0.1824
38.5000 25.6360 0.1919
38.5200 25.6493 0.2023
38.5400 25.6627 0.1814
38.5600 25.6760 0.1880
38.5800 25.6894 0.2018
38.6000 25.7027 0.1784
38.6200 25.7160 0.1910
38.6400 25.7293 0.1956
38.6600 25.7426 0.1738
38.6800 25.7559 0.1957
38.7000 25.7693 0.1930
38.7200 25.7826 0.1728
38.7400 25.7960 0.1892
38.7600 25.8094 0.1905
38.7800 25.8227 0.1798
38.8000 25.8361 0.1889
38.8200 25.8494 0.1871
38.8400 25.8627 0.1816
38.8600 25.8760 0.1943
38.8800 25.8893 0.1884
38.9000 25.9026 0.1805
38.9200 25.9160 0.1900
38.9400 25.9293 0.1860
38.9600 25.9426 0.1829
38.9800 25.9560 0.1889
39.0000 25.9694 0.1860
39.0200 25.9827 0.1854
39.0400 25.9960 0.1878
39.0600 26.0093 0.1919
39.0800 26.0227 0.1870
39.1000 26.0360 0.1814
39.1200 26.0494 0.1888
39.1400 26.0627 0.1877
39.1600 26.0760 0.1815
39.1800 26.0894 0.1902
39.2000 26.1027 0.1858
39.2200 26.1160 0.1793
39.2400 26.1293 0.1901
39.2600 26.1426 0.1885
39.2800 26.1559 0.1764
39.3000 26.1693 0.1923
39.3200 26.1826 0.1837
39.3400 26.1960 0.1776
39.3600 26.2094 0.1944
39.3800 26.2228 0.1811
39.4000 26.2361 0.1769
39.4200 26.2494 0.1965
39.4400 26.2628 0.1765
39.4600 26.2761 0.1793
39.4800 26.2894 0.1937
39.5000 26.3027 0.1725
39.5200 26.3160 0.1774
39.5400 26.3293 0.1952
39.5600 26.3426 0.1717
39.5800 26.3559 0.1805
39.6000 26.3692 0.1904
39.6200 26.3826 0.1709
39.6400 26.3960 0.1791
39.6600 26.4094 0.1877
39.6800 26.4227 0.1760
39.7000 26.4360 0.1819
39.7200 26.4494 0.1823
39.7400 26.4627 0.1726
39.7600 26.4760 0.1833
39.7800 26.4894 0.1769
39.8000 26.5027 0.1753
39.8200 26.5161 0.1816
39.8400 26.5294 0.1751
39.8600 26.5427 0.1762
39.8800 26.5560 0.1796
39.9000 26.5693 0.1749
39.9200 26.5827 0.1785
39.9400 26.5960 0.1747
39.9600 26.6092 0.1779
39.9800 26.6226 0.1752
40.0000 26.6359 0.1782
40.0200 26.6493 0.1745
40.0400 26.6626 0.1712
40.0600 26.6760 0.1788
40.0800 26.6894 0.1729
40.1000 26.7028 0.1702
40.1200 26.7160 0.1786
40.1400 26.7293 0.1745
40.1600 26.7427 0.1687
40.1800 26.7560 0.1751
40.2000 26.7694 0.1717
40.2200 26.7827 0.1736
40.2400 26.7960 0.1760
40.2600 26.8093 0.1732
40.2800 26.8227 0.1746
40.3000 26.8360 0.1713
40.3200 26.8493 0.1725
40.3400 26.8626 0.1725
40.3600 26.8760 0.1696
40.3800 26.8893 0.1714
40.4000 26.9026 0.1757
40.4200 26.9160 0.1701
40.4400 26.9294 0.1685
40.4600 26.9427 0.1754
40.4800 26.9560 0.1706
40.5000 26.9694 0.1671
40.5200 26.9827 0.1762
40.5400 26.9961 0.1642
40.5600 27.0094 0.1670
40.5800 27.0227 0.1730
40.6000 27.0360 0.1692
40.6200 27.0493 0.1711
40.6400 27.0627 0.1698
40.6600 27.0760 0.1687
40.6800 27.0893 0.1695
40.7000 27.1026 0.1702
40.7200 27.1160 0.1670
40.7400 27.1293 0.1655
40.7600 27.1427 0.1685
40.7800 27.1560 0.1724
40.8000 27.1693 0.1672
40.8200 27.1827 0.1667
40.8400 27.1960 0.1677
40.8600 27.2093 0.1660
40.8800 27.2227 0.1658
40.9000 27.2361 0.1695
40.9200 27.2494 0.1558
40.9400 27.2627 0.1709
40.9600 27.2761 0.1675
40.9800 27.2894 0.1566
41.0000 27.3027 0.1708
41.0200 27.3160 0.1640
41.0400 27.3293 0.1548
41.0600 27.3426 0.1747
41.0800 27.3559 0.1634
41.1000 27.3692 0.1533
41.1200 27.3826 0.1699
41.1400 27.3959 0.1625
41.1600 27.4094 0.1528
41.1800 27.4228 0.1701
41.2000 27.4361 0.1636
41.2200 27.4494 0.1530
41.2400 27.4628 0.1665
41.2600 27.4761 0.1595
41.2800 27.4894 0.1521
41.3000 27.5027 0.1639
41.3200 27.5160 0.1594
41.3400 27.5293 0.1537
41.3600 27.5427 0.1651
41.3800 27.5560 0.1537
41.4000 27.5693 0.1575
41.4200 27.5826 0.1638
41.4400 27.5960 0.1499
41.4600 27.6093 0.1589
41.4800 27.6226 0.1608
41.5000 27.6360 0.1520
41.5200 27.6494 0.1576
41.5400 27.6627 0.1590
41.5600 27.6761 0.1529
41.5800 27.6894 0.1552
41.6000 27.7027 0.1601
41.6200 27.7161 0.1538
41.6400 27.7294 0.1574
41.6600 27.7427 0.1557
41.6800 27.7560 0.1592
41.7000 27.7693 0.1581
41.7200 27.7827 0.1525
41.7400 27.7960 0.1570
41.7600 27.8093 0.1577
41.7800 27.8226 0.1565
41.8000 27.8360 0.1556
41.8200 27.8493 0.1520
41.8400 27.8627 0.1558
41.8600 27.8760 0.1560
41.8800 27.8894 0.1537
41.9000 27.9028 0.1578
41.9200 27.9161 0.1517
41.9400 27.9294 0.1538
41.9600 27.9427 0.1582
41.9800 27.9561 0.1511
42.0000 27.9694 0.1500
42.0200 27.9827 0.1570
42.0400 27.9960 0.1554
42.0600 28.0093 0.1507
42.0800 28.0227 0.1571
42.1000 28.0360 0.1493
42.1200 28.0493 0.1525
42.1400 28.0626 0.1616
42.1600 28.0760 0.1476
42.1800 28.0893 0.1482
42.2000 28.1026 0.1507
42.2200 28.1160 0.1528
42.2400 28.1294 0.1505
42.2600 28.1428 0.1506
42.2800 28.1561 0.1484
42.3000 28.1694 0.1524
42.3200 28.1827 0.1523
42.3400 28.1961 0.1462
42.3600 28.2094 0.1516
42.3800 28.2227 0.1459
42.4000 28.2360 0.1491
42.4200 28.2493 0.1544
42.4400 28.2627 0.1404
42.4600 28.2760 0.1523
42.4800 28.2893 0.1526
42.5000 28.3026 0.1425
42.5200 28.3160 0.1481
42.5400 28.3293 0.1478
42.5600 28.3426 0.1425
42.5800 28.3559 0.1493
42.6000 28.3693 0.1447
42.6200 28.3827 0.1402
42.6400 28.3960 0.1551
42.6600 28.4094 0.1434
42.6800 28.4227 0.1380
42.7000 28.4361 0.1534
42.7200 28.4494 0.1418
42.7400 28.4627 0.1397
42.7600 28.4760 0.1485
42.7800 28.4893 0.1398
42.8000 28.5027 0.1418
42.8200 28.5160 0.1496
42.8400 28.5293 0.1355
42.8600 28.5426 0.1422
42.8800 28.5560 0.1497
42.9000 28.5693 0.1312
42.9200 28.5827 0.1451
42.9400 28.5960 0.1482
42.9600 28.6093 0.1375
42.9800 28.6227 0.1459
43.0000 28.6360 0.1426
43.0200 28.6493 0.1371
43.0400 28.6627 0.1457
43.0600 28.6760 0.1439
43.0800 28.6894 0.1365
43.1000 28.7027 0.1438
43.1200 28.7160 0.1426
43.1400 28.7293 0.1404
43.1600 28.7427 0.1431
43.1800 28.7560 0.1392
43.2000 28.7693 0.1451
43.2200 28.7826 0.1407
43.2400 28.7959 0.1405
43.2600 28.8093 0.1470
43.2800 28.8226 0.1418
43.3000 28.8360 0.1381
43.3200 28.8494 0.1485
43.3400 28.8628 0.1338
43.3600 28.8761 0.1379
43.3800 28.8895 0.1454
43.4000 28.9028 0.1321
43.4200 28.9161 0.1409
43.4400 28.9294 0.1433
43.4600 28.9427 0.1327
43.4800 28.9559 0.1428
43.5000 28.9692 0.1454
43.5200 28.9826 0.1314
43.5400 28.9959 0.1402
43.5600 29.0093 0.1432
43.5800 29.0226 0.1256
43.6000 29.0360 0.1412
43.6200 29.0494 0.1443
43.6400 29.0627 0.1265
43.6600 29.0760 0.1417
43.6800 29.0894 0.1441
43.7000 29.1028 0.1276
43.7200 29.1161 0.1383
43.7400 29.1294 0.1446
43.7600 29.1427 0.1258
43.7800 29.1561 0.1427
43.8000 29.1694 0.1396
43.8200 29.1827 0.1227
43.8400 29.1960 0.1439
43.8600 29.2093 0.1387
43.8800 29.2227 0.1213
43.9000 29.2360 0.1405
43.9200 29.2493 0.1373
43.9400 29.2626 0.1255
43.9600 29.2759 0.1403
43.9800 29.2893 0.1337
44.0000 29.3026 0.1265
44.0200 29.3160 0.1452
44.0400 29.3293 0.1314
44.0600 29.3427 0.1225
44.0800 29.3561 0.1436
44.1000 29.3694 0.1275
44.1200 29.3827 0.1261
44.1400 29.3960 0.1408
44.1600 29.4094 0.1266
44.1800 29.4227 0.1313
44.2000 29.4360 0.1403
44.2200 29.4493 0.1269
44.2400 29.4627 0.1299
44.2600 29.4760 0.1365
44.2800 29.4893 0.1261
44.3000 29.5026 0.1279
44.3200 29.5159 0.1340
44.3400 29.5293 0.1268
44.3600 29.5426 0.1289
44.3800 29.5560 0.1326
44.4000 29.5693 0.1288
44.4200 29.5827 0.1286
44.4400 29.5961 0.1355
44.4600 29.6094 0.1291
44.4800 29.6227 0.1282
44.5000 29.6360 0.1341
44.5200 29.6494 0.1320
44.5400 29.6627 0.1271
44.5600 29.6760 0.1316
44.5800 29.6893 0.1273
44.6000 29.7027 0.1279
44.6200 29.7160 0.1306
44.6400 29.7293 0.1313
44.6600 29.7426 0.1247
44.6800 29.7560 0.1328
44.7000 29.7693 0.1334
44.7200 29.7827 0.1194
44.7400 29.7960 0.1354
44.7600 29.8093 0.1343
44.7800 29.8227 0.1181
44.8000 29.8360 0.1323
44.8200 29.8494 0.1300
44.8400 29.8627 0.1220
44.8600 29.8760 0.1315
44.8800 29.8894 0.1272
44.9000 29.9027 0.1221
44.9200 29.9160 0.1305
44.9400 29.9293 0.1271
44.9600 29.9427 0.1200
44.9800 29.9560 0.1304
45.0000 29.9693 0.1205
45.0200 29.9826 0.1226
45.0400 29.9959 0.1286
45.0600 30.0093 0.1202
45.0800 30.0226 0.1243
45.1000 30.0360 0.1278
45.1200 30.0494 0.1181
45.1400 30.0628 0.1257
45.1600 30.0761 0.1179
45.1800 30.0894 0.1224
45.2000 30.1027 0.1249
45.2200 30.1160 0.1193
45.2400 30.1294 0.1210
45.2600 30.1427 0.1225
45.2800 30.1560 0.1221
45.3000 30.1693 0.1221
45.3200 30.1826 0.1206
45.3400 30.1960 0.1146
45.3600 30.2093 0.1214
45.3800 30.2226 0.1188
45.4000 30.2359 0.1157
45.4200 30.2493 0.1254
45.4400 30.2626 0.1170
45.4600 30.2760 0.1162
45.4800 30.2893 0.1228
45.5000 30.3027 0.1149
45.5200 30.3161 0.1170
45.5400 30.3294 0.1217
45.5600 30.3427 0.1167
45.5800 30.3561 0.1200
45.6000 30.3694 0.1201
45.6200 30.3827 0.1122
45.6400 30.3960 0.1243
45.6600 30.4093 0.1214
45.6800 30.4226 0.1099
45.7000 30.4360 0.1200
45.7200 30.4493 0.1206
45.7400 30.4626 0.1137
45.7600 30.4760 0.1209
45.7800 30.4894 0.1184
45.8000 30.5027 0.1137
45.8200 30.5160 0.1215
45.8400 30.5293 0.1154
45.8600 30.5427 0.1137
45.8800 30.5560 0.1193
45.9000 30.5693 0.1163
45.9200 30.5826 0.1153
45.9400 30.5959 0.1148
45.9600 30.6093 0.1149
45.9800 30.6227 0.1143
46.0000 30.6360 0.1183
46.0200 30.6494 0.1102
46.0400 30.6627 0.1132
46.0600 30.6761 0.1173
46.0800 30.6894 0.1119
46.1000 30.7027 0.1169
46.1200 30.7160 0.1181
46.1400 30.7293 0.1080
46.1600 30.7426 0.1146
46.1800 30.7560 0.1153
46.2000 30.7693 0.1130
46.2200 30.7827 0.1173
46.2400 30.7960 0.1153
46.2600 30.8094 0.1060
46.2800 30.8227 0.1194
46.3000 30.8360 0.1136
46.3200 30.8494 0.1095
46.3400 30.8627 0.1188
46.3600 30.8760 0.1104
46.3800 30.8894 0.1109
46.4000 30.9027 0.1204
46.4200 30.9161 0.1108
46.4400 30.9294 0.1089
46.4600 30.9427 0.1185
46.4800 30.9559 0.1106
46.5000 30.9693 0.1097
46.5200 30.9826 0.1170
46.5400 30.9960 0.1096
46.5600 31.0093 0.1084
46.5800 31.0227 0.1157
46.6000 31.0361 0.1067
46.6200 31.0494 0.1108
46.6400 31.0627 0.1162
46.6600 31.0760 0.1085
46.6800 31.0894 0.1080
46.7000 31.1027 0.1182
46.7200 31.1160 0.1095
46.7400 31.1293 0.1125
46.7600 31.1427 0.1158
46.7800 31.1560 0.1038
46.8000 31.1693 0.1106
46.8200 31.1826 0.1154
46.8400 31.1960 0.1015
46.8600 31.2093 0.1142
46.8800 31.2227 0.1131
46.9000 31.2360 0.1005
46.9200 31.2493 0.1099
46.9400 31.2627 0.1129
46.9600 31.2760 0.1008
46.9800 31.2894 0.1030
47.0000 31.3027 0.1129
47.0200 31.3160 0.1045
47.0400 31.3294 0.1047
47.0600 31.3427 0.1111
47.0800 31.3561 0.1026
47.1000 31.3693 0.1042
47.1200 31.3827 0.1101
47.1400 31.3960 0.1034
47.1600 31.4093 0.1018
47.1800 31.4226 0.1125
47.2000 31.4359 0.1034
47.2200 31.4493 0.1018
47.2400 31.4626 0.1139
47.2600 31.4760 0.0978
47.2800 31.4893 0.1005
47.3000 31.5027 0.1146
47.3200 31.5160 0.0998
47.3400 31.5294 0.0998
47.3600 31.5427 0.1148
47.3800 31.5560 0.1006
47.4000 31.5694 0.0995
47.4200 31.5827 0.1107
47.4400 31.5960 0.0961
47.4600 31.6093 0.0985
47.4800 31.6227 0.1134
47.5000 31.6360 0.0954
47.5200 31.6493 0.0984
47.5400 31.6626 0.1094
47.5600 31.6760 0.1004
47.5800 31.6893 0.0983
47.6000 31.7027 0.1060
47.6200 31.7160 0.0987
47.6400 31.7293 0.0973
47.6600 31.7427 0.1026
47.6800 31.7561 0.0990
47.7000 31.7694 0.0960
47.7200 31.7827 0.1039
47.7400 31.7960 0.1004
47.7600 31.8094 0.0953
47.7800 31.8227 0.1007
47.8000 31.8360 0.0987
47.8200 31.8493 0.0938
47.8400 31.8626 0.1017
47.8600 31.8760 0.1037
47.8800 31.8893 0.0917
47.9000 31.9026 0.0998
47.9200 31.9160 0.1013
47.9400 31.9293 0.0880
47.9600 31.9427 0.1012
47.9800 31.9560 0.1003
48.0000 31.9693 0.0892
48.0200 31.9826 0.0992
48.0400 31.9960 0.0956
48.0600 32.0094 0.0923
48.0800 32.0227 0.1015
48.1000 32.0360 0.0977
48.1200 32.0493 0.0879
48.1400 32.0627 0.1027
48.1600 32.0761 0.0950
48.1800 32.0894 0.0888
48.2000 32.1027 0.1029
48.2200 32.1161 0.0922
48.2400 32.1294 0.0902
48.2600 32.1426 0.1026
48.2800 32.1559 0.0955
48.3000 32.1692 0.0936
48.3200 32.1825 0.0988
48.3400 32.1959 0.0927
48.3600 32.2092 0.0911
48.3800 32.2226 0.1016
48.4000 32.2360 0.0923
48.4200 32.2494 0.0941
48.4400 32.2627 0.0965
48.4600 32.2761 0.0948
48.4800 32.2894 0.0934
48.5000 32.3028 0.0947
48.5200 32.3161 0.0955
48.5400 32.3294 0.0894
48.5600 32.3427 0.0974
48.5800 32.3560 0.0985
48.6000 32.3693 0.0877
48.6200 32.3826 0.0955
48.6400 32.3959 0.0934
48.6600 32.4093 0.0839
48.6800 32.4226 0.0957
48.7000 32.4360 0.0973
48.7200 32.4493 0.0794
48.7400 32.4627 0.0974
48.7600 32.4760 0.0954
48.7800 32.4894 0.0771
48.8000 32.5027 0.0991
48.8200 32.5161 0.0976
48.8400 32.5294 0.0774
48.8600 32.5427 0.0973
48.8800 32.5561 0.0949
48.9000 32.5693 0.0757
48.9200 32.5827 0.0998
48.9400 32.5960 0.0916
48.9600 32.6093 0.0779
48.9800 32.6226 0.0960
49.0000 32.6360 0.0962
49.0200 32.6493 0.0786
49.0400 32.6627 0.0910
49.0600 32.6760 0.0933
49.0800 32.6893 0.0830
49.1000 32.7027 0.0908
49.1200 32.7160 0.0940
49.1400 32.7294 0.0799
49.1600 32.7427 0.0872
49.1800 32.7560 0.0918
49.2000 32.7694 0.0849
49.2200 32.7827 0.0950
49.2400 32.7960 0.0907
49.2600 32.8093 0.0843
49.2800 32.8227 0.0890
49.3000 32.8360 0.0894
49.3200 32.8494 0.0846
49.3400 32.8626 0.0877
49.3600 32.8759 0.0907
49.3800 32.8893 0.0835
49.4000 32.9026 0.0875
49.4200 32.9160 0.0870
49.4400 32.9293 0.0860
49.4600 32.9427 0.0807
49.4800 32.9561 0.0897
49.5000 32.9694 0.0842
49.5200 32.9827 0.0803
49.5400 32.9960 0.0922
49.5600 33.0094 0.0850
49.5800 33.0227 0.0787
49.6000 33.0360 0.0881
49.6200 33.0493 0.0842
49.6400 33.0626 0.0779
49.6600 33.0760 0.0910
49.6800 33.0893 0.0798
49.7000 33.1026 0.0745
49.7200 33.1160 0.0928
49.7400 33.1293 0.0789
49.7600 33.1426 0.0781
49.7800 33.1560 0.0928
49.8000 33.1693 0.0739
49.8200 33.1826 0.0781
49.8400 33.1960 0.0915
49.8600 33.2094 0.0689
49.8800 33.2227 0.0777
49.9000 33.2360 0.0915
49.9200 33.2494 0.0699
49.9400 33.2628 0.0808
49.9600 33.2761 0.0851
49.9800 33.2894 0.0735
50.0000 33.3027 0.0845
50.0200 33.3160 0.0857
50.0400 33.3294 0.0696
50.0600 33.3427 0.0840
50.0800 33.3560 0.0883
50.1000 33.3693 0.0706
50.1200 33.3826 0.0815
50.1400 33.3960 0.0865
50.1600 33.4093 0.0718
50.1800 33.4226 0.0856
50.2000 33.4360 0.0839
50.2200 33.4494 0.0740
50.2400 33.4627 0.0846
50.2600 33.4760 0.0802
50.2800 33.4894 0.0752
50.3000 33.5027 0.0822
50.3200 33.5161 0.0782
50.3400 33.5294 0.0728
50.3600 33.5427 0.0854
50.3800 33.5560 0.0771
50.4000 33.5694 0.0727
50.4200 33.5827 0.0829
50.4400 33.5960 0.0803
50.4600 33.6093 0.0746
50.4800 33.6226 0.0751
50.5000 33.6360 0.0783
50.5200 33.6493 0.0742
50.5400 33.6626 0.0761
50.5600 33.6760 0.0833
50.5800 33.6894 0.0685
50.6000 33.7028 0.0756
50.6200 33.7161 0.0839
50.6400 33.7294 0.0701
50.6600 33.7427 0.0763
50.6800 33.7560 0.0856
50.7000 33.7693 0.0655
50.7200 33.7825 0.0788
50.7400 33.7959 0.0827
50.7600 33.8093 0.0616
50.7800 33.8226 0.0799
50.8000 33.8360 0.0831
50.8200 33.8493 0.0642
50.8400 33.8627 0.0810
50.8600 33.8760 0.0803
50.8800 33.8894 0.0639
50.9000 33.9027 0.0772
50.9200 33.9161 0.0770
50.9400 33.9294 0.0644
50.9600 33.9427 0.0788
50.9800 33.9560 0.0760
51.0000 33.9693 0.0646
51.0200 33.9826 0.0796
51.0400 33.9960 0.0651
51.0600 34.0093 0.0665
51.0800 34.0226 0.0800
51.1000 34.0360 0.0682
51.1200 34.0493 0.0656
51.1400 34.0626 0.0728
51.1600 34.0759 0.0687
51.1800 34.0893 0.0694
51.2000 34.1026 0.0729
51.2200 34.1160 0.0686
51.2400 34.1293 0.0682
51.2600 34.1427 0.0722
51.2800 34.1560 0.0647
51.3000 34.1694 0.0730
51.3200 34.1827 0.0701
51.3400 34.1960 0.0659
51.3600 34.2094 0.0720
51.3800 34.2227 0.0731
51.4000 34.2361 0.0636
51.4200 34.2494 0.0697
51.4400 34.2627 0.0706
51.4600 34.2760 0.0632
51.4800 34.2894 0.0696
51.5000 34.3027 0.0687
51.5200 34.3160 0.0639
51.5400 34.3293 0.0708
51.5600 34.3426 0.0705
51.5800 34.3560 0.0636
51.6000 34.3693 0.0680
51.6200 34.3826 0.0683
51.6400 34.3960 0.0649
51.6600 34.4094 0.0677
51.6800 34.4227 0.0665
51.7000 34.4361 0.0651
51.7200 34.4494 0.0686
51.7400 34.4627 0.0640
51.7600 34.4761 0.0615
51.7800 34.4893 0.0704
51.8000 34.5026 0.0665
51.8200 34.5160 0.0598
51.8400 34.5293 0.0696
51.8600 34.5427 0.0654
51.8800 34.5560 0.0608
51.9000 34.5693 0.0647
51.9200 34.5826 0.0699
51.9400 34.5960 0.0611
51.9600 34.6093 0.0670
51.9800 34.6226 0.0659
52.0000 34.6360 0.0618
52.0200 34.6493 0.0654
52.0400 34.6627 0.0660
52.0600 34.6760 0.0597
52.0800 34.6894 0.0668
52.1000 34.7027 0.0640
52.1200 34.7161 0.0606
52.1400 34.7294 0.0679
52.1600 34.7427 0.0627
52.1800 34.7560 0.0592
52.2000 34.7693 0.0664
52.2200 34.7826 0.0587
52.2400 34.7959 0.0628
52.2600 34.8092 0.0684
52.2800 34.8226 0.0609
52.3000 34.8360 0.0630
52.3200 34.8493 0.0645
52.3400 34.8627 0.0582
52.3600 34.8760 0.0651
52.3800 34.8894 0.0638
52.4000 34.9028 0.0573
52.4200 34.9161 0.0658
52.4400 34.9294 0.0617
52.4600 34.9427 0.0589
52.4800 34.9561 0.0653
52.5000 34.9694 0.0584
52.5200 34.9827 0.0586
52.5400 34.9960 0.0634
52.5600 35.0093 0.0558
52.5800 35.0227 0.0586
52.6000 35.0360 0.0625
52.6200 35.0493 0.0565
52.6400 35.0626 0.0587
52.6600 35.0760 0.0580
52.6800 35.0893 0.0521
52.7000 35.1026 0.0638
52.7200 35.1160 0.0546
52.7400 35.1294 0.0549
52.7600 35.1427 0.0620
52.7800 35.1560 0.0555
52.8000 35.1694 0.0545
52.8200 35.1827 0.0596
52.8400 35.1961 0.0532
52.8600 35.2094 0.0530
52.8800 35.2226 0.0609
52.9000 35.2359 0.0547
52.9200 35.2493 0.0550
52.9400 35.2627 0.0589
52.9600 35.2760 0.0494
52.9800 35.2893 0.0626
53.0000 35.3027 0.0617
53.0200 35.3161 0.0519
53.0400 35.3294 0.0547
53.0600 35.3427 0.0599
53.0800 35.3560 0.0515
53.1000 35.3694 0.0507
53.1200 35.3827 0.0617
53.1400 35.3960 0.0522
53.1600 35.4093 0.0540
53.1800 35.4226 0.0589
53.2000 35.4360 0.0547
53.2200 35.4494 0.0536
53.2400 35.4627 0.0586
53.2600 35.4760 0.0545
53.2800 35.4894 0.0499
53.3000 35.5028 0.0582
53.3200 35.5160 0.0504
53.3400 35.5293 0.0517
53.3600 35.5426 0.0605
53.3800 35.5560 0.0482
53.4000 35.5693 0.0517
53.4200 35.5826 0.0604
53.4400 35.5960 0.0531
53.4600 35.6093 0.0453
53.4800 35.6227 0.0587
53.5000 35.6360 0.0467
53.5200 35.6493 0.0483
53.5400 35.6627 0.0559
53.5600 35.6761 0.0466
53.5800 35.6894 0.0508
53.6000 35.7027 0.0569
53.6200 35.7160 0.0470
53.6400 35.7294 0.0493
53.6600 35.7427 0.0548
53.6800 35.7560 0.0469
53.7000 35.7693 0.0484
53.7200 35.7826 0.0558
53.7400 35.7960 0.0441
53.7600 35.8093 0.0482
53.7800 35.8226 0.0518
53.8000 35.8360 0.0410
53.8200 35.8494 0.0508
53.8400 35.8627 0.0492
53.8600 35.8760 0.0396
53.8800 35.8894 0.0508
53.9000 35.9027 0.0450
53.9200 35.9161 0.0408
53.9400 35.9294 0.0496
53.9600 35.9427 0.0465
53.9800 35.9560 0.0434
54.0000 35.9693 0.0528
54.0200 35.9827 0.0448
54.0400 35.9960 0.0414
54.0600 36.0093 0.0496
54.0800 36.0226 0.0423
54.1000 36.0360 0.0459
54.1200 36.0494 0.0420
54.1400 36.0627 0.0401
54.1600 36.0760 0.0473
54.1800 36.0893 0.0423
54.2000 36.1027 0.0406
54.2200 36.1160 0.0478
54.2400 36.1294 0.0415
54.2600 36.1427 0.0418
54.2800 36.1561 0.0450
54.3000 36.1694 0.0422
54.3200 36.1827 0.0422
54.3400 36.1960 0.0471
54.3600 36.2093 0.0384
54.3800 36.2227 0.0436
54.4000 36.2360 0.0415
54.4200 36.2493 0.0338
54.4400 36.2626 0.0481
54.4600 36.2760 0.0409
54.4800 36.2893 0.0333
54.5000 36.3027 0.0464
54.5200 36.3160 0.0386
54.5400 36.3294 0.0384
54.5600 36.3428 0.0445
54.5800 36.3561 0.0373
54.6000 36.3694 0.0364
54.6200 36.3827 0.0430
54.6400 36.3960 0.0370
54.6600 36.4094 0.0390
54.6800 36.4227 0.0421
54.7000 36.4360 0.0380
54.7200 36.4493 0.0407
54.7400 36.4627 0.0414
54.7600 36.4760 0.0381
54.7800 36.4893 0.0387
54.8000 36.5026 0.0412
54.8200 36.5160 0.0335
54.8400 36.5293 0.0394
54.8600 36.5426 0.0352
54.8800 36.5560 0.0388
54.9000 36.5694 0.0349
54.9200 36.5827 0.0338
54.9400 36.5960 0.0353
54.9600 36.6094 0.0351
54.9800 36.6227 0.0318
55.0000 36.6361 0.0360
55.0200 36.6494 0.0310
55.0400 36.6627 0.0354
55.0600 36.6760 0.0369
55.0800 36.6893 0.0306
55.1000 36.7026 0.0332
55.1200 36.7160 0.0365
55.1400 36.7293 0.0272
55.1600 36.7426 0.0364
55.1800 36.7560 0.0351
55.2000 36.7693 0.0244
55.2200 36.7826 0.0383
55.2400 36.7960 0.0383
55.2600 36.8093 0.0203
55.2800 36.8227 0.0358
55.3000 36.8360 0.0374
55.3200 36.8493 0.0210
55.3400 36.8627 0.0369
55.3600 36.8761 0.0325
55.3800 36.8894 0.0225
55.4000 36.9027 0.0378
55.4200 36.9161 0.0276
55.4400 36.9294 0.0277
55.4600 36.9427 0.0355
55.4800 36.9560 0.0253
55.5000 36.9693 0.0306
55.5200 36.9826 0.0299
55.5400 36.9958 0.0265
55.5600 37.0092 0.0313
55.5800 37.0225 0.0297
55.6000 37.0359 0.0263
55.6200 37.0493 0.0295
55.6400 37.0627 0.0272
55.6600 37.0761 0.0268
55.6800 37.0894 0.0297
55.7000 37.1028 0.0274
55.7200 37.1161 0.0257
55.7400 37.1294 0.0278
55.7600 37.1427 0.0232
55.7800 37.1560 0.0312
55.8000 37.1693 0.0260
55.8200 37.1827 0.0221
55.8400 37.1960 0.0290
55.8600 37.2093 0.0249
55.8800 37.2226 0.0278
55.9000 37.2360 0.0266
55.9200 37.2493 0.0255
55.9400 37.2626 0.0263
55.9600 37.2760 0.0230
55.9800 37.2893 0.0229
56.0000 37.3027 0.0286
56.0200 37.3161 0.0231
56.0400 37.3294 0.0249
56.0600 37.3427 0.0287
56.0800 37.3561 0.0234
56.1000 37.3694 0.0235
56.1200 37.3827 0.0276
56.1400 37.3960 0.0198
56.1600 37.4093 0.0268
56.1800 37.4227 0.0302
56.2000 37.4360 0.0160
56.2200 37.4493 0.0274
56.2400 37.4626 0.0255
56.2600 37.4760 0.0129
56.2800 37.4893 0.0258
56.3000 37.5027 0.0229
56.3200 37.5160 0.0166
56.3400 37.5293 0.0248
56.3600 37.5427 0.0236
56.3800 37.5560 0.0171
56.4000 37.5694 0.0274
56.4200 37.5827 0.0196
56.4400 37.5960 0.0193
56.4600 37.6094 0.0239
56.4800 37.6227 0.0172
56.5000 37.6360 0.0202
56.5200 37.6493 0.0250
56.5400 37.6627 0.0197
56.5600 37.6760 0.0194
56.5800 37.6893 0.0228
56.6000 37.7026 0.0232
56.6200 37.7160 0.0208
56.6400 37.7293 0.0196
56.6600 37.7427 0.0213
56.6800 37.7560 0.0178
56.7000 37.7693 0.0199
56.7200 37.7827 0.0232
56.7400 37.7961 0.0210
56.7600 37.8094 0.0161
56.7800 37.8227 0.0183
56.8000 37.8361 0.0243
56.8200 37.8494 0.0152
56.8400 37.8627 0.0180
56.8600 37.8760 0.0207
56.8800 37.8893 0.0181
56.9000 37.9027 0.0188
56.9200 37.9160 0.0156
56.9400 37.9293 0.0176
56.9600 37.9426 0.0165
56.9800 37.9560 0.0175
57.0000 37.9693 0.0146
57.0200 37.9826 0.0217
57.0400 37.9960 0.0176
57.0600 38.0093 0.0159
57.0800 38.0227 0.0186
57.1000 38.0361 0.0126
57.1200 38.0494 0.0176
57.1400 38.0627 0.0175
57.1600 38.0761 0.0120
57.1800 38.0894 0.0183
57.2000 38.1028 0.0121
57.2200 38.1160 0.0141
57.2400 38.1293 0.0220
57.2600 38.1427 0.0146
57.2800 38.1560 0.0075
57.3000 38.1693 0.0173
57.3200 38.1826 0.0095
57.3400 38.1959 0.0134
57.3600 38.2093 0.0225
57.3800 38.2226 0.0092
57.4000 38.2360 0.0096
57.4200 38.2493 0.0213
57.4400 38.2627 0.0092
57.4600 38.2761 0.0087
57.4800 38.2894 0.0194
57.5000 38.3027 0.0057
57.5200 38.3160 0.0094
57.5400 38.3294 0.0180
57.5600 38.3427 0.0059
57.5800 38.3560 0.0099
57.6000 38.3693 0.0205
57.6200 38.3827 0.0013
57.6400 38.3960 0.0068
57.6600 38.4093 0.0206
57.6800 38.4226 0.0025
57.7000 38.4359 0.0107
57.7200 38.4493 0.0137
57.7400 38.4626 -0.0004
57.7600 38.4759 0.0096
57.7800 38.4893 0.0143
57.8000 38.5027 -0.0017
57.8200 38.5161 0.0075
57.8400 38.5294 0.0128
57.8600 38.5428 -0.0051
57.8800 38.5561 0.0111
57.9000 38.5694 0.0101
57.9200 38.5827 -0.0070
57.9400 38.5959 0.0133
57.9600 38.6092 0.0088
57.9800 38.6226 -0.0012
58.0000 38.6359 0.0116
58.0200 38.6493 0.0041
58.0400 38.6626 0.0006
58.0600 38.6760 0.0072
58.0800 38.6894 0.0018
58.1000 38.7027 -0.0015
58.1200 38.7160 0.0087
58.1400 38.7294 0.0051
58.1600 38.7428 0.0008
58.1800 38.7561 0.0036
58.2000 38.7694 0.0059
58.2200 38.7827 0.0031
58.2400 38.7960 0.0023
58.2600 38.8094 0.0062
58.2800 38.8227 0.0035
58.3000 38.8360 0.0014
58.3200 38.8493 0.0070
58.3400 38.8627 0.0004
58.3600 38.8760 0.0025
58.3800 38.8893 0.0055
58.4000 38.9026 0.0030
58.4200 38.9160 -0.0012
58.4400 38.9293 0.0080
58.4600 38.9427 0.0025
58.4800 38.9560 -0.0033
58.5000 38.9694 0.0075
58.5200 38.9827 -0.0022
58.5400 38.9961 -0.0060
58.5600 39.0094 0.0079
58.5800 39.0227 -0.0026
58.6000 39.0360 -0.0007
58.6200 39.0494 0.0019
58.6400 39.0627 -0.0051
58.6600 39.0760 0.0001
58.6800 39.0893 0.0022
58.7000 39.1027 -0.0044
58.7200 39.1160 -0.0041
58.7400 39.1293 0.0017
58.7600 39.1426 -0.0048
58.7800 39.1560 -0.0003
58.8000 39.1693 -0.0004
58.8200 39.1826 -0.0078
58.8400 39.1960 -0.0072
58.8600 39.2093 -0.0054
58.8800 39.2227 -0.0028
58.9000 39.2361 -0.0069
58.9200 39.2494 -0.0061
58.9400 39.2627 -0.0040
58.9600 39.2760 -0.0082
58.9800 39.2894 -0.0066
59.0000 39.3027 -0.0060
59.0200 39.3160 -0.0073
59.0400 39.3293 -0.0059
59.0600 39.3427 -0.0063
59.0800 39.3560 -0.0131
59.1000 39.3693 -0.0042
59.1200 39.3826 -0.0045
59.1400 39.3959 -0.0149
59.1600 39.4093 -0.0027
59.1800 39.4226 -0.0076
59.2000 39.4360 -0.0185
59.2200 39.4493 -0.0068
59.2400 39.4627 -0.0054
59.2600 39.4760 -0.0181
59.2800 39.4894 -0.0050
59.3000 39.5027 -0.0067
59.3200 39.5160 -0.0117
59.3400 39.5294 -0.0047
59.3600 39.5427 -0.0164
59.3800 39.5560 -0.0111
59.4000 39.5693 -0.0025
59.4200 39.5826 -0.0109
59.4400 39.5960 -0.0155
59.4600 39.6093 -0.0079
59.4800 39.6226 -0.0112
59.5000 39.6359 -0.0175
59.5200 39.6493 -0.0042
59.5400 39.6626 -0.0153
59.5600 39.6760 -0.0177
59.5800 39.6893 -0.0071
59.6000 39.7027 -0.0198
59.6200 39.7161 -0.0179
59.6400 39.7294 -0.0106
59.6600 39.7427 -0.0156
59.6800 39.7560 -0.0166
59.7000 39.7694 -0.0068
59.7200 39.7827 -0.0127
59.7400 39.7960 -0.0194
59.7600 39.8093 -0.0094
59.7800 39.8227 -0.0162
59.8000 39.8360 -0.0194
59.8200 39.8493 -0.0085
59.8400 39.8626 -0.0176
59.8600 39.8759 -0.0135
59.8800 39.8893 -0.0090
59.9000 39.9026 -0.0212
59.9200 39.9160 -0.0186
59.9400 39.9293 -0.0125
59.9600 39.9427 -0.0174
59.9800 39.9561 -0.0206
60.0000 39.9694 -0.0118
60.0200 39.9827 -0.0203
60.0400 39.9960 -0.0293
60.0470 40.0006 -0.0401
