Raw Data
Time Displacement Force
(s) (mm) (N)
0.0000 0.0000 0.1651
0.0200 0.0001 0.1883
0.0400 0.0022 0.2590
0.0600 0.0099 0.2392
0.0800 0.0217 0.1677
0.1000 0.0342 0.1776
0.1200 0.0469 0.1931
0.1400 0.0604 0.1747
0.1600 0.0745 0.1827
0.1800 0.0887 0.1758
0.2000 0.1026 0.1691
0.2200 0.1162 0.1773
0.2400 0.1295 0.1714
0.2600 0.1428 0.1766
0.2800 0.1561 0.1850
0.3000 0.1695 0.1703
0.3200 0.1829 0.1697
0.3400 0.1963 0.1868
0.3600 0.2096 0.1704
0.3800 0.2229 0.1748
0.4000 0.2363 0.1846
0.4200 0.2496 0.1647
0.4400 0.2629 0.1758
0.4600 0.2762 0.1847
0.4800 0.2896 0.1645
0.5000 0.3029 0.1786
0.5200 0.3162 0.1839
0.5400 0.3295 0.1629
0.5600 0.3429 0.1786
0.5800 0.3562 0.1857
0.6000 0.3696 0.1647
0.6200 0.3829 0.1847
0.6400 0.3963 0.1822
0.6600 0.4097 0.1648
0.6800 0.4230 0.1879
0.7000 0.4363 0.1765
0.7200 0.4496 0.1698
0.7400 0.4630 0.1852
0.7600 0.4763 0.1746
0.7800 0.4896 0.1706
0.8000 0.5029 0.1820
0.8200 0.5163 0.1743
0.8400 0.5296 0.1718
0.8600 0.5430 0.1776
0.8800 0.5562 0.1729
0.9000 0.5695 0.1758
0.9200 0.5828 0.1783
0.9400 0.5962 0.1698
0.9600 0.6096 0.1736
0.9800 0.6229 0.1718
1.0000 0.6362 0.1739
1.0200 0.6496 0.1696
1.0400 0.6630 0.1650
1.0600 0.6763 0.1702
1.0800 0.6896 0.1661
1.1000 0.7029 0.1673
1.1200 0.7163 0.1693
1.1400 0.7296 0.1654
1.1600 0.7429 0.1704
1.1800 0.7562 0.1700
1.2000 0.7696 0.1648
1.2200 0.7829 0.1625
1.2400 0.7963 0.1704
1.2600 0.8096 0.1613
1.2800 0.8229 0.1681
1.3000 0.8362 0.1751
1.3200 0.8496 0.1552
1.3400 0.8629 0.1676
1.3600 0.8762 0.1747
1.3800 0.8896 0.1569
1.4000 0.9030 0.1672
1.4200 0.9163 0.1733
1.4400 0.9296 0.1564
1.4600 0.9429 0.1664
1.4800 0.9563 0.1676
1.5000 0.9697 0.1565
1.5200 0.9830 0.1684
1.5400 0.9962 0.1666
1.5600 1.0096 0.1548
1.5800 1.0229 0.1686
1.6000 1.0362 0.1653
1.6200 1.0495 0.1557
1.6400 1.0628 0.1660
1.6600 1.0762 0.1619
1.6800 1.0896 0.1534
1.7000 1.1029 0.1673
1.7200 1.1163 0.1605
1.7400 1.1296 0.1524
1.7600 1.1430 0.1626
1.7800 1.1564 0.1591
1.8000 1.1696 0.1566
1.8200 1.1829 0.1635
1.8400 1.1963 0.1627
1.8600 1.2097 0.1539
1.8800 1.2230 0.1632
1.9000 1.2363 0.1632
1.9200 1.2496 0.1566
1.9400 1.2629 0.1613
1.9600 1.2762 0.1578
1.9800 1.2895 0.1586
2.0000 1.3028 0.1617
2.0200 1.3162 0.1593
2.0400 1.3296 0.1575
2.0600 1.3429 0.1585
2.0800 1.3563 0.1572
2.1000 1.3696 0.1576
2.1200 1.3830 0.1615
2.1400 1.3963 0.1554
2.1600 1.4096 0.1580
2.1800 1.4230 0.1634
2.2000 1.4363 0.1561
2.2200 1.4496 0.1546
2.2400 1.4629 0.1625
2.2600 1.4762 0.1586
2.2800 1.4895 0.1593
2.3000 1.5029 0.1628
2.3200 1.5162 0.1542
2.3400 1.5296 0.1559
2.3600 1.5429 0.1669
2.3800 1.5563 0.1488
2.4000 1.5696 0.1521
2.4200 1.5830 0.1649
2.4400 1.5963 0.1498
2.4600 1.6096 0.1522
2.4800 1.6229 0.1628
2.5000 1.6362 0.1453
2.5200 1.6495 0.1546
2.5400 1.6628 0.1608
2.5600 1.6762 0.1453
2.5800 1.6896 0.1568
2.6000 1.7030 0.1512
2.6200 1.7163 0.1417
2.6400 1.7296 0.1583
2.6600 1.7430 0.1488
2.6800 1.7563 0.1430
2.7000 1.7696 0.1531
2.7200 1.7829 0.1480
2.7400 1.7962 0.1459
2.7600 1.8096 0.1536
2.7800 1.8229 0.1481
2.8000 1.8362 0.1484
2.8200 1.8496 0.1509
2.8400 1.8629 0.1489
2.8600 1.8763 0.1497
2.8800 1.8896 0.1535
2.9000 1.9029 0.1516
2.9200 1.9163 0.1472
2.9400 1.9297 0.1486
2.9600 1.9430 0.1496
2.9800 1.9563 0.1527
3.0000 1.9696 0.1476
3.0200 1.9830 0.1522
3.0400 1.9963 0.1453
3.0600 2.0096 0.1457
3.0800 2.0229 0.1530
3.1000 2.0362 0.1430
3.1200 2.0495 0.1462
3.1400 2.0629 0.1524
3.1600 2.0762 0.1385
3.1800 2.0896 0.1462
3.2000 2.1030 0.1473
3.2200 2.1163 0.1348
3.2400 2.1297 0.1479
3.2600 2.1430 0.1502
3.2800 2.1563 0.1357
3.3000 2.1697 0.1498
3.3200 2.1830 0.1406
3.3400 2.1963 0.1356
3.3600 2.2096 0.1535
3.3800 2.2229 0.1373
3.4000 2.2363 0.1345
3.4200 2.2495 0.1535
3.4400 2.2629 0.1315
3.4600 2.2762 0.1346
3.4800 2.2896 0.1473
3.5000 2.3029 0.1313
3.5200 2.3162 0.1412
3.5400 2.3296 0.1482
3.5600 2.3429 0.1246
3.5800 2.3563 0.1438
3.6000 2.3696 0.1415
3.6200 2.3830 0.1295
3.6400 2.3963 0.1447
3.6600 2.4097 0.1357
3.6800 2.4230 0.1295
3.7000 2.4363 0.1432
3.7200 2.4496 0.1393
3.7400 2.4630 0.1287
3.7600 2.4763 0.1429
3.7800 2.4896 0.1337
3.8000 2.5029 0.1327
3.8200 2.5162 0.1401
3.8400 2.5295 0.1330
3.8600 2.5429 0.1366
3.8800 2.5562 0.1376
3.9000 2.5696 0.1329
3.9200 2.5830 0.1407
3.9400 2.5963 0.1317
3.9600 2.6096 0.1341
3.9800 2.6229 0.1425
4.0000 2.6363 0.1304
4.0200 2.6496 0.1308
4.0400 2.6629 0.1388
4.0600 2.6763 0.1286
4.0800 2.6896 0.1352
4.1000 2.7029 0.1376
4.1200 2.7163 0.1258
4.1400 2.7296 0.1345
4.1600 2.7429 0.1349
4.1800 2.7562 0.1267
4.2000 2.7696 0.1374
4.2200 2.7829 0.1324
4.2400 2.7962 0.1260
4.2600 2.8096 0.1301
4.2800 2.8229 0.1319
4.3000 2.8363 0.1217
4.3200 2.8496 0.1340
4.3400 2.8630 0.1356
4.3600 2.8763 0.1150
4.3800 2.8897 0.1361
4.4000 2.9030 0.1314
4.4200 2.9163 0.1176
4.4400 2.9296 0.1361
4.4600 2.9429 0.1324
4.4800 2.9563 0.1195
4.5000 2.9696 0.1330
4.5200 2.9829 0.1293
4.5400 2.9962 0.1186
4.5600 3.0096 0.1345
4.5800 3.0229 0.1273
4.6000 3.0362 0.1202
4.6200 3.0496 0.1359
4.6400 3.0629 0.1253
4.6600 3.0763 0.1178
4.6800 3.0896 0.1332
4.7000 3.1029 0.1304
4.7200 3.1163 0.1215
4.7400 3.1297 0.1354
4.7600 3.1430 0.1229
4.7800 3.1563 0.1209
4.8000 3.1696 0.1329
4.8200 3.1830 0.1232
4.8400 3.1963 0.1220
4.8600 3.2096 0.1310
4.8800 3.2229 0.1205
4.9000 3.2361 0.1193
4.9200 3.2495 0.1306
4.9400 3.2628 0.1228
4.9600 3.2762 0.1185
4.9800 3.2895 0.1308
5.0000 3.3030 0.1241
5.0200 3.3163 0.1154
5.0400 3.3297 0.1288
5.0600 3.3430 0.1195
5.0800 3.3564 0.1158
5.1000 3.3697 0.1246
5.1200 3.3830 0.1171
5.1400 3.3963 0.1183
5.1600 3.4095 0.1266
5.1800 3.4229 0.1190
5.2000 3.4362 0.1126
5.2200 3.4496 0.1191
5.2400 3.4629 0.1202
5.2600 3.4762 0.1136
5.2800 3.4896 0.1197
5.3000 3.5029 0.1171
5.3200 3.5162 0.1078
5.3400 3.5296 0.1211
5.3600 3.5429 0.1174
5.3800 3.5563 0.1082
5.4000 3.5697 0.1209
5.4200 3.5830 0.1150
5.4400 3.5963 0.1105
5.4600 3.6097 0.1236
5.4800 3.6230 0.1128
5.5000 3.6363 0.1078
5.5200 3.6496 0.1244
5.5400 3.6629 0.1115
5.5600 3.6763 0.1072
5.5800 3.6896 0.1258
5.6000 3.7029 0.1132
5.6200 3.7162 0.1118
5.6400 3.7296 0.1234
5.6600 3.7429 0.1092
5.6800 3.7563 0.1139
5.7000 3.7696 0.1204
5.7200 3.7830 0.1120
5.7400 3.7963 0.1130
5.7600 3.8097 0.1158
5.7800 3.8230 0.1104
5.8000 3.8363 0.1173
5.8200 3.8496 0.1176
5.8400 3.8630 0.1068
5.8600 3.8763 0.1142
5.8800 3.8896 0.1182
5.9000 3.9030 0.1084
5.9200 3.9163 0.1136
5.9400 3.9296 0.1122
5.9600 3.9429 0.1116
5.9800 3.9562 0.1150
6.0000 3.9695 0.1114
6.0200 3.9829 0.1090
6.0400 3.9962 0.1118
6.0600 4.0096 0.1147
6.0800 4.0230 0.1048
6.1000 4.0363 0.1138
6.1200 4.0497 0.1118
6.1400 4.0630 0.1085
6.1600 4.0763 0.1116
6.1800 4.0896 0.1102
6.2000 4.1030 0.1096
6.2200 4.1163 0.1121
6.2400 4.1296 0.1109
6.2600 4.1429 0.1075
6.2800 4.1563 0.1116
6.3000 4.1696 0.1113
6.3200 4.1829 0.1031
6.3400 4.1962 0.1142
6.3600 4.2096 0.1063
6.3800 4.2229 0.1009
6.4000 4.2362 0.1095
6.4200 4.2495 0.1077
6.4400 4.2629 0.1055
6.4600 4.2763 0.1038
6.4800 4.2896 0.1024
6.5000 4.3029 0.1038
6.5200 4.3163 0.1055
6.5400 4.3297 0.1004
6.5600 4.3430 0.1002
6.5800 4.3563 0.1044
6.6000 4.3696 0.1008
6.6200 4.3829 0.1000
6.6400 4.3963 0.1036
6.6600 4.4096 0.1054
6.6800 4.4229 0.0999
6.7000 4.4362 0.0982
6.7200 4.4495 0.1060
6.7400 4.4629 0.0971
6.7600 4.4762 0.1008
6.7800 4.4895 0.1016
6.8000 4.5029 0.0965
6.8200 4.5163 0.1020
6.8400 4.5296 0.1017
6.8600 4.5430 0.0983
6.8800 4.5563 0.1007
6.9000 4.5696 0.0974
6.9200 4.5830 0.0974
6.9400 4.5963 0.0991
6.9600 4.6096 0.1026
6.9800 4.6229 0.0981
7.0000 4.6363 0.0995
7.0200 4.6496 0.0958
7.0400 4.6629 0.0972
7.0600 4.6762 0.0981
7.0800 4.6895 0.0966
7.1000 4.7029 0.0981
7.1200 4.7162 0.0965
7.1400 4.7296 0.0987
7.1600 4.7430 0.0906
7.1800 4.7564 0.0941
7.2000 4.7697 0.0997
7.2200 4.7830 0.0893
7.2400 4.7964 0.0968
7.2600 4.8097 0.0978
7.2800 4.8230 0.0914
7.3000 4.8363 0.0997
7.3200 4.8495 0.0944
7.3400 4.8628 0.0938
7.3600 4.8762 0.0973
7.3800 4.8895 0.0960
7.4000 4.9029 0.0922
7.4200 4.9162 0.1007
7.4400 4.9296 0.0964
7.4600 4.9430 0.0933
7.4800 4.9563 0.1014
7.5000 4.9696 0.0955
7.5200 4.9830 0.0953
7.5400 4.9963 0.0990
7.5600 5.0097 0.0990
7.5800 5.0230 0.0978
7.6000 5.0363 0.0971
7.6200 5.0496 0.0957
7.6400 5.0630 0.0920
7.6600 5.0763 0.1035
7.6800 5.0896 0.0939
7.7000 5.1029 0.0915
7.7200 5.1162 0.0989
7.7400 5.1296 0.0942
7.7600 5.1429 0.0940
7.7800 5.1562 0.0996
7.8000 5.1695 0.0974
7.8200 5.1829 0.0892
7.8400 5.1962 0.0971
7.8600 5.2096 0.0976
7.8800 5.2229 0.0895
7.9000 5.2363 0.0934
7.9200 5.2496 0.0944
7.9400 5.2630 0.0877
7.9600 5.2763 0.0963
7.9800 5.2896 0.0964
8.0000 5.3030 0.0858
8.0200 5.3163 0.0969
8.0400 5.3296 0.0969
8.0600 5.3429 0.0869
8.0800 5.3563 0.1013
8.1000 5.3696 0.0990
8.1200 5.3829 0.0849
8.1400 5.3962 0.1027
8.1600 5.4095 0.0956
8.1800 5.4229 0.0865
8.2000 5.4362 0.1065
8.2200 5.4496 0.0903
8.2400 5.4629 0.0859
8.2600 5.4763 0.1033
8.2800 5.4897 0.0879
8.3000 5.5030 0.0844
8.3200 5.5163 0.1079
8.3400 5.5296 0.0840
8.3600 5.5430 0.0878
8.3800 5.5563 0.1001
8.4000 5.5696 0.0844
8.4200 5.5829 0.0905
8.4400 5.5963 0.0948
8.4600 5.6096 0.0866
8.4800 5.6229 0.0911
8.5000 5.6362 0.0914
8.5200 5.6495 0.0854
8.5400 5.6629 0.0900
8.5600 5.6762 0.0878
8.5800 5.6896 0.0851
8.6000 5.7029 0.0912
8.6200 5.7163 0.0862
8.6400 5.7296 0.0862
8.6600 5.7429 0.0889
8.6800 5.7563 0.0836
8.7000 5.7696 0.0910
8.7200 5.7830 0.0908
8.7400 5.7963 0.0794
8.7600 5.8096 0.0901
8.7800 5.8229 0.0903
8.8000 5.8362 0.0792
8.8200 5.8496 0.0933
8.8400 5.8629 0.0809
8.8600 5.8762 0.0821
8.8800 5.8895 0.0880
8.9000 5.9029 0.0781
8.9200 5.9162 0.0819
8.9400 5.9296 0.0885
8.9600 5.9430 0.0803
8.9800 5.9563 0.0796
9.0000 5.9697 0.0874
9.0200 5.9830 0.0782
9.0400 5.9963 0.0810
9.0600 6.0096 0.0881
9.0800 6.0230 0.0698
9.1000 6.0363 0.0846
9.1200 6.0496 0.0804
9.1400 6.0629 0.0708
9.1600 6.0762 0.0863
9.1800 6.0896 0.0806
9.2000 6.1029 0.0717
9.2200 6.1162 0.0836
9.2400 6.1295 0.0743
9.2600 6.1429 0.0725
9.2800 6.1562 0.0840
9.3000 6.1695 0.0738
9.3200 6.1829 0.0731
9.3400 6.1963 0.0823
9.3600 6.2097 0.0669
9.3800 6.2230 0.0776
9.4000 6.2363 0.0755
9.4200 6.2496 0.0696
9.4400 6.2630 0.0763
9.4600 6.2763 0.0741
9.4800 6.2896 0.0704
9.5000 6.3029 0.0778
9.5200 6.3162 0.0753
9.5400 6.3296 0.0676
9.5600 6.3429 0.0790
9.5800 6.3562 0.0713
9.6000 6.3696 0.0734
9.6200 6.3829 0.0777
9.6400 6.3963 0.0669
9.6600 6.4096 0.0765
9.6800 6.4229 0.0759
9.7000 6.4363 0.0623
9.7200 6.4496 0.0713
9.7400 6.4629 0.0759
9.7600 6.4762 0.0688
9.7800 6.4896 0.0707
9.8000 6.5029 0.0744
9.8200 6.5163 0.0653
9.8400 6.5296 0.0692
9.8600 6.5429 0.0747
9.8800 6.5563 0.0673
9.9000 6.5697 0.0693
9.9200 6.5830 0.0718
9.9400 6.5962 0.0654
9.9600 6.6095 0.0702
9.9800 6.6229 0.0710
10.0000 6.6362 0.0672
10.0200 6.6495 0.0679
10.0400 6.6629 0.0710
10.0600 6.6763 0.0653
10.0800 6.6896 0.0669
10.1000 6.7030 0.0708
10.1200 6.7163 0.0664
10.1400 6.7296 0.0652
10.1600 6.7430 0.0686
10.1800 6.7563 0.0696
10.2000 6.7696 0.0659
10.2200 6.7829 0.0706
10.2400 6.7963 0.0669
10.2600 6.8096 0.0639
10.2800 6.8229 0.0737
10.3000 6.8362 0.0620
10.3200 6.8495 0.0685
10.3400 6.8629 0.0733
10.3600 6.8762 0.0619
10.3800 6.8896 0.0703
10.4000 6.9029 0.0747
10.4200 6.9163 0.0644
10.4400 6.9297 0.0692
10.4600 6.9430 0.0750
10.4800 6.9563 0.0636
10.5000 6.9696 0.0712
10.5200 6.9830 0.0684
10.5400 6.9963 0.0642
10.5600 7.0096 0.0762
10.5800 7.0229 0.0674
10.6000 7.0362 0.0599
10.6200 7.0496 0.0727
10.6400 7.0629 0.0693
10.6600 7.0762 0.0666
10.6800 7.0895 0.0694
10.7000 7.1029 0.0728
10.7200 7.1163 0.0606
10.7400 7.1296 0.0633
10.7600 7.1429 0.0712
10.7800 7.1562 0.0600
10.8000 7.1696 0.0625
10.8200 7.1830 0.0664
10.8400 7.1963 0.0590
10.8600 7.2096 0.0596
10.8800 7.2230 0.0678
10.9000 7.2363 0.0573
10.9200 7.2496 0.0582
10.9400 7.2629 0.0686
10.9600 7.2763 0.0575
10.9800 7.2896 0.0605
11.0000 7.3029 0.0687
11.0200 7.3162 0.0562
11.0400 7.3295 0.0552
11.0600 7.3429 0.0642
11.0800 7.3562 0.0541
11.1000 7.3696 0.0559
11.1200 7.3829 0.0622
11.1400 7.3963 0.0500
11.1600 7.4097 0.0604
11.1800 7.4230 0.0573
11.2000 7.4363 0.0485
11.2200 7.4496 0.0575
11.2400 7.4630 0.0559
11.2600 7.4763 0.0509
11.2800 7.4896 0.0582
11.3000 7.5029 0.0567
11.3200 7.5163 0.0534
11.3400 7.5296 0.0546
11.3600 7.5429 0.0568
11.3800 7.5563 0.0536
11.4000 7.5696 0.0536
11.4200 7.5829 0.0585
11.4400 7.5962 0.0554
11.4600 7.6096 0.0533
11.4800 7.6229 0.0560
11.5000 7.6363 0.0534
11.5200 7.6496 0.0534
11.5400 7.6630 0.0552
11.5600 7.6763 0.0523
11.5800 7.6896 0.0512
11.6000 7.7030 0.0558
11.6200 7.7163 0.0511
11.6400 7.7296 0.0531
11.6600 7.7429 0.0532
11.6800 7.7562 0.0487
11.7000 7.7696 0.0528
11.7200 7.7829 0.0546
11.7400 7.7962 0.0443
11.7600 7.8095 0.0518
11.7800 7.8229 0.0556
11.8000 7.8362 0.0423
11.8200 7.8496 0.0544
11.8400 7.8629 0.0540
11.8600 7.8762 0.0440
11.8800 7.8896 0.0507
11.9000 7.9029 0.0545
11.9200 7.9163 0.0428
11.9400 7.9296 0.0557
11.9600 7.9429 0.0528
11.9800 7.9563 0.0429
12.0000 7.9697 0.0507
12.0200 7.9830 0.0512
12.0400 7.9963 0.0488
12.0600 8.0096 0.0535
12.0800 8.0230 0.0513
12.1000 8.0362 0.0500
12.1200 8.0495 0.0490
12.1400 8.0628 0.0535
12.1600 8.0761 0.0470
12.1800 8.0895 0.0512
12.2000 8.1028 0.0537
12.2200 8.1162 0.0407
12.2400 8.1297 0.0500
12.2600 8.1430 0.0521
12.2800 8.1564 0.0408
12.3000 8.1697 0.0514
12.3200 8.1830 0.0524
12.3400 8.1964 0.0416
12.3600 8.2097 0.0497
12.3800 8.2229 0.0571
12.4000 8.2362 0.0428
12.4200 8.2496 0.0503
12.4400 8.2629 0.0524
12.4600 8.2762 0.0423
12.4800 8.2895 0.0545
12.5000 8.3029 0.0506
12.5200 8.3162 0.0445
12.5400 8.3296 0.0499
12.5600 8.3429 0.0538
12.5800 8.3563 0.0438
12.6000 8.3697 0.0511
12.6200 8.3830 0.0500
12.6400 8.3963 0.0464
12.6600 8.4097 0.0509
12.6800 8.4230 0.0476
12.7000 8.4363 0.0485
12.7200 8.4496 0.0481
12.7400 8.4629 0.0468
12.7600 8.4762 0.0497
12.7800 8.4896 0.0455
12.8000 8.5029 0.0446
12.8200 8.5162 0.0493
12.8400 8.5295 0.0497
12.8600 8.5428 0.0462
12.8800 8.5562 0.0497
12.9000 8.5696 0.0449
12.9200 8.5829 0.0465
12.9400 8.5963 0.0500
12.9600 8.6096 0.0424
12.9800 8.6230 0.0454
13.0000 8.6363 0.0450
13.0200 8.6496 0.0450
13.0400 8.6630 0.0459
13.0600 8.6763 0.0448
13.0800 8.6896 0.0458
13.1000 8.7030 0.0452
13.1200 8.7163 0.0427
13.1400 8.7296 0.0430
13.1600 8.7429 0.0426
13.1800 8.7562 0.0422
13.2000 8.7695 0.0408
13.2200 8.7829 0.0420
13.2400 8.7962 0.0413
13.2600 8.8096 0.0376
13.2800 8.8229 0.0386
13.3000 8.8363 0.0436
13.3200 8.8497 0.0378
13.3400 8.8630 0.0388
13.3600 8.8763 0.0389
13.3800 8.8896 0.0387
13.4000 8.9030 0.0399
13.4200 8.9163 0.0402
13.4400 8.9296 0.0362
13.4600 8.9429 0.0454
13.4800 8.9562 0.0415
13.5000 8.9696 0.0349
13.5200 8.9829 0.0437
13.5400 8.9962 0.0373
13.5600 9.0096 0.0339
13.5800 9.0229 0.0460
13.6000 9.0362 0.0383
13.6200 9.0495 0.0332
13.6400 9.0629 0.0430
13.6600 9.0762 0.0327
13.6800 9.0896 0.0318
13.7000 9.1030 0.0453
13.7200 9.1163 0.0333
13.7400 9.1296 0.0343
13.7600 9.1430 0.0422
13.7800 9.1563 0.0342
13.8000 9.1697 0.0315
13.8200 9.1830 0.0419
13.8400 9.1963 0.0356
13.8600 9.2096 0.0341
13.8800 9.2229 0.0365
13.9000 9.2362 0.0351
13.9200 9.2496 0.0338
13.9400 9.2629 0.0356
13.9600 9.2762 0.0335
13.9800 9.2896 0.0298
14.0000 9.3029 0.0330
14.0200 9.3162 0.0343
14.0400 9.3296 0.0304
14.0600 9.3430 0.0315
14.0800 9.3563 0.0317
14.1000 9.3696 0.0297
14.1200 9.3829 0.0285
14.1400 9.3963 0.0308
14.1600 9.4096 0.0289
14.1800 9.4229 0.0277
14.2000 9.4363 0.0324
14.2200 9.4496 0.0262
14.2400 9.4630 0.0290
14.2600 9.4762 0.0267
14.2800 9.4895 0.0239
14.3000 9.5028 0.0287
14.3200 9.5162 0.0262
14.3400 9.5295 0.0232
14.3600 9.5429 0.0281
14.3800 9.5563 0.0255
14.4000 9.5697 0.0221
14.4200 9.5830 0.0267
14.4400 9.5964 0.0272
14.4600 9.6097 0.0227
14.4800 9.6230 0.0282
14.5000 9.6363 0.0193
14.5200 9.6496 0.0237
14.5400 9.6629 0.0275
14.5600 9.6761 0.0236
14.5800 9.6895 0.0260
14.6000 9.7028 0.0203
14.6200 9.7162 0.0242
14.6400 9.7295 0.0286
14.6600 9.7429 0.0191
14.6800 9.7563 0.0213
14.7000 9.7696 0.0269
14.7200 9.7829 0.0178
14.7400 9.7963 0.0212
14.7600 9.8096 0.0304
14.7800 9.8230 0.0191
14.8000 9.8363 0.0231
14.8200 9.8496 0.0287
14.8400 9.8630 0.0158
14.8600 9.8763 0.0259
14.8800 9.8896 0.0241
14.9000 9.9029 0.0177
14.9200 9.9162 0.0302
14.9400 9.9296 0.0218
14.9600 9.9429 0.0159
14.9800 9.9562 0.0287
15.0000 9.9695 0.0234
15.0200 9.9829 0.0218
15.0400 9.9962 0.0253
15.0600 10.0096 0.0201
15.0800 10.0229 0.0202
15.1000 10.0363 0.0292
15.1200 10.0496 0.0141
15.1400 10.0630 0.0251
15.1600 10.0763 0.0256
15.1800 10.0896 0.0155
15.2000 10.1030 0.0264
15.2200 10.1163 0.0213
15.2400 10.1297 0.0210
15.2600 10.1430 0.0222
15.2800 10.1563 0.0180
15.3000 10.1696 0.0229
15.3200 10.1830 0.0201
15.3400 10.1963 0.0217
15.3600 10.2095 0.0224
15.3800 10.2228 0.0256
15.4000 10.2362 0.0178
15.4200 10.2496 0.0167
15.4400 10.2629 0.0216
15.4600 10.2762 0.0176
15.4800 10.2896 0.0206
15.5000 10.3030 0.0133
15.5200 10.3163 0.0144
15.5400 10.3297 0.0213
15.5600 10.3430 0.0217
15.5800 10.3563 0.0138
15.6000 10.3697 0.0213
15.6200 10.3829 0.0215
15.6400 10.3962 0.0143
15.6600 10.4096 0.0230
15.6800 10.4229 0.0142
15.7000 10.4362 0.0140
15.7200 10.4496 0.0221
15.7400 10.4629 0.0153
15.7600 10.4762 0.0139
15.7800 10.4896 0.0238
15.8000 10.5029 0.0156
15.8200 10.5162 0.0162
15.8400 10.5296 0.0253
15.8600 10.5429 0.0114
15.8800 10.5563 0.0186
15.9000 10.5696 0.0259
15.9200 10.5829 0.0126
15.9400 10.5963 0.0204
15.9600 10.6097 0.0246
15.9800 10.6230 0.0108
16.0000 10.6363 0.0240
16.0200 10.6496 0.0222
16.0400 10.6629 0.0120
16.0600 10.6762 0.0252
16.0800 10.6895 0.0233
16.1000 10.7029 0.0094
16.1200 10.7162 0.0274
16.1400 10.7296 0.0238
16.1600 10.7429 0.0086
16.1800 10.7562 0.0256
16.2000 10.7696 0.0210
16.2200 10.7830 0.0150
16.2400 10.7963 0.0236
16.2600 10.8096 0.0163
16.2800 10.8229 0.0151
16.3000 10.8363 0.0260
16.3200 10.8497 0.0172
16.3400 10.8630 0.0208
16.3600 10.8763 0.0229
16.3800 10.8896 0.0181
16.4000 10.9029 0.0186
16.4200 10.9163 0.0192
16.4400 10.9296 0.0134
16.4600 10.9429 0.0194
16.4800 10.9562 0.0196
16.5000 10.9695 0.0130
16.5200 10.9829 0.0225
16.5400 10.9962 0.0203
16.5600 11.0096 0.0126
16.5800 11.0230 0.0186
16.6000 11.0363 0.0131
16.6200 11.0496 0.0143
16.6400 11.0630 0.0195
16.6600 11.0763 0.0151
16.6800 11.0897 0.0163
16.7000 11.1029 0.0191
16.7200 11.1162 0.0151
16.7400 11.1295 0.0175
16.7600 11.1429 0.0184
16.7800 11.1562 0.0113
16.8000 11.1696 0.0177
16.8200 11.1829 0.0169
16.8400 11.1963 0.0121
16.8600 11.2096 0.0192
16.8800 11.2230 0.0148
16.9000 11.2363 0.0166
16.9200 11.2496 0.0219
16.9400 11.2629 0.0060
16.9600 11.2762 0.0164
16.9800 11.2895 0.0207
17.0000 11.3029 0.0087
17.0200 11.3162 0.0172
17.0400 11.3296 0.0179
17.0600 11.3430 0.0085
17.0800 11.3563 0.0157
17.1000 11.3696 0.0169
17.1200 11.3830 0.0071
17.1400 11.3963 0.0140
17.1600 11.4096 0.0134
17.1800 11.4229 0.0068
17.2000 11.4362 0.0199
17.2200 11.4496 0.0098
17.2400 11.4629 0.0084
17.2600 11.4762 0.0198
17.2800 11.4896 0.0099
17.3000 11.5029 0.0069
17.3200 11.5163 0.0192
17.3400 11.5296 0.0015
17.3600 11.5429 0.0094
17.3800 11.5563 0.0179
17.4000 11.5696 0.0058
17.4200 11.5830 0.0115
17.4400 11.5963 0.0155
17.4600 11.6096 0.0060
17.4800 11.6229 0.0122
17.5000 11.6363 0.0093
17.5200 11.6496 0.0069
17.5400 11.6629 0.0135
17.5600 11.6762 0.0095
17.5800 11.6895 0.0067
17.6000 11.7029 0.0116
17.6200 11.7162 0.0058
17.6400 11.7296 0.0114
17.6600 11.7430 0.0101
17.6800 11.7563 0.0012
17.7000 11.7696 0.0105
17.7200 11.7830 0.0091
17.7400 11.7963 0.0037
17.7600 11.8097 0.0092
17.7800 11.8230 0.0093
17.8000 11.8362 0.0076
17.8200 11.8495 0.0139
17.8400 11.8629 0.0090
17.8600 11.8762 0.0058
17.8800 11.8896 0.0090
17.9000 11.9029 0.0052
17.9200 11.9162 0.0062
17.9400 11.9296 0.0078
17.9600 11.9429 -0.0008
17.9800 11.9563 0.0080
18.0000 11.9696 0.0093
18.0200 11.9829 0.0026
18.0400 11.9963 0.0063
18.0600 12.0096 0.0069
18.0800 12.0229 0.0034
18.1000 12.0363 0.0038
18.1200 12.0497 0.0043
18.1400 12.0630 0.0037
18.1600 12.0763 0.0074
18.1800 12.0896 0.0044
18.2000 12.1029 0.0006
18.2200 12.1163 0.0107
18.2400 12.1296 0.0005
18.2600 12.1429 0.0068
18.2800 12.1562 0.0082
18.3000 12.1695 0.0019
18.3200 12.1829 0.0050
18.3400 12.1962 0.0053
18.3600 12.2096 0.0011
18.3800 12.2230 0.0062
18.4000 12.2363 0.0043
18.4200 12.2496 -0.0007
18.4400 12.2629 0.0050
18.4600 12.2763 0.0019
18.4800 12.2896 -0.0044
18.5000 12.3029 0.0085
18.5200 12.3163 0.0031
18.5400 12.3296 -0.0076
18.5600 12.3429 0.0102
18.5800 12.3563 -0.0029
18.6000 12.3696 -0.0021
18.6200 12.3829 0.0067
18.6400 12.3962 -0.0031
18.6600 12.4096 -0.0064
18.6800 12.4229 0.0102
18.7000 12.4362 -0.0051
18.7200 12.4496 -0.0029
18.7400 12.4630 0.0052
18.7600 12.4763 -0.0078
18.7800 12.4896 -0.0035
18.8000 12.5029 0.0059
18.8200 12.5163 -0.0068
18.8400 12.5296 -0.0033
18.8600 12.5430 0.0018
18.8800 12.5563 -0.0094
18.9000 12.5696 -0.0004
18.9200 12.5829 0.0069
18.9400 12.5962 -0.0123
18.9600 12.6096 -0.0066
18.9800 12.6229 0.0053
19.0000 12.6362 -0.0102
19.0200 12.6496 -0.0049
19.0400 12.6629 -0.0010
19.0600 12.6762 -0.0123
19.0800 12.6895 -0.0041
19.1000 12.7029 -0.0038
19.1200 12.7163 -0.0073
19.1400 12.7296 -0.0061
19.1600 12.7429 -0.0063
19.1800 12.7563 -0.0071
19.2000 12.7696 -0.0066
19.2200 12.7830 -0.0029
19.2400 12.7963 -0.0127
19.2600 12.8096 -0.0109
19.2800 12.8230 0.0005
19.3000 12.8363 -0.0123
19.3200 12.8496 -0.0118
19.3400 12.8629 -0.0062
19.3600 12.8762 -0.0107
19.3800 12.8895 -0.0063
19.4000 12.9028 -0.0100
19.4200 12.9162 -0.0120
19.4400 12.9295 -0.0064
19.4600 12.9429 -0.0077
19.4800 12.9563 -0.0142
19.5000 12.9697 -0.0092
19.5200 12.9830 -0.0061
19.5400 12.9963 -0.0156
19.5600 13.0097 -0.0105
19.5800 13.0230 -0.0093
19.6000 13.0363 -0.0144
19.6200 13.0496 -0.0100
19.6400 13.0629 -0.0127
19.6600 13.0762 -0.0105
19.6800 13.0895 -0.0083
19.7000 13.1028 -0.0123
19.7200 13.1162 -0.0090
19.7400 13.1296 -0.0129
19.7600 13.1429 -0.0117
19.7800 13.1562 -0.0065
19.8000 13.1696 -0.0121
19.8200 13.1829 -0.0060
19.8400 13.1963 -0.0098
19.8600 13.2097 -0.0083
19.8800 13.2230 -0.0062
19.9000 13.2363 -0.0105
19.9200 13.2497 -0.0106
19.9400 13.2630 -0.0053
19.9600 13.2763 -0.0112
19.9800 13.2896 -0.0102
20.0000 13.3029 -0.0004
20.0200 13.3163 -0.0125
20.0400 13.3296 -0.0108
20.0600 13.3429 -0.0001
20.0800 13.3562 -0.0116
20.1000 13.3696 -0.0114
20.1200 13.3829 -0.0011
20.1400 13.3963 -0.0129
20.1600 13.4096 -0.0106
20.1800 13.4229 -0.0034
20.2000 13.4363 -0.0121
20.2200 13.4496 -0.0107
20.2400 13.4630 -0.0031
20.2600 13.4763 -0.0146
20.2800 13.4896 -0.0121
20.3000 13.5030 -0.0046
20.3200 13.5163 -0.0136
20.3400 13.5296 -0.0112
20.3600 13.5429 -0.0024
20.3800 13.5563 -0.0162
20.4000 13.5696 -0.0125
20.4200 13.5829 -0.0017
20.4400 13.5962 -0.0176
20.4600 13.6095 -0.0122
20.4800 13.6229 -0.0056
20.5000 13.6362 -0.0205
20.5200 13.6496 -0.0104
20.5400 13.6629 -0.0062
20.5600 13.6763 -0.0192
20.5800 13.6897 -0.0155
20.6000 13.7030 -0.0070
20.6200 13.7163 -0.0181
20.6400 13.7296 -0.0113
20.6600 13.7430 -0.0086
20.6800 13.7563 -0.0206
20.7000 13.7696 -0.0117
20.7200 13.7829 -0.0057
20.7400 13.7963 -0.0184
20.7600 13.8096 -0.0134
20.7800 13.8229 -0.0084
20.8000 13.8362 -0.0183
20.8200 13.8496 -0.0156
20.8400 13.8629 -0.0104
20.8600 13.8762 -0.0147
20.8800 13.8896 -0.0160
20.9000 13.9029 -0.0073
20.9200 13.9163 -0.0176
20.9400 13.9297 -0.0194
20.9600 13.9430 -0.0073
20.9800 13.9563 -0.0154
21.0000 13.9697 -0.0125
21.0200 13.9830 -0.0090
21.0400 13.9963 -0.0187
21.0600 14.0096 -0.0179
21.0800 14.0229 -0.0057
21.1000 14.0363 -0.0178
21.1200 14.0496 -0.0215
21.1400 14.0629 -0.0045
21.1600 14.0762 -0.0178
21.1800 14.0895 -0.0199
21.2000 14.1029 -0.0122
21.2200 14.1162 -0.0182
21.2400 14.1295 -0.0175
21.2600 14.1429 -0.0112
21.2800 14.1563 -0.0204
21.3000 14.1697 -0.0223
21.3200 14.1830 -0.0072
21.3400 14.1963 -0.0174
21.3600 14.2096 -0.0222
21.3800 14.2230 -0.0072
21.4000 14.2363 -0.0197
21.4200 14.2496 -0.0185
21.4400 14.2629 -0.0076
21.4600 14.2763 -0.0216
21.4800 14.2896 -0.0194
21.5000 14.3029 -0.0068
21.5200 14.3162 -0.0247
21.5400 14.3295 -0.0143
21.5600 14.3429 -0.0115
21.5800 14.3562 -0.0253
21.6000 14.3695 -0.0132
21.6200 14.3829 -0.0116
21.6400 14.3963 -0.0211
21.6600 14.4097 -0.0143
21.6800 14.4230 -0.0161
21.7000 14.4363 -0.0224
21.7200 14.4497 -0.0132
21.7400 14.4630 -0.0156
21.7600 14.4763 -0.0218
21.7800 14.4895 -0.0103
21.8000 14.5028 -0.0172
21.8200 14.5162 -0.0207
21.8400 14.5295 -0.0114
21.8600 14.5429 -0.0218
21.8800 14.5562 -0.0173
21.9000 14.5696 -0.0130
21.9200 14.5829 -0.0243
21.9400 14.5963 -0.0174
21.9600 14.6096 -0.0140
21.9800 14.6230 -0.0259
22.0000 14.6363 -0.0159
22.0200 14.6497 -0.0206
22.0400 14.6630 -0.0322
22.0600 14.6763 -0.0130
22.0800 14.6896 -0.0128
22.1000 14.7030 -0.0311
22.1200 14.7163 -0.0154
22.1400 14.7296 -0.0236
22.1600 14.7429 -0.0265
22.1800 14.7563 -0.0142
22.2000 14.7696 -0.0265
22.2200 14.7829 -0.0218
22.2400 14.7962 -0.0133
22.2600 14.8095 -0.0292
22.2800 14.8229 -0.0213
22.3000 14.8363 -0.0142
22.3200 14.8496 -0.0249
22.3400 14.8629 -0.0248
22.3600 14.8763 -0.0179
22.3800 14.8897 -0.0309
22.4000 14.9030 -0.0250
22.4200 14.9163 -0.0227
22.4400 14.9296 -0.0308
22.4600 14.9430 -0.0226
22.4800 14.9563 -0.0295
22.5000 14.9696 -0.0243
22.5200 14.9829 -0.0246
22.5400 14.9963 -0.0317
22.5600 15.0096 -0.0218
22.5800 15.0229 -0.0300
22.6000 15.0362 -0.0318
22.6200 15.0495 -0.0217
22.6400 15.0629 -0.0285
22.6600 15.0762 -0.0337
22.6800 15.0896 -0.0192
22.7000 15.1029 -0.0317
22.7200 15.1163 -0.0341
22.7400 15.1297 -0.0141
22.7600 15.1430 -0.0384
22.7800 15.1563 -0.0311
22.8000 15.1696 -0.0172
22.8200 15.1830 -0.0366
22.8400 15.1963 -0.0297
22.8600 15.2096 -0.0219
22.8800 15.2229 -0.0362
22.9000 15.2363 -0.0317
22.9200 15.2496 -0.0226
22.9400 15.2629 -0.0382
22.9600 15.2762 -0.0281
22.9800 15.2895 -0.0230
23.0000 15.3029 -0.0417
23.0200 15.3162 -0.0297
23.0400 15.3296 -0.0279
23.0600 15.3429 -0.0388
23.0800 15.3563 -0.0246
23.1000 15.3696 -0.0293
23.1200 15.3829 -0.0413
23.1400 15.3963 -0.0273
23.1600 15.4096 -0.0263
23.1800 15.4230 -0.0398
23.2000 15.4363 -0.0276
23.2200 15.4496 -0.0278
23.2400 15.4629 -0.0424
23.2600 15.4762 -0.0238
23.2800 15.4896 -0.0338
23.3000 15.5029 -0.0403
23.3200 15.5162 -0.0268
23.3400 15.5295 -0.0307
23.3600 15.5429 -0.0398
23.3800 15.5562 -0.0325
23.4000 15.5696 -0.0278
23.4200 15.5829 -0.0384
23.4400 15.5963 -0.0347
23.4600 15.6097 -0.0331
23.4800 15.6230 -0.0424
23.5000 15.6363 -0.0287
23.5200 15.6496 -0.0320
23.5400 15.6630 -0.0436
23.5600 15.6763 -0.0347
23.5800 15.6896 -0.0296
23.6000 15.7029 -0.0403
23.6200 15.7163 -0.0345
23.6400 15.7296 -0.0306
23.6600 15.7429 -0.0468
23.6800 15.7562 -0.0308
23.7000 15.7695 -0.0334
23.7200 15.7829 -0.0468
23.7400 15.7962 -0.0312
23.7600 15.8095 -0.0353
23.7800 15.8229 -0.0442
23.8000 15.8363 -0.0311
23.8200 15.8497 -0.0389
23.8400 15.8630 -0.0403
23.8600 15.8763 -0.0345
23.8800 15.8896 -0.0365
23.9000 15.9030 -0.0469
23.9200 15.9163 -0.0380
23.9400 15.9296 -0.0371
23.9600 15.9429 -0.0432
23.9800 15.9562 -0.0356
24.0000 15.9696 -0.0379
24.0200 15.9829 -0.0404
24.0400 15.9962 -0.0400
24.0600 16.0096 -0.0328
24.0800 16.0229 -0.0440
24.1000 16.0363 -0.0417
24.1200 16.0496 -0.0329
24.1400 16.0629 -0.0423
24.1600 16.0763 -0.0432
24.1800 16.0896 -0.0334
24.2000 16.1029 -0.0427
24.2200 16.1162 -0.0438
24.2400 16.1295 -0.0288
24.2600 16.1429 -0.0461
24.2800 16.1563 -0.0465
24.3000 16.1696 -0.0269
24.3200 16.1830 -0.0463
24.3400 16.1963 -0.0438
24.3600 16.2097 -0.0315
24.3800 16.2230 -0.0497
24.4000 16.2363 -0.0441
24.4200 16.2496 -0.0309
24.4400 16.2629 -0.0498
24.4600 16.2762 -0.0417
24.4800 16.2896 -0.0303
24.5000 16.3029 -0.0481
24.5200 16.3162 -0.0413
24.5400 16.3296 -0.0338
24.5600 16.3430 -0.0500
24.5800 16.3563 -0.0345
24.6000 16.3696 -0.0320
24.6200 16.3830 -0.0460
24.6400 16.3963 -0.0364
24.6600 16.4096 -0.0323
24.6800 16.4230 -0.0467
24.7000 16.4363 -0.0360
24.7200 16.4497 -0.0360
24.7400 16.4630 -0.0469
24.7600 16.4762 -0.0381
24.7800 16.4895 -0.0338
24.8000 16.5029 -0.0444
24.8200 16.5162 -0.0406
24.8400 16.5296 -0.0349
24.8600 16.5429 -0.0436
24.8800 16.5563 -0.0432
24.9000 16.5696 -0.0371
24.9200 16.5830 -0.0442
24.9400 16.5963 -0.0460
24.9600 16.6097 -0.0369
24.9800 16.6230 -0.0464
25.0000 16.6363 -0.0476
25.0200 16.6496 -0.0371
25.0400 16.6630 -0.0473
25.0600 16.6763 -0.0499
25.0800 16.6896 -0.0370
25.1000 16.7029 -0.0523
25.1200 16.7162 -0.0447
25.1400 16.7295 -0.0366
25.1600 16.7429 -0.0530
25.1800 16.7563 -0.0492
25.2000 16.7696 -0.0407
25.2200 16.7829 -0.0521
25.2400 16.7962 -0.0435
25.2600 16.8096 -0.0442
25.2800 16.8230 -0.0559
25.3000 16.8363 -0.0429
25.3200 16.8496 -0.0453
25.3400 16.8630 -0.0558
25.3600 16.8763 -0.0417
25.3800 16.8896 -0.0474
25.4000 16.9029 -0.0505
25.4200 16.9163 -0.0402
25.4400 16.9296 -0.0466
25.4600 16.9429 -0.0493
25.4800 16.9562 -0.0404
25.5000 16.9695 -0.0516
25.5200 16.9828 -0.0456
25.5400 16.9961 -0.0426
25.5600 17.0095 -0.0463
25.5800 17.0228 -0.0437
25.6000 17.0362 -0.0446
25.6200 17.0496 -0.0458
25.6400 17.0630 -0.0438
25.6600 17.0763 -0.0466
25.6800 17.0896 -0.0451
25.7000 17.1029 -0.0399
25.7200 17.1163 -0.0472
25.7400 17.1296 -0.0424
25.7600 17.1429 -0.0404
25.7800 17.1562 -0.0434
25.8000 17.1696 -0.0452
25.8200 17.1829 -0.0413
25.8400 17.1963 -0.0420
25.8600 17.2096 -0.0444
25.8800 17.2229 -0.0449
25.9000 17.2362 -0.0428
25.9200 17.2496 -0.0448
25.9400 17.2629 -0.0495
25.9600 17.2763 -0.0397
25.9800 17.2896 -0.0461
26.0000 17.3030 -0.0501
26.0200 17.3163 -0.0397
26.0400 17.3296 -0.0481
26.0600 17.3430 -0.0457
26.0800 17.3563 -0.0433
26.1000 17.3696 -0.0517
26.1200 17.3829 -0.0530
26.1400 17.3962 -0.0376
26.1600 17.4096 -0.0511
26.1800 17.4229 -0.0505
26.2000 17.4362 -0.0382
26.2200 17.4495 -0.0520
26.2400 17.4629 -0.0486
26.2600 17.4763 -0.0421
26.2800 17.4896 -0.0568
26.3000 17.5029 -0.0470
26.3200 17.5163 -0.0440
26.3400 17.5296 -0.0540
26.3600 17.5429 -0.0454
26.3800 17.5563 -0.0433
26.4000 17.5696 -0.0532
26.4200 17.5829 -0.0464
26.4400 17.5963 -0.0410
26.4600 17.6097 -0.0545
26.4800 17.6230 -0.0494
26.5000 17.6363 -0.0433
26.5200 17.6496 -0.0538
26.5400 17.6630 -0.0509
26.5600 17.6762 -0.0455
26.5800 17.6895 -0.0469
26.6000 17.7028 -0.0491
26.6200 17.7161 -0.0481
26.6400 17.7295 -0.0486
26.6600 17.7428 -0.0509
26.6800 17.7562 -0.0492
26.7000 17.7696 -0.0484
26.7200 17.7830 -0.0533
26.7400 17.7963 -0.0483
26.7600 17.8097 -0.0519
26.7800 17.8230 -0.0565
26.8000 17.8363 -0.0479
26.8200 17.8497 -0.0561
26.8400 17.8630 -0.0571
26.8600 17.8763 -0.0493
26.8800 17.8896 -0.0561
26.9000 17.9029 -0.0599
26.9200 17.9162 -0.0510
26.9400 17.9295 -0.0546
26.9600 17.9428 -0.0595
26.9800 17.9562 -0.0504
27.0000 17.9695 -0.0629
27.0200 17.9829 -0.0566
27.0400 17.9962 -0.0530
27.0600 18.0096 -0.0638
27.0800 18.0230 -0.0560
27.1000 18.0363 -0.0538
27.1200 18.0496 -0.0685
27.1400 18.0630 -0.0531
27.1600 18.0763 -0.0512
27.1800 18.0896 -0.0694
27.2000 18.1029 -0.0512
27.2200 18.1162 -0.0580
27.2400 18.1296 -0.0679
27.2600 18.1429 -0.0511
27.2800 18.1562 -0.0607
27.3000 18.1695 -0.0629
27.3200 18.1829 -0.0537
27.3400 18.1962 -0.0673
27.3600 18.2096 -0.0624
27.3800 18.2229 -0.0504
27.4000 18.2363 -0.0628
27.4200 18.2496 -0.0630
27.4400 18.2630 -0.0547
27.4600 18.2763 -0.0631
27.4800 18.2896 -0.0604
27.5000 18.3030 -0.0546
27.5200 18.3163 -0.0658
27.5400 18.3297 -0.0605
27.5600 18.3430 -0.0614
27.5800 18.3563 -0.0657
27.6000 18.3696 -0.0600
27.6200 18.3830 -0.0637
27.6400 18.3963 -0.0683
27.6600 18.4095 -0.0597
27.6800 18.4229 -0.0641
27.7000 18.4362 -0.0664
27.7200 18.4496 -0.0617
27.7400 18.4629 -0.0653
27.7600 18.4762 -0.0665
27.7800 18.4896 -0.0596
27.8000 18.5030 -0.0720
27.8200 18.5163 -0.0647
27.8400 18.5296 -0.0614
27.8600 18.5430 -0.0695
27.8800 18.5563 -0.0573
27.9000 18.5696 -0.0675
27.9200 18.5829 -0.0699
27.9400 18.5962 -0.0620
27.9600 18.6096 -0.0700
27.9800 18.6229 -0.0732
28.0000 18.6363 -0.0596
28.0200 18.6496 -0.0735
28.0400 18.6629 -0.0788
28.0600 18.6762 -0.0615
28.0800 18.6896 -0.0779
28.1000 18.7029 -0.0723
28.1200 18.7162 -0.0625
28.1400 18.7296 -0.0758
28.1600 18.7430 -0.0716
28.1800 18.7563 -0.0652
28.2000 18.7696 -0.0795
28.2200 18.7830 -0.0701
28.2400 18.7963 -0.0639
28.2600 18.8097 -0.0858
28.2800 18.8230 -0.0724
28.3000 18.8363 -0.0570
28.3200 18.8496 -0.0793
28.3400 18.8629 -0.0687
28.3600 18.8763 -0.0569
28.3800 18.8895 -0.0760
28.4000 18.9029 -0.0647
28.4200 18.9162 -0.0597
28.4400 18.9296 -0.0767
28.4600 18.9429 -0.0647
28.4800 18.9563 -0.0577
28.5000 18.9696 -0.0773
28.5200 18.9830 -0.0599
28.5400 18.9963 -0.0580
28.5600 19.0096 -0.0744
28.5800 19.0229 -0.0599
28.6000 19.0363 -0.0586
28.6200 19.0496 -0.0707
28.6400 19.0630 -0.0601
28.6600 19.0763 -0.0570
28.6800 19.0896 -0.0689
28.7000 19.1030 -0.0598
28.7200 19.1163 -0.0575
28.7400 19.1295 -0.0734
28.7600 19.1428 -0.0594
28.7800 19.1562 -0.0615
28.8000 19.1695 -0.0724
28.8200 19.1829 -0.0628
28.8400 19.1962 -0.0604
28.8600 19.2096 -0.0711
28.8800 19.2230 -0.0642
28.9000 19.2364 -0.0583
28.9200 19.2497 -0.0748
28.9400 19.2630 -0.0617
28.9600 19.2763 -0.0590
28.9800 19.2897 -0.0777
29.0000 19.3029 -0.0586
29.0200 19.3162 -0.0625
29.0400 19.3295 -0.0733
29.0600 19.3429 -0.0588
29.0800 19.3562 -0.0656
29.1000 19.3695 -0.0730
29.1200 19.3829 -0.0574
29.1400 19.3963 -0.0650
29.1600 19.4096 -0.0787
29.1800 19.4230 -0.0598
29.2000 19.4363 -0.0715
29.2200 19.4496 -0.0713
29.2400 19.4630 -0.0603
29.2600 19.4763 -0.0715
29.2800 19.4896 -0.0684
29.3000 19.5029 -0.0688
29.3200 19.5163 -0.0684
29.3400 19.5296 -0.0645
29.3600 19.5429 -0.0669
29.3800 19.5562 -0.0664
29.4000 19.5696 -0.0686
29.4200 19.5829 -0.0653
29.4400 19.5963 -0.0687
29.4600 19.6096 -0.0673
29.4800 19.6229 -0.0695
29.5000 19.6362 -0.0624
29.5200 19.6496 -0.0732
29.5400 19.6629 -0.0696
29.5600 19.6763 -0.0647
29.5800 19.6896 -0.0737
29.6000 19.7030 -0.0708
29.6200 19.7163 -0.0692
29.6400 19.7296 -0.0755
29.6600 19.7429 -0.0727
29.6800 19.7563 -0.0735
29.7000 19.7696 -0.0750
29.7200 19.7830 -0.0718
29.7400 19.7963 -0.0725
29.7600 19.8096 -0.0741
29.7800 19.8229 -0.0752
29.8000 19.8363 -0.0761
29.8200 19.8495 -0.0752
29.8400 19.8629 -0.0777
29.8600 19.8762 -0.0770
29.8800 19.8896 -0.0783
29.9000 19.9029 -0.0838
29.9200 19.9162 -0.0751
29.9400 19.9296 -0.0806
29.9600 19.9430 -0.0843
29.9800 19.9563 -0.0744
30.0000 19.9697 -0.0887
30.0200 19.9830 -0.0817
30.0400 19.9963 -0.0732
30.0600 20.0096 -0.0931
30.0800 20.0229 -0.0829
30.1000 20.0362 -0.0747
30.1200 20.0496 -0.0912
30.1400 20.0629 -0.0844
30.1600 20.0763 -0.0759
30.1800 20.0896 -0.0944
30.2000 20.1029 -0.0827
30.2200 20.1162 -0.0791
30.2400 20.1296 -0.0963
30.2600 20.1429 -0.0855
30.2800 20.1562 -0.0848
30.3000 20.1696 -0.0993
30.3200 20.1830 -0.0836
30.3400 20.1963 -0.0887
30.3600 20.2096 -0.1007
30.3800 20.2229 -0.0813
30.4000 20.2363 -0.0896
30.4200 20.2497 -0.1021
30.4400 20.2630 -0.0848
30.4600 20.2763 -0.0954
30.4800 20.2896 -0.0962
30.5000 20.3029 -0.0840
30.5200 20.3162 -0.0941
30.5400 20.3295 -0.0935
30.5600 20.3428 -0.0828
30.5800 20.3562 -0.0940
30.6000 20.3696 -0.0962
30.6200 20.3829 -0.0794
30.6400 20.3962 -0.0913
30.6600 20.4096 -0.0690
30.6800 20.4230 -0.0141
30.7000 20.4364 0.0357
30.7200 20.4497 0.0990
30.7400 20.4630 0.1692
30.7600 20.4763 0.2156
30.7800 20.4896 0.2755
30.8000 20.5030 0.3273
30.8200 20.5163 0.3652
30.8400 20.5296 0.3717
30.8600 20.5429 0.3443
30.8800 20.5563 0.3191
30.9000 20.5696 0.3148
30.9200 20.5829 0.3121
30.9400 20.5962 0.3079
30.9600 20.6095 0.3087
30.9800 20.6229 0.3110
31.0000 20.6362 0.3141
31.0200 20.6496 0.3118
31.0400 20.6630 0.3055
31.0600 20.6763 0.3052
31.0800 20.6896 0.3051
31.1000 20.7030 0.3057
31.1200 20.7163 0.3209
31.1400 20.7297 0.3159
31.1600 20.7430 0.3122
31.1800 20.7562 0.3173
31.2000 20.7695 0.3068
31.2200 20.7829 0.3102
31.2400 20.7962 0.3108
31.2600 20.8096 0.2975
31.2800 20.8229 0.3010
31.3000 20.8363 0.3063
31.3200 20.8496 0.2921
31.3400 20.8630 0.3011
31.3600 20.8763 0.3078
31.3800 20.8896 0.2913
31.4000 20.9030 0.3050
31.4200 20.9163 0.3037
31.4400 20.9296 0.2959
31.4600 20.9429 0.3051
31.4800 20.9562 0.2965
31.5000 20.9696 0.2908
31.5200 20.9830 0.3025
31.5400 20.9963 0.2986
31.5600 21.0096 0.2949
31.5800 21.0230 0.3023
31.6000 21.0363 0.2960
31.6200 21.0496 0.2942
31.6400 21.0629 0.3004
31.6600 21.0762 0.2938
31.6800 21.0896 0.2951
31.7000 21.1029 0.2981
31.7200 21.1162 0.2896
31.7400 21.1296 0.2895
31.7600 21.1429 0.2889
31.7800 21.1563 0.2803
31.8000 21.1696 0.2935
31.8200 21.1829 0.2860
31.8400 21.1963 0.2848
31.8600 21.2096 0.2928
31.8800 21.2230 0.2827
31.9000 21.2363 0.2800
31.9200 21.2496 0.2910
31.9400 21.2629 0.2831
31.9600 21.2763 0.2856
31.9800 21.2896 0.2916
32.0000 21.3029 0.2788
32.0200 21.3162 0.2856
32.0400 21.3295 0.2811
32.0600 21.3429 0.2814
32.0800 21.3562 0.2794
32.1000 21.3696 0.2761
32.1200 21.3830 0.2771
32.1400 21.3963 0.2787
32.1600 21.4097 0.2805
32.1800 21.4230 0.2838
32.2000 21.4363 0.2778
32.2200 21.4497 0.2792
32.2400 21.4630 0.2810
32.2600 21.4763 0.2744
32.2800 21.4896 0.2784
32.3000 21.5029 0.2808
32.3200 21.5162 0.2695
32.3400 21.5295 0.2809
32.3600 21.5428 0.2825
32.3800 21.5562 0.2721
32.4000 21.5696 0.2785
32.4200 21.5829 0.2721
32.4400 21.5962 0.2713
32.4600 21.6096 0.2830
32.4800 21.6229 0.2719
32.5000 21.6363 0.2728
32.5200 21.6496 0.2746
32.5400 21.6629 0.2702
32.5600 21.6763 0.2722
32.5800 21.6897 0.2785
32.6000 21.7030 0.2687
32.6200 21.7163 0.2714
32.6400 21.7296 0.2734
32.6600 21.7429 0.2686
32.6800 21.7563 0.2710
32.7000 21.7696 0.2724
32.7200 21.7829 0.2684
32.7400 21.7962 0.2716
32.7600 21.8095 0.2701
32.7800 21.8229 0.2675
32.8000 21.8362 0.2673
32.8200 21.8496 0.2715
32.8400 21.8630 0.2654
32.8600 21.8763 0.2625
32.8800 21.8897 0.2634
32.9000 21.9030 0.2649
32.9200 21.9163 0.2659
32.9400 21.9296 0.2655
32.9600 21.9430 0.2633
32.9800 21.9563 0.2625
33.0000 21.9696 0.2666
33.0200 21.9829 0.2655
33.0400 21.9963 0.2636
33.0600 22.0096 0.2643
33.0800 22.0229 0.2667
33.1000 22.0362 0.2621
33.1200 22.0496 0.2628
33.1400 22.0629 0.2651
33.1600 22.0762 0.2599
33.1800 22.0896 0.2633
33.2000 22.1029 0.2603
33.2200 22.1163 0.2577
33.2400 22.1296 0.2570
33.2600 22.1429 0.2625
33.2800 22.1563 0.2602
33.3000 22.1696 0.2592
33.3200 22.1830 0.2607
33.3400 22.1963 0.2500
33.3600 22.2096 0.2607
33.3800 22.2229 0.2582
33.4000 22.2363 0.2503
33.4200 22.2496 0.2515
33.4400 22.2629 0.2608
33.4600 22.2762 0.2536
33.4800 22.2896 0.2522
33.5000 22.3029 0.2611
33.5200 22.3162 0.2500
33.5400 22.3296 0.2550
33.5600 22.3429 0.2593
33.5800 22.3563 0.2432
33.6000 22.3696 0.2527
33.6200 22.3829 0.2607
33.6400 22.3963 0.2423
33.6600 22.4096 0.2521
33.6800 22.4230 0.2575
33.7000 22.4363 0.2394
33.7200 22.4496 0.2526
33.7400 22.4630 0.2579
33.7600 22.4763 0.2407
33.7800 22.4896 0.2499
33.8000 22.5029 0.2590
33.8200 22.5162 0.2419
33.8400 22.5295 0.2492
33.8600 22.5428 0.2575
33.8800 22.5562 0.2354
33.9000 22.5695 0.2514
33.9200 22.5829 0.2492
33.9400 22.5963 0.2359
33.9600 22.6097 0.2527
33.9800 22.6230 0.2455
34.0000 22.6363 0.2412
34.0200 22.6497 0.2485
34.0400 22.6631 0.2422
34.0600 22.6763 0.2372
34.0800 22.6896 0.2501
34.1000 22.7029 0.2515
34.1200 22.7162 0.2385
34.1400 22.7295 0.2498
34.1600 22.7428 0.2476
34.1800 22.7562 0.2357
34.2000 22.7695 0.2498
34.2200 22.7829 0.2470
34.2400 22.7962 0.2337
34.2600 22.8096 0.2514
34.2800 22.8229 0.2490
34.3000 22.8363 0.2301
34.3200 22.8497 0.2543
34.3400 22.8630 0.2465
34.3600 22.8763 0.2342
34.3800 22.8897 0.2520
34.4000 22.9030 0.2391
34.4200 22.9163 0.2362
34.4400 22.9296 0.2492
34.4600 22.9429 0.2413
34.4800 22.9563 0.2360
34.5000 22.9696 0.2464
34.5200 22.9829 0.2393
34.5400 22.9962 0.2349
34.5600 23.0095 0.2464
34.5800 23.0229 0.2346
34.6000 23.0362 0.2368
34.6200 23.0496 0.2447
34.6400 23.0629 0.2356
34.6600 23.0763 0.2367
34.6800 23.0896 0.2417
34.7000 23.1030 0.2347
34.7200 23.1163 0.2400
34.7400 23.1296 0.2405
34.7600 23.1430 0.2303
34.7800 23.1563 0.2363
34.8000 23.1696 0.2429
34.8200 23.1829 0.2291
34.8400 23.1963 0.2368
34.8600 23.2096 0.2354
34.8800 23.2229 0.2325
34.9000 23.2362 0.2368
34.9200 23.2495 0.2354
34.9400 23.2629 0.2314
34.9600 23.2762 0.2363
34.9800 23.2896 0.2375
35.0000 23.3029 0.2320
35.0200 23.3163 0.2358
35.0400 23.3297 0.2351
35.0600 23.3430 0.2304
35.0800 23.3563 0.2371
35.1000 23.3696 0.2344
35.1200 23.3830 0.2269
35.1400 23.3963 0.2382
35.1600 23.4096 0.2359
35.1800 23.4229 0.2315
35.2000 23.4363 0.2358
35.2200 23.4496 0.2329
35.2400 23.4629 0.2290
35.2600 23.4762 0.2365
35.2800 23.4895 0.2330
35.3000 23.5029 0.2305
35.3200 23.5162 0.2300
35.3400 23.5295 0.2339
35.3600 23.5429 0.2270
35.3800 23.5563 0.2307
35.4000 23.5696 0.2325
35.4200 23.5830 0.2258
35.4400 23.5963 0.2290
35.4600 23.6096 0.2304
35.4800 23.6230 0.2292
35.5000 23.6364 0.2308
35.5200 23.6496 0.2278
35.5400 23.6629 0.2275
35.5600 23.6763 0.2316
35.5800 23.6896 0.2280
35.6000 23.7029 0.2200
35.6200 23.7162 0.2336
35.6400 23.7296 0.2243
35.6600 23.7429 0.2225
35.6800 23.7562 0.2298
35.7000 23.7696 0.2209
35.7200 23.7829 0.2264
35.7400 23.7963 0.2279
35.7600 23.8096 0.2151
35.7800 23.8230 0.2216
35.8000 23.8363 0.2299
35.8200 23.8496 0.2203
35.8400 23.8630 0.2204
35.8600 23.8763 0.2252
35.8800 23.8896 0.2229
35.9000 23.9029 0.2230
35.9200 23.9163 0.2251
35.9400 23.9296 0.2204
35.9600 23.9429 0.2205
35.9800 23.9562 0.2248
36.0000 23.9695 0.2198
36.0200 23.9829 0.2153
36.0400 23.9962 0.2274
36.0600 24.0095 0.2225
36.0800 24.0229 0.2156
36.1000 24.0363 0.2302
36.1200 24.0497 0.2185
36.1400 24.0630 0.2157
36.1600 24.0764 0.2257
36.1800 24.0897 0.2180
36.2000 24.1030 0.2208
36.2200 24.1163 0.2242
36.2400 24.1295 0.2157
36.2600 24.1428 0.2224
36.2800 24.1562 0.2257
36.3000 24.1695 0.2120
36.3200 24.1829 0.2206
36.3400 24.1962 0.2211
36.3600 24.2096 0.2154
36.3800 24.2229 0.2200
36.4000 24.2363 0.2176
36.4200 24.2496 0.2161
36.4400 24.2630 0.2178
36.4600 24.2763 0.2143
36.4800 24.2897 0.2157
36.5000 24.3030 0.2191
36.5200 24.3163 0.2163
36.5400 24.3296 0.2126
36.5600 24.3430 0.2160
36.5800 24.3563 0.2156
36.6000 24.3696 0.2139
36.6200 24.3829 0.2124
36.6400 24.3962 0.2140
36.6600 24.4096 0.2139
36.6800 24.4229 0.2119
36.7000 24.4362 0.2108
36.7200 24.4495 0.2154
36.7400 24.4629 0.2113
36.7600 24.4763 0.2083
36.7800 24.4896 0.2134
36.8000 24.5029 0.2121
36.8200 24.5163 0.2101
36.8400 24.5296 0.2139
36.8600 24.5430 0.2038
36.8800 24.5563 0.2102
36.9000 24.5696 0.2149
36.9200 24.5830 0.2044
36.9400 24.5963 0.2057
36.9600 24.6096 0.2137
36.9800 24.6229 0.2043
37.0000 24.6363 0.2124
37.0200 24.6496 0.2154
37.0400 24.6629 0.2049
37.0600 24.6762 0.2164
37.0800 24.6895 0.2098
37.1000 24.7029 0.2094
37.1200 24.7162 0.2154
37.1400 24.7296 0.2072
37.1600 24.7429 0.2075
37.1800 24.7563 0.2150
37.2000 24.7696 0.2104
37.2200 24.7830 0.2065
37.2400 24.7963 0.2134
37.2600 24.8096 0.2122
37.2800 24.8230 0.2050
37.3000 24.8363 0.2135
37.3200 24.8496 0.2067
37.3400 24.8629 0.2098
37.3600 24.8763 0.2135
37.3800 24.8896 0.2041
37.4000 24.9029 0.2059
37.4200 24.9162 0.2124
37.4400 24.9296 0.2015
37.4600 24.9429 0.2044
37.4800 24.9562 0.2135
37.5000 24.9696 0.2031
37.5200 24.9829 0.2063
37.5400 24.9962 0.2154
37.5600 25.0096 0.1983
37.5800 25.0229 0.2082
37.6000 25.0363 0.2140
37.6200 25.0496 0.1939
37.6400 25.0630 0.2104
37.6600 25.0763 0.2103
37.6800 25.0896 0.1974
37.7000 25.1029 0.2101
37.7200 25.1163 0.2068
37.7400 25.1296 0.1946
37.7600 25.1429 0.2077
37.7800 25.1562 0.2064
37.8000 25.1695 0.1982
37.8200 25.1829 0.2089
37.8400 25.1962 0.2022
37.8600 25.2096 0.1981
37.8800 25.2229 0.2093
37.9000 25.2363 0.1969
37.9200 25.2497 0.1979
37.9400 25.2630 0.2053
37.9600 25.2763 0.1976
37.9800 25.2896 0.2031
38.0000 25.3030 0.2017
38.0200 25.3163 0.1909
38.0400 25.3296 0.2048
38.0600 25.3429 0.1988
38.0800 25.3563 0.1962
38.1000 25.3696 0.2010
38.1200 25.3829 0.1916
38.1400 25.3962 0.1964
38.1600 25.4095 0.2019
38.1800 25.4229 0.1891
38.2000 25.4362 0.1992
38.2200 25.4495 0.1970
38.2400 25.4628 0.1881
38.2600 25.4762 0.2012
38.2800 25.4896 0.1999
38.3000 25.5029 0.1879
38.3200 25.5163 0.1974
38.3400 25.5296 0.1970
38.3600 25.5430 0.1888
38.3800 25.5563 0.1976
38.4000 25.5696 0.1918
38.4200 25.5829 0.1900
38.4400 25.5962 0.1953
38.4600 25.6096 0.1913
38.4800 25.6229 0.1926
38.5000 25.6362 0.1968
38.5200 25.6496 0.1885
38.5400 25.6629 0.1906
38.5600 25.6763 0.1915
38.5800 25.6896 0.1859
38.6000 25.7029 0.1890
38.6200 25.7163 0.1895
38.6400 25.7296 0.1807
38.6600 25.7429 0.1877
38.6800 25.7562 0.1943
38.7000 25.7695 0.1843
38.7200 25.7829 0.1908
38.7400 25.7963 0.1929
38.7600 25.8096 0.1830
38.7800 25.8230 0.1910
38.8000 25.8363 0.1907
38.8200 25.8497 0.1848
38.8400 25.8630 0.1899
38.8600 25.8763 0.1872
38.8800 25.8896 0.1840
38.9000 25.9029 0.1920
38.9200 25.9162 0.1887
38.9400 25.9295 0.1859
38.9600 25.9429 0.1931
38.9800 25.9562 0.1885
39.0000 25.9696 0.1846
39.0200 25.9830 0.1918
39.0400 25.9963 0.1868
39.0600 26.0096 0.1885
39.0800 26.0229 0.1903
39.1000 26.0363 0.1853
39.1200 26.0496 0.1925
39.1400 26.0629 0.1854
39.1600 26.0763 0.1868
39.1800 26.0896 0.1903
39.2000 26.1030 0.1836
39.2200 26.1162 0.1849
39.2400 26.1295 0.1890
39.2600 26.1429 0.1825
39.2800 26.1562 0.1838
39.3000 26.1695 0.1871
39.3200 26.1829 0.1843
39.3400 26.1963 0.1796
39.3600 26.2097 0.1823
39.3800 26.2230 0.1841
39.4000 26.2363 0.1837
39.4200 26.2497 0.1843
39.4400 26.2630 0.1825
39.4600 26.2763 0.1801
39.4800 26.2896 0.1840
39.5000 26.3029 0.1854
39.5200 26.3162 0.1827
39.5400 26.3296 0.1829
39.5600 26.3429 0.1857
39.5800 26.3562 0.1801
39.6000 26.3695 0.1795
39.6200 26.3829 0.1870
39.6400 26.3963 0.1777
39.6600 26.4096 0.1802
39.6800 26.4229 0.1862
39.7000 26.4363 0.1766
39.7200 26.4496 0.1764
39.7400 26.4630 0.1856
39.7600 26.4763 0.1774
39.7800 26.4896 0.1790
39.8000 26.5030 0.1840
39.8200 26.5163 0.1779
39.8400 26.5297 0.1767
39.8600 26.5429 0.1805
39.8800 26.5562 0.1763
39.9000 26.5696 0.1753
39.9200 26.5829 0.1805
39.9400 26.5962 0.1748
39.9600 26.6095 0.1765
39.9800 26.6228 0.1809
40.0000 26.6362 0.1743
40.0200 26.6496 0.1782
40.0400 26.6629 0.1771
40.0600 26.6763 0.1749
40.0800 26.6896 0.1774
40.1000 26.7030 0.1768
40.1200 26.7163 0.1719
40.1400 26.7296 0.1823
40.1600 26.7429 0.1772
40.1800 26.7563 0.1658
40.2000 26.7696 0.1861
40.2200 26.7829 0.1748
40.2400 26.7962 0.1698
40.2600 26.8096 0.1818
40.2800 26.8229 0.1745
40.3000 26.8363 0.1723
40.3200 26.8496 0.1794
40.3400 26.8629 0.1768
40.3600 26.8762 0.1719
40.3800 26.8896 0.1768
40.4000 26.9029 0.1692
40.4200 26.9162 0.1754
40.4400 26.9296 0.1760
40.4600 26.9430 0.1685
40.4800 26.9563 0.1729
40.5000 26.9696 0.1771
40.5200 26.9830 0.1717
40.5400 26.9963 0.1732
40.5600 27.0096 0.1760
40.5800 27.0229 0.1709
40.6000 27.0362 0.1773
40.6200 27.0496 0.1742
40.6400 27.0629 0.1757
40.6600 27.0762 0.1741
40.6800 27.0895 0.1666
40.7000 27.1029 0.1736
40.7200 27.1162 0.1761
40.7400 27.1296 0.1669
40.7600 27.1429 0.1739
40.7800 27.1562 0.1740
40.8000 27.1696 0.1675
40.8200 27.1829 0.1754
40.8400 27.1962 0.1732
40.8600 27.2096 0.1654
40.8800 27.2229 0.1739
40.9000 27.2363 0.1688
40.9200 27.2497 0.1639
40.9400 27.2630 0.1722
40.9600 27.2763 0.1707
40.9800 27.2897 0.1645
41.0000 27.3030 0.1731
41.0200 27.3163 0.1663
41.0400 27.3296 0.1695
41.0600 27.3428 0.1708
41.0800 27.3562 0.1679
41.1000 27.3695 0.1646
41.1200 27.3828 0.1670
41.1400 27.3962 0.1682
41.1600 27.4096 0.1617
41.1800 27.4230 0.1672
41.2000 27.4363 0.1651
41.2200 27.4497 0.1534
41.2400 27.4630 0.1647
41.2600 27.4764 0.1678
41.2800 27.4897 0.1559
41.3000 27.5030 0.1657
41.3200 27.5162 0.1647
41.3400 27.5296 0.1539
41.3600 27.5429 0.1654
41.3800 27.5562 0.1634
41.4000 27.5695 0.1541
41.4200 27.5828 0.1663
41.4400 27.5962 0.1616
41.4600 27.6096 0.1542
41.4800 27.6229 0.1659
41.5000 27.6362 0.1589
41.5200 27.6496 0.1574
41.5400 27.6630 0.1642
41.5600 27.6763 0.1591
41.5800 27.6896 0.1556
41.6000 27.7030 0.1639
41.6200 27.7163 0.1581
41.6400 27.7296 0.1563
41.6600 27.7429 0.1654
41.6800 27.7562 0.1570
41.7000 27.7696 0.1557
41.7200 27.7829 0.1609
41.7400 27.7962 0.1603
41.7600 27.8095 0.1530
41.7800 27.8229 0.1610
41.8000 27.8362 0.1589
41.8200 27.8496 0.1524
41.8400 27.8629 0.1593
41.8600 27.8763 0.1563
41.8800 27.8896 0.1512
41.9000 27.9030 0.1580
41.9200 27.9163 0.1530
41.9400 27.9296 0.1521
41.9600 27.9430 0.1602
41.9800 27.9563 0.1535
42.0000 27.9696 0.1534
42.0200 27.9829 0.1595
42.0400 27.9963 0.1533
42.0600 28.0096 0.1515
42.0800 28.0229 0.1567
42.1000 28.0362 0.1540
42.1200 28.0495 0.1535
42.1400 28.0629 0.1599
42.1600 28.0762 0.1564
42.1800 28.0896 0.1492
42.2000 28.1029 0.1552
42.2200 28.1163 0.1537
42.2400 28.1296 0.1478
42.2600 28.1430 0.1519
42.2800 28.1563 0.1527
42.3000 28.1696 0.1463
42.3200 28.1830 0.1558
42.3400 28.1963 0.1535
42.3600 28.2096 0.1475
42.3800 28.2229 0.1555
42.4000 28.2362 0.1539
42.4200 28.2495 0.1470
42.4400 28.2629 0.1546
42.4600 28.2763 0.1523
42.4800 28.2896 0.1468
42.5000 28.3029 0.1576
42.5200 28.3162 0.1497
42.5400 28.3296 0.1431
42.5600 28.3429 0.1577
42.5800 28.3562 0.1465
42.6000 28.3696 0.1412
42.6200 28.3829 0.1538
42.6400 28.3963 0.1421
42.6600 28.4096 0.1441
42.6800 28.4230 0.1558
42.7000 28.4363 0.1443
42.7200 28.4497 0.1465
42.7400 28.4630 0.1552
42.7600 28.4763 0.1442
42.7800 28.4896 0.1482
42.8000 28.5029 0.1553
42.8200 28.5163 0.1391
42.8400 28.5296 0.1461
42.8600 28.5429 0.1528
42.8800 28.5562 0.1395
42.9000 28.5696 0.1450
42.9200 28.5829 0.1484
42.9400 28.5963 0.1410
42.9600 28.6096 0.1477
42.9800 28.6230 0.1470
43.0000 28.6363 0.1382
43.0200 28.6496 0.1496
43.0400 28.6629 0.1498
43.0600 28.6763 0.1354
43.0800 28.6896 0.1485
43.1000 28.7030 0.1469
43.1200 28.7163 0.1403
43.1400 28.7296 0.1492
43.1600 28.7429 0.1446
43.1800 28.7563 0.1392
43.2000 28.7695 0.1452
43.2200 28.7829 0.1436
43.2400 28.7962 0.1424
43.2600 28.8095 0.1451
43.2800 28.8229 0.1404
43.3000 28.8362 0.1438
43.3200 28.8496 0.1417
43.3400 28.8630 0.1446
43.3600 28.8764 0.1421
43.3800 28.8897 0.1405
43.4000 28.9030 0.1456
43.4200 28.9164 0.1431
43.4400 28.9297 0.1401
43.4600 28.9429 0.1439
43.4800 28.9562 0.1426
43.5000 28.9695 0.1432
43.5200 28.9828 0.1428
43.5400 28.9962 0.1403
43.5600 29.0095 0.1414
43.5800 29.0229 0.1415
43.6000 29.0362 0.1350
43.6200 29.0496 0.1392
43.6400 29.0630 0.1429
43.6600 29.0763 0.1365
43.6800 29.0897 0.1430
43.7000 29.1030 0.1360
43.7200 29.1164 0.1333
43.7400 29.1296 0.1420
43.7600 29.1430 0.1336
43.7800 29.1563 0.1368
43.8000 29.1696 0.1379
43.8200 29.1829 0.1316
43.8400 29.1962 0.1408
43.8600 29.2096 0.1380
43.8800 29.2229 0.1290
43.9000 29.2362 0.1386
43.9200 29.2495 0.1407
43.9400 29.2629 0.1329
43.9600 29.2762 0.1425
43.9800 29.2896 0.1351
44.0000 29.3029 0.1305
44.0200 29.3163 0.1427
44.0400 29.3296 0.1311
44.0600 29.3430 0.1316
44.0800 29.3563 0.1429
44.1000 29.3696 0.1280
44.1200 29.3829 0.1332
44.1400 29.3963 0.1431
44.1600 29.4097 0.1293
44.1800 29.4230 0.1313
44.2000 29.4363 0.1405
44.2200 29.4496 0.1267
44.2400 29.4629 0.1346
44.2600 29.4763 0.1357
44.2800 29.4896 0.1276
44.3000 29.5029 0.1374
44.3200 29.5162 0.1354
44.3400 29.5296 0.1220
44.3600 29.5429 0.1406
44.3800 29.5562 0.1334
44.4000 29.5696 0.1200
44.4200 29.5829 0.1416
44.4400 29.5963 0.1290
44.4600 29.6096 0.1205
44.4800 29.6230 0.1430
44.5000 29.6363 0.1239
44.5200 29.6496 0.1220
44.5400 29.6629 0.1424
44.5600 29.6762 0.1193
44.5800 29.6896 0.1300
44.6000 29.7029 0.1407
44.6200 29.7163 0.1192
44.6400 29.7296 0.1316
44.6600 29.7429 0.1406
44.6800 29.7562 0.1140
44.7000 29.7696 0.1335
44.7200 29.7829 0.1364
44.7400 29.7962 0.1158
44.7600 29.8096 0.1364
44.7800 29.8229 0.1330
44.8000 29.8363 0.1137
44.8200 29.8496 0.1326
44.8400 29.8629 0.1297
44.8600 29.8763 0.1149
44.8800 29.8897 0.1380
44.9000 29.9030 0.1299
44.9200 29.9163 0.1141
44.9400 29.9296 0.1385
44.9600 29.9429 0.1226
44.9800 29.9562 0.1186
45.0000 29.9696 0.1376
45.0200 29.9829 0.1211
45.0400 29.9962 0.1191
45.0600 30.0096 0.1364
45.0800 30.0229 0.1194
45.1000 30.0362 0.1187
45.1200 30.0496 0.1351
45.1400 30.0630 0.1161
45.1600 30.0764 0.1185
45.1800 30.0897 0.1330
45.2000 30.1030 0.1152
45.2200 30.1163 0.1192
45.2400 30.1297 0.1318
45.2600 30.1430 0.1166
45.2800 30.1563 0.1140
45.3000 30.1696 0.1332
45.3200 30.1829 0.1154
45.3400 30.1963 0.1126
45.3600 30.2096 0.1336
45.3800 30.2229 0.1125
45.4000 30.2362 0.1198
45.4200 30.2495 0.1267
45.4400 30.2629 0.1161
45.4600 30.2762 0.1160
45.4800 30.2896 0.1280
45.5000 30.3029 0.1143
45.5200 30.3163 0.1126
45.5400 30.3297 0.1237
45.5600 30.3430 0.1152
45.5800 30.3563 0.1146
45.6000 30.3697 0.1234
45.6200 30.3830 0.1126
45.6400 30.3963 0.1149
45.6600 30.4095 0.1237
45.6800 30.4229 0.1185
45.7000 30.4362 0.1193
45.7200 30.4496 0.1238
45.7400 30.4629 0.1140
45.7600 30.4762 0.1137
45.7800 30.4896 0.1178
45.8000 30.5030 0.1134
45.8200 30.5163 0.1141
45.8400 30.5296 0.1175
45.8600 30.5429 0.1084
45.8800 30.5563 0.1165
45.9000 30.5696 0.1179
45.9200 30.5829 0.1103
45.9400 30.5962 0.1153
45.9600 30.6096 0.1195
45.9800 30.6230 0.1100
46.0000 30.6363 0.1160
46.0200 30.6496 0.1222
46.0400 30.6630 0.1161
46.0600 30.6763 0.1101
46.0800 30.6896 0.1189
46.1000 30.7029 0.1134
46.1200 30.7162 0.1142
46.1400 30.7296 0.1220
46.1600 30.7429 0.1076
46.1800 30.7562 0.1166
46.2000 30.7696 0.1204
46.2200 30.7829 0.1093
46.2400 30.7963 0.1172
46.2600 30.8096 0.1164
46.2800 30.8229 0.1075
46.3000 30.8363 0.1194
46.3200 30.8496 0.1100
46.3400 30.8630 0.1092
46.3600 30.8763 0.1172
46.3800 30.8896 0.1132
46.4000 30.9030 0.1145
46.4200 30.9163 0.1166
46.4400 30.9296 0.1069
46.4600 30.9429 0.1159
46.4800 30.9562 0.1147
46.5000 30.9695 0.1064
46.5200 30.9829 0.1144
46.5400 30.9962 0.1106
46.5600 31.0096 0.1058
46.5800 31.0229 0.1161
46.6000 31.0363 0.1064
46.6200 31.0497 0.1066
46.6400 31.0630 0.1140
46.6600 31.0763 0.1054
46.6800 31.0896 0.1080
46.7000 31.1030 0.1133
46.7200 31.1163 0.1028
46.7400 31.1296 0.1095
46.7600 31.1429 0.1102
46.7800 31.1563 0.1035
46.8000 31.1696 0.1143
46.8200 31.1829 0.1076
46.8400 31.1962 0.1027
46.8600 31.2096 0.1121
46.8800 31.2229 0.1043
46.9000 31.2362 0.1017
46.9200 31.2496 0.1114
46.9400 31.2629 0.1069
46.9600 31.2763 0.1035
46.9800 31.2896 0.1056
47.0000 31.3030 0.1100
47.0200 31.3163 0.1038
47.0400 31.3297 0.1090
47.0600 31.3430 0.1052
47.0800 31.3563 0.1056
47.1000 31.3696 0.1059
47.1200 31.3829 0.1049
47.1400 31.3963 0.1014
47.1600 31.4096 0.1058
47.1800 31.4229 0.1034
47.2000 31.4362 0.1036
47.2200 31.4495 0.1098
47.2400 31.4629 0.1040
47.2600 31.4762 0.1014
47.2800 31.4896 0.1099
47.3000 31.5029 0.0988
47.3200 31.5163 0.1018
47.3400 31.5296 0.1093
47.3600 31.5430 0.0971
47.3800 31.5563 0.1072
47.4000 31.5696 0.1048
47.4200 31.5830 0.0933
47.4400 31.5963 0.1064
47.4600 31.6096 0.1045
47.4800 31.6229 0.0947
47.5000 31.6363 0.1046
47.5200 31.6496 0.1026
47.5400 31.6629 0.0951
47.5600 31.6762 0.1081
47.5800 31.6896 0.1010
47.6000 31.7029 0.0936
47.6200 31.7162 0.1044
47.6400 31.7296 0.0993
47.6600 31.7429 0.0965
47.6800 31.7563 0.0997
47.7000 31.7697 0.1006
47.7200 31.7830 0.0958
47.7400 31.7963 0.1026
47.7600 31.8097 0.0999
47.7800 31.8230 0.0930
47.8000 31.8363 0.1016
47.8200 31.8496 0.0990
47.8400 31.8629 0.0927
47.8600 31.8762 0.1042
47.8800 31.8896 0.1026
47.9000 31.9029 0.0908
47.9200 31.9162 0.0978
47.9400 31.9296 0.1027
47.9600 31.9429 0.0914
47.9800 31.9562 0.0977
48.0000 31.9696 0.1047
48.0200 31.9829 0.0887
48.0400 31.9963 0.0919
48.0600 32.0096 0.1048
48.0800 32.0229 0.0895
48.1000 32.0362 0.0992
48.1200 32.0496 0.1005
48.1400 32.0630 0.0885
48.1600 32.0763 0.0964
48.1800 32.0896 0.1026
48.2000 32.1030 0.0952
48.2200 32.1163 0.0928
48.2400 32.1296 0.0960
48.2600 32.1429 0.0920
48.2800 32.1562 0.0976
48.3000 32.1695 0.0950
48.3200 32.1828 0.0888
48.3400 32.1961 0.1028
48.3600 32.2095 0.0925
48.3800 32.2229 0.0869
48.4000 32.2363 0.1001
48.4200 32.2497 0.0914
48.4400 32.2630 0.0879
48.4600 32.2763 0.0980
48.4800 32.2897 0.0920
48.5000 32.3030 0.0911
48.5200 32.3163 0.0932
48.5400 32.3296 0.0909
48.5600 32.3429 0.0951
48.5800 32.3562 0.0903
48.6000 32.3696 0.0890
48.6200 32.3829 0.0911
48.6400 32.3962 0.0934
48.6600 32.4095 0.0921
48.6800 32.4229 0.0885
48.7000 32.4362 0.0888
48.7200 32.4496 0.0924
48.7400 32.4629 0.0861
48.7600 32.4763 0.0921
48.7800 32.4897 0.0870
48.8000 32.5030 0.0878
48.8200 32.5163 0.0908
48.8400 32.5297 0.0844
48.8600 32.5430 0.0930
48.8800 32.5563 0.0895
48.9000 32.5696 0.0880
48.9200 32.5829 0.0911
48.9400 32.5962 0.0916
48.9600 32.6096 0.0868
48.9800 32.6229 0.0877
49.0000 32.6362 0.0917
49.0200 32.6496 0.0807
49.0400 32.6629 0.0920
49.0600 32.6763 0.0907
49.0800 32.6896 0.0817
49.1000 32.7029 0.0923
49.1200 32.7163 0.0871
49.1400 32.7297 0.0849
49.1600 32.7430 0.0909
49.1800 32.7563 0.0906
49.2000 32.7696 0.0826
49.2200 32.7830 0.0903
49.2400 32.7963 0.0878
49.2600 32.8096 0.0799
49.2800 32.8229 0.0920
49.3000 32.8363 0.0876
49.3200 32.8496 0.0829
49.3400 32.8629 0.0939
49.3600 32.8762 0.0862
49.3800 32.8895 0.0900
49.4000 32.9029 0.0890
49.4200 32.9162 0.0818
49.4400 32.9296 0.0888
49.4600 32.9429 0.0900
49.4800 32.9563 0.0855
49.5000 32.9697 0.0820
49.5200 32.9830 0.0874
49.5400 32.9963 0.0816
49.5600 33.0096 0.0846
49.5800 33.0230 0.0915
49.6000 33.0363 0.0794
49.6200 33.0496 0.0853
49.6400 33.0629 0.0868
49.6600 33.0762 0.0829
49.6800 33.0896 0.0788
49.7000 33.1029 0.0876
49.7200 33.1162 0.0810
49.7400 33.1296 0.0779
49.7600 33.1429 0.0908
49.7800 33.1562 0.0804
49.8000 33.1695 0.0795
49.8200 33.1829 0.0847
49.8400 33.1963 0.0805
49.8600 33.2096 0.0814
49.8800 33.2230 0.0834
49.9000 33.2363 0.0763
49.9200 33.2496 0.0800
49.9400 33.2630 0.0817
49.9600 33.2764 0.0796
49.9800 33.2896 0.0796
50.0000 33.3029 0.0858
50.0200 33.3163 0.0778
50.0400 33.3296 0.0801
50.0600 33.3429 0.0791
50.0800 33.3562 0.0803
50.1000 33.3695 0.0778
50.1200 33.3829 0.0786
50.1400 33.3963 0.0801
50.1600 33.4096 0.0753
50.1800 33.4229 0.0792
50.2000 33.4363 0.0810
50.2200 33.4496 0.0690
50.2400 33.4629 0.0807
50.2600 33.4763 0.0797
50.2800 33.4896 0.0731
50.3000 33.5030 0.0795
50.3200 33.5163 0.0790
50.3400 33.5296 0.0732
50.3600 33.5429 0.0822
50.3800 33.5563 0.0819
50.4000 33.5696 0.0713
50.4200 33.5829 0.0772
50.4400 33.5962 0.0781
50.4600 33.6096 0.0777
50.4800 33.6229 0.0790
50.5000 33.6362 0.0768
50.5200 33.6495 0.0756
50.5400 33.6629 0.0767
50.5600 33.6763 0.0761
50.5800 33.6897 0.0743
50.6000 33.7030 0.0742
50.6200 33.7163 0.0792
50.6400 33.7297 0.0690
50.6600 33.7430 0.0740
50.6800 33.7563 0.0756
50.7000 33.7696 0.0743
50.7200 33.7828 0.0765
50.7400 33.7962 0.0778
50.7600 33.8095 0.0675
50.7800 33.8229 0.0725
50.8000 33.8362 0.0774
50.8200 33.8496 0.0701
50.8400 33.8629 0.0729
50.8600 33.8763 0.0738
50.8800 33.8896 0.0687
50.9000 33.9030 0.0751
50.9200 33.9163 0.0730
50.9400 33.9297 0.0659
50.9600 33.9430 0.0755
50.9800 33.9562 0.0746
51.0000 33.9695 0.0674
51.0200 33.9829 0.0752
51.0400 33.9962 0.0705
51.0600 34.0096 0.0704
51.0800 34.0229 0.0738
51.1000 34.0362 0.0660
51.1200 34.0496 0.0725
51.1400 34.0629 0.0691
51.1600 34.0762 0.0689
51.1800 34.0895 0.0745
51.2000 34.1029 0.0685
51.2200 34.1163 0.0708
51.2400 34.1296 0.0701
51.2600 34.1429 0.0692
51.2800 34.1563 0.0676
51.3000 34.1697 0.0716
51.3200 34.1830 0.0678
51.3400 34.1963 0.0720
51.3600 34.2096 0.0715
51.3800 34.2230 0.0642
51.4000 34.2363 0.0705
51.4200 34.2496 0.0676
51.4400 34.2629 0.0707
51.4600 34.2763 0.0698
51.4800 34.2896 0.0654
51.5000 34.3030 0.0706
51.5200 34.3162 0.0675
51.5400 34.3295 0.0699
51.5600 34.3429 0.0710
51.5800 34.3562 0.0630
51.6000 34.3696 0.0687
51.6200 34.3829 0.0657
51.6400 34.3963 0.0663
51.6600 34.4096 0.0666
51.6800 34.4230 0.0671
51.7000 34.4363 0.0620
51.7200 34.4497 0.0685
51.7400 34.4630 0.0623
51.7600 34.4763 0.0615
51.7800 34.4896 0.0688
51.8000 34.5029 0.0622
51.8200 34.5162 0.0657
51.8400 34.5296 0.0695
51.8600 34.5429 0.0579
51.8800 34.5562 0.0668
51.9000 34.5696 0.0726
51.9200 34.5829 0.0597
51.9400 34.5962 0.0631
51.9600 34.6096 0.0662
51.9800 34.6229 0.0590
52.0000 34.6362 0.0618
52.0200 34.6496 0.0676
52.0400 34.6629 0.0596
52.0600 34.6763 0.0612
52.0800 34.6896 0.0612
52.1000 34.7030 0.0608
52.1200 34.7163 0.0635
52.1400 34.7296 0.0593
52.1600 34.7429 0.0590
52.1800 34.7563 0.0640
52.2000 34.7696 0.0605
52.2200 34.7829 0.0581
52.2400 34.7962 0.0639
52.2600 34.8095 0.0635
52.2800 34.8229 0.0568
52.3000 34.8362 0.0578
52.3200 34.8496 0.0595
52.3400 34.8629 0.0571
52.3600 34.8763 0.0624
52.3800 34.8897 0.0593
52.4000 34.9030 0.0509
52.4200 34.9163 0.0637
52.4400 34.9296 0.0595
52.4600 34.9430 0.0535
52.4800 34.9563 0.0599
52.5000 34.9696 0.0582
52.5200 34.9829 0.0558
52.5400 34.9962 0.0598
52.5600 35.0096 0.0608
52.5800 35.0229 0.0553
52.6000 35.0362 0.0556
52.6200 35.0495 0.0624
52.6400 35.0629 0.0532
52.6600 35.0762 0.0572
52.6800 35.0896 0.0590
52.7000 35.1029 0.0534
52.7200 35.1162 0.0572
52.7400 35.1296 0.0573
52.7600 35.1430 0.0505
52.7800 35.1563 0.0563
52.8000 35.1696 0.0569
52.8200 35.1830 0.0528
52.8400 35.1963 0.0535
52.8600 35.2096 0.0566
52.8800 35.2229 0.0557
52.9000 35.2362 0.0521
52.9200 35.2496 0.0593
52.9400 35.2629 0.0502
52.9600 35.2762 0.0544
52.9800 35.2896 0.0605
53.0000 35.3029 0.0536
53.0200 35.3163 0.0512
53.0400 35.3297 0.0552
53.0600 35.3430 0.0529
53.0800 35.3563 0.0529
53.1000 35.3696 0.0539
53.1200 35.3829 0.0521
53.1400 35.3962 0.0481
53.1600 35.4095 0.0560
53.1800 35.4229 0.0503
53.2000 35.4363 0.0512
53.2200 35.4496 0.0583
53.2400 35.4629 0.0502
53.2600 35.4763 0.0497
53.2800 35.4897 0.0570
53.3000 35.5030 0.0457
53.3200 35.5163 0.0515
53.3400 35.5296 0.0550
53.3600 35.5429 0.0471
53.3800 35.5562 0.0472
53.4000 35.5695 0.0528
53.4200 35.5829 0.0482
53.4400 35.5962 0.0473
53.4600 35.6096 0.0530
53.4800 35.6230 0.0424
53.5000 35.6363 0.0463
53.5200 35.6496 0.0558
53.5400 35.6630 0.0431
53.5600 35.6763 0.0464
53.5800 35.6896 0.0545
53.6000 35.7029 0.0450
53.6200 35.7163 0.0459
53.6400 35.7296 0.0504
53.6600 35.7429 0.0468
53.6800 35.7562 0.0441
53.7000 35.7695 0.0480
53.7200 35.7829 0.0463
53.7400 35.7962 0.0418
53.7600 35.8096 0.0493
53.7800 35.8229 0.0467
53.8000 35.8363 0.0404
53.8200 35.8496 0.0467
53.8400 35.8630 0.0446
53.8600 35.8763 0.0402
53.8800 35.8896 0.0455
53.9000 35.9030 0.0431
53.9200 35.9163 0.0407
53.9400 35.9296 0.0465
53.9600 35.9429 0.0402
53.9800 35.9562 0.0462
54.0000 35.9696 0.0462
54.0200 35.9829 0.0379
54.0400 35.9962 0.0422
54.0600 36.0095 0.0484
54.0800 36.0229 0.0409
54.1000 36.0363 0.0424
54.1200 36.0496 0.0469
54.1400 36.0629 0.0365
54.1600 36.0763 0.0449
54.1800 36.0896 0.0451
54.2000 36.1030 0.0383
54.2200 36.1163 0.0438
54.2400 36.1296 0.0428
54.2600 36.1430 0.0407
54.2800 36.1563 0.0391
54.3000 36.1697 0.0462
54.3200 36.1829 0.0389
54.3400 36.1963 0.0400
54.3600 36.2096 0.0444
54.3800 36.2229 0.0358
54.4000 36.2362 0.0397
54.4200 36.2495 0.0474
54.4400 36.2629 0.0404
54.4600 36.2762 0.0358
54.4800 36.2896 0.0478
54.5000 36.3029 0.0388
54.5200 36.3163 0.0385
54.5400 36.3297 0.0450
54.5600 36.3430 0.0345
54.5800 36.3563 0.0404
54.6000 36.3696 0.0427
54.6200 36.3829 0.0350
54.6400 36.3963 0.0413
54.6600 36.4096 0.0405
54.6800 36.4229 0.0349
54.7000 36.4362 0.0384
54.7200 36.4496 0.0450
54.7400 36.4629 0.0346
54.7600 36.4762 0.0361
54.7800 36.4896 0.0414
54.8000 36.5029 0.0376
54.8200 36.5162 0.0378
54.8400 36.5296 0.0380
54.8600 36.5429 0.0340
54.8800 36.5562 0.0394
54.9000 36.5696 0.0331
54.9200 36.5830 0.0331
54.9400 36.5963 0.0342
54.9600 36.6096 0.0349
54.9800 36.6230 0.0333
55.0000 36.6363 0.0363
55.0200 36.6496 0.0327
55.0400 36.6629 0.0370
55.0600 36.6762 0.0366
55.0800 36.6895 0.0304
55.1000 36.7029 0.0393
55.1200 36.7162 0.0364
55.1400 36.7295 0.0321
55.1600 36.7429 0.0389
55.1800 36.7562 0.0353
55.2000 36.7696 0.0286
55.2200 36.7829 0.0343
55.2400 36.7962 0.0380
55.2600 36.8096 0.0281
55.2800 36.8229 0.0377
55.3000 36.8363 0.0334
55.3200 36.8496 0.0272
55.3400 36.8629 0.0404
55.3600 36.8763 0.0345
55.3800 36.8897 0.0241
55.4000 36.9030 0.0372
55.4200 36.9163 0.0383
55.4400 36.9296 0.0263
55.4600 36.9430 0.0380
55.4800 36.9563 0.0369
55.5000 36.9695 0.0251
55.5200 36.9828 0.0329
55.5400 36.9961 0.0342
55.5600 37.0095 0.0248
55.5800 37.0228 0.0326
55.6000 37.0362 0.0365
55.6200 37.0496 0.0267
55.6400 37.0630 0.0298
55.6600 37.0764 0.0286
55.6800 37.0897 0.0257
55.7000 37.1030 0.0337
55.7200 37.1164 0.0273
55.7400 37.1297 0.0206
55.7600 37.1430 0.0353
55.7800 37.1563 0.0280
55.8000 37.1696 0.0195
55.8200 37.1829 0.0327
55.8400 37.1962 0.0262
55.8600 37.2095 0.0204
55.8800 37.2228 0.0341
55.9000 37.2362 0.0237
55.9200 37.2496 0.0233
55.9400 37.2629 0.0346
55.9600 37.2762 0.0223
55.9800 37.2896 0.0214
56.0000 37.3030 0.0314
56.0200 37.3163 0.0193
56.0400 37.3296 0.0213
56.0600 37.3430 0.0284
56.0800 37.3563 0.0211
56.1000 37.3697 0.0200
56.1200 37.3830 0.0324
56.1400 37.3963 0.0215
56.1600 37.4096 0.0212
56.1800 37.4229 0.0307
56.2000 37.4362 0.0215
56.2200 37.4495 0.0234
56.2400 37.4629 0.0323
56.2600 37.4762 0.0228
56.2800 37.4896 0.0163
56.3000 37.5029 0.0279
56.3200 37.5162 0.0246
56.3400 37.5296 0.0209
56.3600 37.5430 0.0336
56.3800 37.5563 0.0172
56.4000 37.5696 0.0195
56.4200 37.5829 0.0319
56.4400 37.5963 0.0170
56.4600 37.6096 0.0186
56.4800 37.6230 0.0290
56.5000 37.6363 0.0198
56.5200 37.6496 0.0177
56.5400 37.6629 0.0314
56.5600 37.6763 0.0155
56.5800 37.6896 0.0181
56.6000 37.7028 0.0319
56.6200 37.7162 0.0131
56.6400 37.7296 0.0194
56.6600 37.7429 0.0269
56.6800 37.7562 0.0126
56.7000 37.7696 0.0210
56.7200 37.7830 0.0235
56.7400 37.7963 0.0092
56.7600 37.8097 0.0178
56.7800 37.8230 0.0242
56.8000 37.8363 0.0133
56.8200 37.8496 0.0172
56.8400 37.8629 0.0231
56.8600 37.8762 0.0135
56.8800 37.8896 0.0186
56.9000 37.9029 0.0207
56.9200 37.9163 0.0139
56.9400 37.9296 0.0212
56.9600 37.9429 0.0169
56.9800 37.9562 0.0167
57.0000 37.9696 0.0175
57.0200 37.9829 0.0160
57.0400 37.9962 0.0131
57.0600 38.0096 0.0185
57.0800 38.0230 0.0176
57.1000 38.0363 0.0144
57.1200 38.0496 0.0127
57.1400 38.0630 0.0197
57.1600 38.0763 0.0122
57.1800 38.0897 0.0146
57.2000 38.1030 0.0206
57.2200 38.1163 0.0134
57.2400 38.1296 0.0099
57.2600 38.1429 0.0215
57.2800 38.1562 0.0103
57.3000 38.1696 0.0089
57.3200 38.1829 0.0232
57.3400 38.1962 0.0121
57.3600 38.2096 0.0063
57.3800 38.2229 0.0202
57.4000 38.2362 0.0121
57.4200 38.2496 0.0075
57.4400 38.2630 0.0238
57.4600 38.2763 0.0029
57.4800 38.2896 0.0040
57.5000 38.3029 0.0265
57.5200 38.3163 0.0012
57.5400 38.3297 0.0071
57.5600 38.3430 0.0230
57.5800 38.3563 -0.0006
57.6000 38.3696 0.0089
57.6200 38.3829 0.0210
57.6400 38.3963 0.0003
57.6600 38.4096 0.0065
57.6800 38.4228 0.0189
57.7000 38.4362 -0.0004
57.7200 38.4495 0.0065
57.7400 38.4629 0.0216
57.7600 38.4762 0.0000
57.7800 38.4896 0.0066
57.8000 38.5030 0.0180
57.8200 38.5164 -0.0045
57.8400 38.5297 0.0071
57.8600 38.5430 0.0154
57.8800 38.5563 -0.0007
57.9000 38.5697 0.0080
57.9200 38.5829 0.0131
57.9400 38.5962 -0.0002
57.9600 38.6095 0.0131
57.9800 38.6228 0.0114
58.0000 38.6362 -0.0056
58.0200 38.6495 0.0109
58.0400 38.6629 0.0102
58.0600 38.6762 0.0020
58.0800 38.6896 0.0092
58.1000 38.7030 0.0064
58.1200 38.7163 0.0044
58.1400 38.7296 0.0095
58.1600 38.7430 0.0006
58.1800 38.7563 0.0009
58.2000 38.7696 0.0082
58.2200 38.7829 0.0002
58.2400 38.7963 0.0046
58.2600 38.8096 0.0026
58.2800 38.8229 -0.0002
58.3000 38.8362 0.0054
58.3200 38.8496 0.0045
58.3400 38.8629 0.0021
58.3600 38.8763 0.0008
58.3800 38.8896 0.0004
58.4000 38.9029 0.0001
58.4200 38.9162 0.0076
58.4400 38.9296 -0.0016
58.4600 38.9429 -0.0017
58.4800 38.9563 0.0086
58.5000 38.9696 0.0016
58.5200 38.9830 -0.0051
58.5400 38.9963 0.0068
58.5600 39.0096 -0.0016
58.5800 39.0229 -0.0024
58.6000 39.0363 0.0019
58.6200 39.0497 -0.0008
58.6400 39.0630 -0.0043
58.6600 39.0763 0.0027
58.6800 39.0896 0.0026
58.7000 39.1029 -0.0052
58.7200 39.1163 0.0043
58.7400 39.1296 0.0012
58.7600 39.1429 -0.0044
58.7800 39.1562 0.0002
58.8000 39.1696 -0.0038
58.8200 39.1829 -0.0032
58.8400 39.1962 -0.0033
58.8600 39.2096 0.0026
58.8800 39.2229 -0.0089
58.9000 39.2363 -0.0008
58.9200 39.2496 0.0003
58.9400 39.2630 -0.0062
58.9600 39.2763 0.0012
58.9800 39.2896 -0.0058
59.0000 39.3030 -0.0073
59.0200 39.3163 -0.0027
59.0400 39.3296 -0.0025
59.0600 39.3429 -0.0033
59.0800 39.3563 -0.0078
59.1000 39.3696 -0.0048
59.1200 39.3829 -0.0017
59.1400 39.3962 -0.0082
59.1600 39.4096 -0.0023
59.1800 39.4229 -0.0068
59.2000 39.4362 -0.0055
59.2200 39.4496 -0.0080
59.2400 39.4629 -0.0034
59.2600 39.4763 -0.0050
59.2800 39.4896 -0.0062
59.3000 39.5029 -0.0054
59.3200 39.5163 -0.0061
59.3400 39.5297 -0.0032
59.3600 39.5430 -0.0097
59.3800 39.5563 -0.0038
59.4000 39.5696 -0.0074
59.4200 39.5829 -0.0149
59.4400 39.5962 -0.0029
59.4600 39.6096 -0.0121
59.4800 39.6229 -0.0116
59.5000 39.6362 -0.0044
59.5200 39.6496 -0.0109
59.5400 39.6629 -0.0153
59.5600 39.6762 -0.0073
59.5800 39.6896 -0.0099
59.6000 39.7030 -0.0147
59.6200 39.7164 -0.0113
59.6400 39.7297 -0.0082
59.6600 39.7430 -0.0145
59.6800 39.7563 -0.0127
59.7000 39.7696 -0.0072
59.7200 39.7830 -0.0166
59.7400 39.7963 -0.0122
59.7600 39.8096 -0.0087
59.7800 39.8229 -0.0148
59.8000 39.8363 -0.0165
59.8200 39.8496 -0.0122
59.8400 39.8629 -0.0142
59.8600 39.8762 -0.0141
59.8800 39.8896 -0.0094
59.9000 39.9029 -0.0148
59.9200 39.9162 -0.0152
59.9400 39.9296 -0.0127
59.9600 39.9429 -0.0175
59.9800 39.9563 -0.0161
60.0000 39.9697 -0.0114
60.0200 39.9830 -0.0191
60.0400 39.9963 -0.0210
60.0460 40.0002 -0.0310
