Raw Data
Time Displacement Force
(s) (mm) (N)
0.0000 0.0000 0.3180
0.0200 0.0001 0.3421
0.0400 0.0022 0.3997
0.0600 0.0101 0.3916
0.0800 0.0220 0.3237
0.1000 0.0345 0.3144
0.1200 0.0472 0.3549
0.1400 0.0607 0.3310
0.1600 0.0747 0.3255
0.1800 0.0889 0.3354
0.2000 0.1028 0.3214
0.2200 0.1164 0.3244
0.2400 0.1297 0.3336
0.2600 0.1430 0.3274
0.2800 0.1564 0.3354
0.3000 0.1698 0.3399
0.3200 0.1831 0.3205
0.3400 0.1965 0.3411
0.3600 0.2098 0.3302
0.3800 0.2231 0.3235
0.4000 0.2365 0.3393
0.4200 0.2498 0.3266
0.4400 0.2631 0.3255
0.4600 0.2764 0.3354
0.4800 0.2898 0.3247
0.5000 0.3031 0.3318
0.5200 0.3164 0.3329
0.5400 0.3297 0.3233
0.5600 0.3431 0.3314
0.5800 0.3565 0.3264
0.6000 0.3698 0.3207
0.6200 0.3831 0.3346
0.6400 0.3965 0.3231
0.6600 0.4099 0.3164
0.6800 0.4232 0.3356
0.7000 0.4365 0.3206
0.7200 0.4499 0.3170
0.7400 0.4632 0.3354
0.7600 0.4765 0.3175
0.7800 0.4899 0.3202
0.8000 0.5032 0.3269
0.8200 0.5165 0.3178
0.8400 0.5298 0.3255
0.8600 0.5432 0.3275
0.8800 0.5564 0.3175
0.9000 0.5697 0.3240
0.9200 0.5831 0.3258
0.9400 0.5964 0.3142
0.9600 0.6098 0.3217
0.9800 0.6231 0.3244
1.0000 0.6364 0.3129
1.0200 0.6498 0.3186
1.0400 0.6632 0.3193
1.0600 0.6765 0.3088
1.0800 0.6898 0.3208
1.1000 0.7032 0.3169
1.1200 0.7165 0.3045
1.1400 0.7298 0.3104
1.1600 0.7431 0.3159
1.1800 0.7565 0.3075
1.2000 0.7698 0.3085
1.2200 0.7832 0.3116
1.2400 0.7965 0.3065
1.2600 0.8098 0.3055
1.2800 0.8231 0.3129
1.3000 0.8364 0.3061
1.3200 0.8498 0.3001
1.3400 0.8631 0.3128
1.3600 0.8764 0.3057
1.3800 0.8898 0.2958
1.4000 0.9032 0.3122
1.4200 0.9165 0.2982
1.4400 0.9298 0.2964
1.4600 0.9432 0.3090
1.4800 0.9565 0.3016
1.5000 0.9699 0.2960
1.5200 0.9832 0.3098
1.5400 0.9965 0.2999
1.5600 1.0098 0.2947
1.5800 1.0231 0.3096
1.6000 1.0364 0.2980
1.6200 1.0497 0.2979
1.6400 1.0631 0.3025
1.6600 1.0764 0.2948
1.6800 1.0898 0.2973
1.7000 1.1031 0.3028
1.7200 1.1165 0.2969
1.7400 1.1299 0.2899
1.7600 1.1432 0.2971
1.7800 1.1566 0.2936
1.8000 1.1699 0.2874
1.8200 1.1832 0.2991
1.8400 1.1965 0.2929
1.8600 1.2099 0.2855
1.8800 1.2232 0.2951
1.9000 1.2365 0.2900
1.9200 1.2498 0.2844
1.9400 1.2632 0.2916
1.9600 1.2765 0.2847
1.9800 1.2898 0.2863
2.0000 1.3031 0.2905
2.0200 1.3164 0.2849
2.0400 1.3298 0.2847
2.0600 1.3431 0.2903
2.0800 1.3565 0.2848
2.1000 1.3698 0.2861
2.1200 1.3832 0.2874
2.1400 1.3966 0.2841
2.1600 1.4099 0.2867
2.1800 1.4232 0.2908
2.2000 1.4365 0.2833
2.2200 1.4499 0.2835
2.2400 1.4631 0.2867
2.2600 1.4764 0.2837
2.2800 1.4898 0.2819
2.3000 1.5031 0.2858
2.3200 1.5164 0.2820
2.3400 1.5298 0.2819
2.3600 1.5431 0.2860
2.3800 1.5565 0.2818
2.4000 1.5699 0.2844
2.4200 1.5832 0.2809
2.4400 1.5965 0.2806
2.4600 1.6098 0.2797
2.4800 1.6232 0.2803
2.5000 1.6365 0.2791
2.5200 1.6498 0.2779
2.5400 1.6631 0.2791
2.5600 1.6765 0.2785
2.5800 1.6899 0.2747
2.6000 1.7032 0.2758
2.6200 1.7165 0.2757
2.6400 1.7298 0.2720
2.6600 1.7432 0.2729
2.6800 1.7565 0.2735
2.7000 1.7698 0.2691
2.7200 1.7831 0.2668
2.7400 1.7965 0.2686
2.7600 1.8098 0.2666
2.7800 1.8231 0.2642
2.8000 1.8364 0.2730
2.8200 1.8498 0.2663
2.8400 1.8632 0.2653
2.8600 1.8765 0.2665
2.8800 1.8898 0.2700
2.9000 1.9032 0.2662
2.9200 1.9165 0.2674
2.9400 1.9299 0.2660
2.9600 1.9432 0.2626
2.9800 1.9565 0.2688
3.0000 1.9698 0.2667
3.0200 1.9832 0.2612
3.0400 1.9965 0.2646
3.0600 2.0098 0.2659
3.0800 2.0231 0.2599
3.1000 2.0364 0.2659
3.1200 2.0498 0.2643
3.1400 2.0631 0.2603
3.1600 2.0765 0.2638
3.1800 2.0898 0.2623
3.2000 2.1032 0.2596
3.2200 2.1165 0.2642
3.2400 2.1299 0.2604
3.2600 2.1432 0.2599
3.2800 2.1566 0.2605
3.3000 2.1699 0.2596
3.3200 2.1832 0.2565
3.3400 2.1965 0.2671
3.3600 2.2098 0.2598
3.3800 2.2231 0.2550
3.4000 2.2365 0.2616
3.4200 2.2498 0.2575
3.4400 2.2631 0.2573
3.4600 2.2765 0.2576
3.4800 2.2898 0.2550
3.5000 2.3031 0.2596
3.5200 2.3165 0.2527
3.5400 2.3298 0.2559
3.5600 2.3432 0.2499
3.5800 2.3565 0.2509
3.6000 2.3699 0.2531
3.6200 2.3832 0.2496
3.6400 2.3965 0.2524
3.6600 2.4099 0.2506
3.6800 2.4232 0.2479
3.7000 2.4365 0.2468
3.7200 2.4498 0.2476
3.7400 2.4632 0.2443
3.7600 2.4765 0.2416
3.7800 2.4898 0.2507
3.8000 2.5031 0.2410
3.8200 2.5164 0.2400
3.8400 2.5298 0.2451
3.8600 2.5431 0.2399
3.8800 2.5564 0.2388
3.9000 2.5698 0.2451
3.9200 2.5832 0.2402
3.9400 2.5966 0.2303
3.9600 2.6099 0.2443
3.9800 2.6232 0.2388
4.0000 2.6365 0.2341
4.0200 2.6498 0.2447
4.0400 2.6632 0.2384
4.0600 2.6765 0.2298
4.0800 2.6898 0.2471
4.1000 2.7031 0.2334
4.1200 2.7165 0.2271
4.1400 2.7298 0.2479
4.1600 2.7431 0.2331
4.1800 2.7564 0.2291
4.2000 2.7698 0.2472
4.2200 2.7831 0.2276
4.2400 2.7964 0.2305
4.2600 2.8098 0.2437
4.2800 2.8232 0.2259
4.3000 2.8365 0.2263
4.3200 2.8499 0.2435
4.3400 2.8632 0.2294
4.3600 2.8765 0.2291
4.3800 2.8899 0.2382
4.4000 2.9032 0.2263
4.4200 2.9165 0.2338
4.4400 2.9298 0.2387
4.4600 2.9431 0.2217
4.4800 2.9565 0.2323
4.5000 2.9698 0.2307
4.5200 2.9831 0.2277
4.5400 2.9964 0.2338
4.5600 3.0098 0.2291
4.5800 3.0231 0.2273
4.6000 3.0365 0.2307
4.6200 3.0498 0.2292
4.6400 3.0631 0.2291
4.6600 3.0765 0.2253
4.6800 3.0898 0.2271
4.7000 3.1031 0.2287
4.7200 3.1165 0.2247
4.7400 3.1299 0.2296
4.7600 3.1432 0.2232
4.7800 3.1565 0.2208
4.8000 3.1699 0.2321
4.8200 3.1832 0.2226
4.8400 3.1965 0.2193
4.8600 3.2098 0.2324
4.8800 3.2231 0.2263
4.9000 3.2364 0.2246
4.9200 3.2497 0.2257
4.9400 3.2630 0.2260
4.9600 3.2764 0.2212
4.9800 3.2898 0.2263
5.0000 3.3032 0.2187
5.0200 3.3166 0.2178
5.0400 3.3299 0.2244
5.0600 3.3432 0.2156
5.0800 3.3565 0.2183
5.1000 3.3699 0.2213
5.1200 3.3832 0.2139
5.1400 3.3965 0.2159
5.1600 3.4098 0.2199
5.1800 3.4231 0.2143
5.2000 3.4365 0.2129
5.2200 3.4498 0.2208
5.2400 3.4631 0.2122
5.2600 3.4764 0.2140
5.2800 3.4898 0.2096
5.3000 3.5031 0.2083
5.3200 3.5164 0.2104
5.3400 3.5298 0.2108
5.3600 3.5432 0.2110
5.3800 3.5565 0.2083
5.4000 3.5699 0.2096
5.4200 3.5832 0.2065
5.4400 3.5965 0.2071
5.4600 3.6099 0.2100
5.4800 3.6232 0.2066
5.5000 3.6365 0.2060
5.5200 3.6498 0.2097
5.5400 3.6631 0.2053
5.5600 3.6765 0.2009
5.5800 3.6898 0.2048
5.6000 3.7031 0.2075
5.6200 3.7164 0.2000
5.6400 3.7298 0.2003
5.6600 3.7431 0.1992
5.6800 3.7565 0.1955
5.7000 3.7698 0.2009
5.7200 3.7832 0.1994
5.7400 3.7965 0.1947
5.7600 3.8099 0.2023
5.7800 3.8232 0.1986
5.8000 3.8365 0.1960
5.8200 3.8499 0.2033
5.8400 3.8632 0.1966
5.8600 3.8765 0.1911
5.8800 3.8898 0.2020
5.9000 3.9032 0.1981
5.9200 3.9165 0.1903
5.9400 3.9298 0.2020
5.9600 3.9431 0.1949
5.9800 3.9564 0.1934
6.0000 3.9698 0.2016
6.0200 3.9832 0.1922
6.0400 3.9965 0.1920
6.0600 4.0098 0.1993
6.0800 4.0232 0.1946
6.1000 4.0365 0.1907
6.1200 4.0499 0.1970
6.1400 4.0632 0.1935
6.1600 4.0765 0.1944
6.1800 4.0899 0.1918
6.2000 4.1032 0.1920
6.2200 4.1165 0.1984
6.2400 4.1298 0.1919
6.2600 4.1431 0.1882
6.2800 4.1565 0.1929
6.3000 4.1698 0.1892
6.3200 4.1831 0.1856
6.3400 4.1964 0.1948
6.3600 4.2098 0.1888
6.3800 4.2231 0.1847
6.4000 4.2364 0.1890
6.4200 4.2498 0.1867
6.4400 4.2631 0.1838
6.4600 4.2765 0.1871
6.4800 4.2899 0.1850
6.5000 4.3032 0.1851
6.5200 4.3165 0.1840
6.5400 4.3299 0.1859
6.5600 4.3432 0.1814
6.5800 4.3565 0.1877
6.6000 4.3698 0.1837
6.6200 4.3831 0.1810
6.6400 4.3965 0.1839
6.6600 4.4098 0.1807
6.6800 4.4231 0.1771
6.7000 4.4364 0.1843
6.7200 4.4498 0.1804
6.7400 4.4631 0.1761
6.7600 4.4764 0.1836
6.7800 4.4898 0.1772
6.8000 4.5031 0.1749
6.8200 4.5165 0.1826
6.8400 4.5299 0.1744
6.8600 4.5432 0.1742
6.8800 4.5565 0.1835
6.9000 4.5698 0.1742
6.9200 4.5832 0.1747
6.9400 4.5965 0.1803
6.9600 4.6098 0.1686
6.9800 4.6231 0.1770
7.0000 4.6365 0.1798
7.0200 4.6498 0.1643
7.0400 4.6631 0.1771
7.0600 4.6764 0.1779
7.0800 4.6897 0.1679
7.1000 4.7031 0.1737
7.1200 4.7164 0.1787
7.1400 4.7298 0.1668
7.1600 4.7432 0.1685
7.1800 4.7566 0.1753
7.2000 4.7699 0.1657
7.2200 4.7833 0.1676
7.2400 4.7966 0.1806
7.2600 4.8099 0.1647
7.2800 4.8232 0.1686
7.3000 4.8365 0.1795
7.3200 4.8497 0.1684
7.3400 4.8630 0.1658
7.3600 4.8764 0.1787
7.3800 4.8898 0.1607
7.4000 4.9031 0.1624
7.4200 4.9164 0.1788
7.4400 4.9298 0.1617
7.4600 4.9432 0.1622
7.4800 4.9565 0.1766
7.5000 4.9699 0.1581
7.5200 4.9832 0.1677
7.5400 4.9966 0.1755
7.5600 5.0099 0.1572
7.5800 5.0232 0.1619
7.6000 5.0365 0.1750
7.6200 5.0499 0.1581
7.6400 5.0632 0.1603
7.6600 5.0765 0.1746
7.6800 5.0898 0.1594
7.7000 5.1031 0.1641
7.7200 5.1165 0.1716
7.7400 5.1298 0.1537
7.7600 5.1431 0.1623
7.7800 5.1564 0.1649
7.8000 5.1697 0.1557
7.8200 5.1831 0.1635
7.8400 5.1965 0.1620
7.8600 5.2098 0.1581
7.8800 5.2232 0.1595
7.9000 5.2365 0.1598
7.9200 5.2499 0.1542
7.9400 5.2632 0.1548
7.9600 5.2765 0.1584
7.9800 5.2899 0.1582
8.0000 5.3032 0.1510
8.0200 5.3165 0.1590
8.0400 5.3298 0.1573
8.0600 5.3431 0.1501
8.0800 5.3565 0.1596
8.1000 5.3698 0.1618
8.1200 5.3831 0.1483
8.1400 5.3964 0.1602
8.1600 5.4098 0.1599
8.1800 5.4231 0.1478
8.2000 5.4365 0.1588
8.2200 5.4498 0.1568
8.2400 5.4631 0.1459
8.2600 5.4765 0.1614
8.2800 5.4899 0.1526
8.3000 5.5032 0.1441
8.3200 5.5165 0.1671
8.3400 5.5298 0.1515
8.3600 5.5432 0.1475
8.3800 5.5565 0.1617
8.4000 5.5698 0.1523
8.4200 5.5831 0.1470
8.4400 5.5965 0.1611
8.4600 5.6098 0.1502
8.4800 5.6231 0.1451
8.5000 5.6364 0.1596
8.5200 5.6498 0.1450
8.5400 5.6631 0.1491
8.5600 5.6765 0.1538
8.5800 5.6898 0.1423
8.6000 5.7031 0.1474
8.6200 5.7165 0.1507
8.6400 5.7299 0.1460
8.6600 5.7432 0.1446
8.6800 5.7565 0.1529
8.7000 5.7699 0.1448
8.7200 5.7832 0.1436
8.7400 5.7965 0.1492
8.7600 5.8098 0.1447
8.7800 5.8231 0.1422
8.8000 5.8365 0.1504
8.8200 5.8498 0.1407
8.8400 5.8631 0.1401
8.8600 5.8764 0.1449
8.8800 5.8898 0.1382
8.9000 5.9031 0.1360
8.9200 5.9165 0.1435
8.9400 5.9298 0.1382
8.9600 5.9432 0.1395
8.9800 5.9566 0.1406
9.0000 5.9699 0.1357
9.0200 5.9832 0.1391
9.0400 5.9965 0.1415
9.0600 6.0098 0.1348
9.0800 6.0232 0.1354
9.1000 6.0365 0.1401
9.1200 6.0498 0.1335
9.1400 6.0631 0.1366
9.1600 6.0764 0.1396
9.1800 6.0898 0.1324
9.2000 6.1031 0.1337
9.2200 6.1164 0.1373
9.2400 6.1297 0.1275
9.2600 6.1431 0.1384
9.2800 6.1564 0.1342
9.3000 6.1698 0.1280
9.3200 6.1831 0.1322
9.3400 6.1965 0.1313
9.3600 6.2099 0.1229
9.3800 6.2232 0.1311
9.4000 6.2365 0.1310
9.4200 6.2499 0.1218
9.4400 6.2632 0.1294
9.4600 6.2765 0.1306
9.4800 6.2898 0.1237
9.5000 6.3031 0.1283
9.5200 6.3164 0.1285
9.5400 6.3298 0.1226
9.5600 6.3431 0.1261
9.5800 6.3564 0.1254
9.6000 6.3698 0.1215
9.6200 6.3832 0.1251
9.6400 6.3965 0.1209
9.6600 6.4098 0.1218
9.6800 6.4232 0.1220
9.7000 6.4365 0.1182
9.7200 6.4499 0.1172
9.7400 6.4632 0.1225
9.7600 6.4765 0.1205
9.7800 6.4898 0.1160
9.8000 6.5032 0.1209
9.8200 6.5165 0.1168
9.8400 6.5298 0.1147
9.8600 6.5432 0.1184
9.8800 6.5565 0.1127
9.9000 6.5699 0.1155
9.9200 6.5832 0.1140
9.9400 6.5965 0.1114
9.9600 6.6098 0.1167
9.9800 6.6231 0.1146
10.0000 6.6364 0.1136
10.0200 6.6498 0.1169
10.0400 6.6631 0.1088
10.0600 6.6765 0.1152
10.0800 6.6898 0.1158
10.1000 6.7032 0.1055
10.1200 6.7165 0.1202
10.1400 6.7298 0.1162
10.1600 6.7432 0.1065
10.1800 6.7565 0.1191
10.2000 6.7698 0.1171
10.2200 6.7832 0.1092
10.2400 6.7965 0.1220
10.2600 6.8098 0.1153
10.2800 6.8232 0.1107
10.3000 6.8365 0.1160
10.3200 6.8498 0.1162
10.3400 6.8631 0.1088
10.3600 6.8764 0.1173
10.3800 6.8898 0.1207
10.4000 6.9031 0.1147
10.4200 6.9165 0.1160
10.4400 6.9299 0.1178
10.4600 6.9432 0.1142
10.4800 6.9565 0.1197
10.5000 6.9698 0.1208
10.5200 6.9832 0.1101
10.5400 6.9965 0.1189
10.5600 7.0098 0.1219
10.5800 7.0231 0.1127
10.6000 7.0365 0.1169
10.6200 7.0498 0.1215
10.6400 7.0631 0.1086
10.6600 7.0764 0.1187
10.6800 7.0898 0.1184
10.7000 7.1031 0.1077
10.7200 7.1165 0.1155
10.7400 7.1298 0.1117
10.7600 7.1431 0.1104
10.7800 7.1565 0.1159
10.8000 7.1698 0.1101
10.8200 7.1832 0.1100
10.8400 7.1965 0.1148
10.8600 7.2099 0.1110
10.8800 7.2232 0.1070
10.9000 7.2366 0.1151
10.9200 7.2499 0.1078
10.9400 7.2631 0.1065
10.9600 7.2765 0.1102
10.9800 7.2898 0.1033
11.0000 7.3031 0.1024
11.0200 7.3164 0.1099
11.0400 7.3297 0.1001
11.0600 7.3431 0.1005
11.0800 7.3564 0.1050
11.1000 7.3698 0.1038
11.1200 7.3831 0.0937
11.1400 7.3965 0.1054
11.1600 7.4099 0.1003
11.1800 7.4232 0.0913
11.2000 7.4365 0.1024
11.2200 7.4498 0.0992
11.2400 7.4632 0.0949
11.2600 7.4765 0.0968
11.2800 7.4898 0.0993
11.3000 7.5032 0.0938
11.3200 7.5165 0.0976
11.3400 7.5298 0.0964
11.3600 7.5432 0.0928
11.3800 7.5565 0.0935
11.4000 7.5698 0.0942
11.4200 7.5831 0.0894
11.4400 7.5965 0.0961
11.4600 7.6098 0.0928
11.4800 7.6231 0.0844
11.5000 7.6365 0.0957
11.5200 7.6499 0.0873
11.5400 7.6632 0.0833
11.5600 7.6765 0.0959
11.5800 7.6899 0.0864
11.6000 7.7032 0.0802
11.6200 7.7166 0.0916
11.6400 7.7298 0.0850
11.6600 7.7431 0.0830
11.6800 7.7564 0.0916
11.7000 7.7698 0.0816
11.7200 7.7831 0.0821
11.7400 7.7964 0.0878
11.7600 7.8097 0.0835
11.7800 7.8231 0.0795
11.8000 7.8365 0.0867
11.8200 7.8498 0.0818
11.8400 7.8631 0.0814
11.8600 7.8765 0.0878
11.8800 7.8898 0.0827
11.9000 7.9032 0.0804
11.9200 7.9165 0.0851
11.9400 7.9298 0.0860
11.9600 7.9432 0.0809
11.9800 7.9565 0.0794
12.0000 7.9699 0.0848
12.0200 7.9832 0.0809
12.0400 7.9965 0.0813
12.0600 8.0099 0.0837
12.0800 8.0232 0.0791
12.1000 8.0365 0.0779
12.1200 8.0497 0.0835
12.1400 8.0630 0.0843
12.1600 8.0764 0.0744
12.1800 8.0897 0.0857
12.2000 8.1031 0.0813
12.2200 8.1165 0.0709
12.2400 8.1299 0.0818
12.2600 8.1432 0.0803
12.2800 8.1566 0.0770
12.3000 8.1699 0.0849
12.3200 8.1833 0.0766
12.3400 8.1966 0.0799
12.3600 8.2099 0.0842
12.3800 8.2232 0.0778
12.4000 8.2365 0.0769
12.4200 8.2498 0.0863
12.4400 8.2631 0.0772
12.4600 8.2764 0.0761
12.4800 8.2897 0.0864
12.5000 8.3031 0.0797
12.5200 8.3164 0.0760
12.5400 8.3298 0.0862
12.5600 8.3431 0.0784
12.5800 8.3565 0.0795
12.6000 8.3699 0.0759
12.6200 8.3832 0.0771
12.6400 8.3966 0.0754
12.6600 8.4099 0.0775
12.6800 8.4232 0.0773
12.7000 8.4365 0.0747
12.7200 8.4498 0.0822
12.7400 8.4631 0.0786
12.7600 8.4765 0.0768
12.7800 8.4898 0.0772
12.8000 8.5031 0.0785
12.8200 8.5164 0.0739
12.8400 8.5297 0.0772
12.8600 8.5431 0.0803
12.8800 8.5565 0.0713
12.9000 8.5698 0.0763
12.9200 8.5832 0.0710
12.9400 8.5965 0.0721
12.9600 8.6099 0.0820
12.9800 8.6232 0.0636
13.0000 8.6365 0.0720
13.0200 8.6498 0.0826
13.0400 8.6632 0.0636
13.0600 8.6765 0.0712
13.0800 8.6899 0.0791
13.1000 8.7032 0.0629
13.1200 8.7165 0.0760
13.1400 8.7298 0.0730
13.1600 8.7432 0.0624
13.1800 8.7564 0.0747
13.2000 8.7697 0.0704
13.2200 8.7831 0.0627
13.2400 8.7965 0.0792
13.2600 8.8098 0.0640
13.2800 8.8231 0.0669
13.3000 8.8365 0.0738
13.3200 8.8499 0.0626
13.3400 8.8632 0.0681
13.3600 8.8765 0.0737
13.3800 8.8899 0.0567
13.4000 8.9032 0.0688
13.4200 8.9165 0.0670
13.4400 8.9299 0.0573
13.4600 8.9431 0.0689
13.4800 8.9564 0.0630
13.5000 8.9698 0.0560
13.5200 8.9831 0.0664
13.5400 8.9965 0.0589
13.5600 9.0098 0.0549
13.5800 9.0231 0.0645
13.6000 9.0364 0.0568
13.6200 9.0498 0.0527
13.6400 9.0631 0.0611
13.6600 9.0764 0.0603
13.6800 9.0898 0.0528
13.7000 9.1032 0.0562
13.7200 9.1165 0.0538
13.7400 9.1298 0.0524
13.7600 9.1432 0.0566
13.7800 9.1566 0.0517
13.8000 9.1699 0.0500
13.8200 9.1832 0.0557
13.8400 9.1965 0.0462
13.8600 9.2098 0.0532
13.8800 9.2231 0.0560
13.9000 9.2365 0.0462
13.9200 9.2498 0.0476
13.9400 9.2631 0.0542
13.9600 9.2765 0.0473
13.9800 9.2898 0.0488
14.0000 9.3031 0.0511
14.0200 9.3165 0.0466
14.0400 9.3298 0.0450
14.0600 9.3432 0.0491
14.0800 9.3565 0.0441
14.1000 9.3698 0.0448
14.1200 9.3832 0.0467
14.1400 9.3965 0.0447
14.1600 9.4099 0.0449
14.1800 9.4232 0.0456
14.2000 9.4365 0.0458
14.2200 9.4498 0.0377
14.2400 9.4632 0.0442
14.2600 9.4765 0.0439
14.2800 9.4897 0.0381
14.3000 9.5031 0.0497
14.3200 9.5164 0.0382
14.3400 9.5297 0.0374
14.3600 9.5431 0.0468
14.3800 9.5564 0.0382
14.4000 9.5699 0.0393
14.4200 9.5833 0.0423
14.4400 9.5966 0.0386
14.4600 9.6099 0.0343
14.4800 9.6232 0.0438
14.5000 9.6366 0.0371
14.5200 9.6499 0.0358
14.5400 9.6631 0.0441
14.5600 9.6764 0.0374
14.5800 9.6897 0.0379
14.6000 9.7031 0.0424
14.6200 9.7164 0.0364
14.6400 9.7298 0.0350
14.6600 9.7431 0.0380
14.6800 9.7565 0.0380
14.7000 9.7698 0.0301
14.7200 9.7832 0.0414
14.7400 9.7965 0.0350
14.7600 9.8099 0.0294
14.7800 9.8232 0.0420
14.8000 9.8366 0.0311
14.8200 9.8499 0.0330
14.8400 9.8632 0.0428
14.8600 9.8765 0.0309
14.8800 9.8898 0.0298
14.9000 9.9031 0.0398
14.9200 9.9165 0.0280
14.9400 9.9298 0.0321
14.9600 9.9431 0.0351
14.9800 9.9565 0.0272
15.0000 9.9698 0.0298
15.0200 9.9831 0.0339
15.0400 9.9964 0.0255
15.0600 10.0098 0.0284
15.0800 10.0231 0.0344
15.1000 10.0365 0.0239
15.1200 10.0498 0.0264
15.1400 10.0632 0.0310
15.1600 10.0765 0.0245
15.1800 10.0899 0.0258
15.2000 10.1032 0.0273
15.2200 10.1165 0.0210
15.2400 10.1299 0.0267
15.2600 10.1432 0.0286
15.2800 10.1565 0.0233
15.3000 10.1698 0.0219
15.3200 10.1832 0.0209
15.3400 10.1965 0.0218
15.3600 10.2098 0.0218
15.3800 10.2231 0.0273
15.4000 10.2364 0.0192
15.4200 10.2498 0.0190
15.4400 10.2631 0.0221
15.4600 10.2765 0.0213
15.4800 10.2898 0.0229
15.5000 10.3032 0.0178
15.5200 10.3166 0.0219
15.5400 10.3299 0.0185
15.5600 10.3432 0.0138
15.5800 10.3566 0.0287
15.6000 10.3699 0.0146
15.6200 10.3832 0.0102
15.6400 10.3965 0.0252
15.6600 10.4098 0.0184
15.6800 10.4231 0.0127
15.7000 10.4365 0.0229
15.7200 10.4498 0.0119
15.7400 10.4631 0.0143
15.7600 10.4764 0.0265
15.7800 10.4898 0.0093
15.8000 10.5031 0.0184
15.8200 10.5164 0.0252
15.8400 10.5298 0.0119
15.8600 10.5432 0.0182
15.8800 10.5565 0.0213
15.9000 10.5698 0.0140
15.9200 10.5832 0.0219
15.9400 10.5965 0.0231
15.9600 10.6099 0.0134
15.9800 10.6232 0.0191
16.0000 10.6365 0.0234
16.0200 10.6498 0.0179
16.0400 10.6631 0.0207
16.0600 10.6765 0.0208
16.0800 10.6898 0.0195
16.1000 10.7031 0.0177
16.1200 10.7164 0.0151
16.1400 10.7298 0.0188
16.1600 10.7431 0.0146
16.1800 10.7565 0.0130
16.2000 10.7698 0.0205
16.2200 10.7832 0.0176
16.2400 10.7966 0.0122
16.2600 10.8098 0.0207
16.2800 10.8232 0.0178
16.3000 10.8365 0.0107
16.3200 10.8499 0.0199
16.3400 10.8632 0.0125
16.3600 10.8765 0.0110
16.3800 10.8898 0.0192
16.4000 10.9032 0.0109
16.4200 10.9165 0.0099
16.4400 10.9298 0.0148
16.4600 10.9431 0.0040
16.4800 10.9564 0.0124
16.5000 10.9698 0.0121
16.5200 10.9831 0.0072
16.5400 10.9964 0.0097
16.5600 11.0098 0.0148
16.5800 11.0232 0.0060
16.6000 11.0365 0.0080
16.6200 11.0499 0.0117
16.6400 11.0632 0.0065
16.6600 11.0765 0.0168
16.6800 11.0899 0.0064
16.7000 11.1032 0.0041
16.7200 11.1164 0.0091
16.7400 11.1298 0.0072
16.7600 11.1431 0.0082
16.7800 11.1565 0.0086
16.8000 11.1698 0.0107
16.8200 11.1831 0.0028
16.8400 11.1965 0.0080
16.8600 11.2098 0.0121
16.8800 11.2232 -0.0009
16.9000 11.2365 0.0092
16.9200 11.2498 0.0068
16.9400 11.2632 -0.0018
16.9600 11.2765 0.0070
16.9800 11.2898 0.0088
17.0000 11.3031 0.0022
17.0200 11.3165 0.0051
17.0400 11.3298 0.0032
17.0600 11.3432 0.0002
17.0800 11.3565 0.0061
17.1000 11.3698 0.0051
17.1200 11.3832 -0.0032
17.1400 11.3965 0.0042
17.1600 11.4098 0.0026
17.1800 11.4231 0.0009
17.2000 11.4364 0.0091
17.2200 11.4498 -0.0025
17.2400 11.4631 -0.0031
17.2600 11.4764 0.0105
17.2800 11.4898 -0.0025
17.3000 11.5032 -0.0044
17.3200 11.5165 0.0087
17.3400 11.5298 -0.0048
17.3600 11.5431 -0.0043
17.3800 11.5565 0.0108
17.4000 11.5699 -0.0066
17.4200 11.5832 -0.0055
17.4400 11.5965 0.0060
17.4600 11.6098 -0.0100
17.4800 11.6232 -0.0047
17.5000 11.6365 0.0028
17.5200 11.6498 -0.0073
17.5400 11.6631 -0.0038
17.5600 11.6764 0.0029
17.5800 11.6898 -0.0128
17.6000 11.7031 -0.0076
17.6200 11.7164 -0.0004
17.6400 11.7298 -0.0101
17.6600 11.7432 -0.0059
17.6800 11.7565 -0.0055
17.7000 11.7699 -0.0111
17.7200 11.7832 -0.0068
17.7400 11.7965 -0.0033
17.7600 11.8099 -0.0139
17.7800 11.8232 -0.0128
17.8000 11.8365 -0.0012
17.8200 11.8498 -0.0096
17.8400 11.8631 -0.0114
17.8600 11.8765 -0.0049
17.8800 11.8898 -0.0097
17.9000 11.9031 -0.0136
17.9200 11.9164 -0.0049
17.9400 11.9298 -0.0094
17.9600 11.9432 -0.0145
17.9800 11.9565 -0.0050
18.0000 11.9698 -0.0116
18.0200 11.9832 -0.0154
18.0400 11.9965 -0.0050
18.0600 12.0098 -0.0128
18.0800 12.0232 -0.0118
18.1000 12.0365 -0.0065
18.1200 12.0499 -0.0142
18.1400 12.0632 -0.0156
18.1600 12.0765 -0.0071
18.1800 12.0898 -0.0117
18.2000 12.1032 -0.0137
18.2200 12.1165 -0.0103
18.2400 12.1298 -0.0118
18.2600 12.1431 -0.0115
18.2800 12.1564 -0.0105
18.3000 12.1698 -0.0157
18.3200 12.1831 -0.0141
18.3400 12.1965 -0.0143
18.3600 12.2098 -0.0145
18.3800 12.2232 -0.0108
18.4000 12.2366 -0.0184
18.4200 12.2499 -0.0130
18.4400 12.2632 -0.0119
18.4600 12.2765 -0.0167
18.4800 12.2898 -0.0144
18.5000 12.3032 -0.0086
18.5200 12.3165 -0.0184
18.5400 12.3298 -0.0086
18.5600 12.3431 -0.0061
18.5800 12.3565 -0.0243
18.6000 12.3698 -0.0093
18.6200 12.3831 -0.0116
18.6400 12.3965 -0.0226
18.6600 12.4098 -0.0058
18.6800 12.4231 -0.0110
18.7000 12.4364 -0.0280
18.7200 12.4498 -0.0019
18.7400 12.4632 -0.0085
18.7600 12.4765 -0.0282
18.7800 12.4899 -0.0073
18.8000 12.5032 -0.0151
18.8200 12.5165 -0.0274
18.8400 12.5299 -0.0110
18.8600 12.5432 -0.0179
18.8800 12.5565 -0.0229
18.9000 12.5698 -0.0121
18.9200 12.5831 -0.0189
18.9400 12.5965 -0.0283
18.9600 12.6098 -0.0167
18.9800 12.6231 -0.0273
19.0000 12.6364 -0.0276
19.0200 12.6498 -0.0143
19.0400 12.6631 -0.0379
19.0600 12.6764 -0.0261
19.0800 12.6898 -0.0165
19.1000 12.7031 -0.0429
19.1200 12.7165 -0.0295
19.1400 12.7298 -0.0239
19.1600 12.7431 -0.0393
19.1800 12.7565 -0.0354
19.2000 12.7698 -0.0224
19.2200 12.7832 -0.0453
19.2400 12.7965 -0.0336
19.2600 12.8099 -0.0253
19.2800 12.8232 -0.0427
19.3000 12.8365 -0.0351
19.3200 12.8498 -0.0299
19.3400 12.8631 -0.0408
19.3600 12.8764 -0.0370
19.3800 12.8897 -0.0306
19.4000 12.9031 -0.0427
19.4200 12.9164 -0.0461
19.4400 12.9298 -0.0305
19.4600 12.9432 -0.0419
19.4800 12.9566 -0.0453
19.5000 12.9699 -0.0352
19.5200 12.9832 -0.0470
19.5400 12.9965 -0.0396
19.5600 13.0099 -0.0355
19.5800 13.0232 -0.0429
19.6000 13.0365 -0.0429
19.6200 13.0498 -0.0359
19.6400 13.0631 -0.0407
19.6600 13.0765 -0.0472
19.6800 13.0898 -0.0346
19.7000 13.1031 -0.0381
19.7200 13.1164 -0.0442
19.7400 13.1298 -0.0408
19.7600 13.1431 -0.0407
19.7800 13.1564 -0.0411
19.8000 13.1698 -0.0391
19.8200 13.1832 -0.0397
19.8400 13.1965 -0.0478
19.8600 13.2099 -0.0377
19.8800 13.2232 -0.0386
19.9000 13.2365 -0.0453
19.9200 13.2499 -0.0368
19.9400 13.2632 -0.0365
19.9600 13.2765 -0.0489
19.9800 13.2898 -0.0367
20.0000 13.3031 -0.0337
20.0200 13.3165 -0.0458
20.0400 13.3298 -0.0378
20.0600 13.3431 -0.0390
20.0800 13.3564 -0.0431
20.1000 13.3698 -0.0383
20.1200 13.3832 -0.0414
20.1400 13.3965 -0.0472
20.1600 13.4098 -0.0349
20.1800 13.4232 -0.0384
20.2000 13.4365 -0.0523
20.2200 13.4499 -0.0382
20.2400 13.4632 -0.0361
20.2600 13.4765 -0.0473
20.2800 13.4899 -0.0386
20.3000 13.5032 -0.0405
20.3200 13.5165 -0.0498
20.3400 13.5298 -0.0400
20.3600 13.5432 -0.0396
20.3800 13.5565 -0.0487
20.4000 13.5698 -0.0389
20.4200 13.5831 -0.0448
20.4400 13.5964 -0.0487
20.4600 13.6098 -0.0419
20.4800 13.6231 -0.0408
20.5000 13.6365 -0.0485
20.5200 13.6498 -0.0427
20.5400 13.6632 -0.0455
20.5600 13.6765 -0.0514
20.5800 13.6899 -0.0450
20.6000 13.7032 -0.0472
20.6200 13.7165 -0.0498
20.6400 13.7299 -0.0469
20.6600 13.7432 -0.0471
20.6800 13.7565 -0.0536
20.7000 13.7698 -0.0470
20.7200 13.7831 -0.0423
20.7400 13.7965 -0.0583
20.7600 13.8098 -0.0497
20.7800 13.8231 -0.0429
20.8000 13.8364 -0.0574
20.8200 13.8498 -0.0535
20.8400 13.8631 -0.0412
20.8600 13.8765 -0.0598
20.8800 13.8898 -0.0518
20.9000 13.9031 -0.0472
20.9200 13.9165 -0.0634
20.9400 13.9299 -0.0523
20.9600 13.9432 -0.0481
20.9800 13.9565 -0.0627
21.0000 13.9699 -0.0549
21.0200 13.9833 -0.0438
21.0400 13.9966 -0.0628
21.0600 14.0098 -0.0540
21.0800 14.0231 -0.0478
21.1000 14.0365 -0.0655
21.1200 14.0498 -0.0536
21.1400 14.0631 -0.0470
21.1600 14.0764 -0.0700
21.1800 14.0897 -0.0522
21.2000 14.1031 -0.0532
21.2200 14.1164 -0.0653
21.2400 14.1298 -0.0519
21.2600 14.1431 -0.0504
21.2800 14.1565 -0.0672
21.3000 14.1699 -0.0559
21.3200 14.1832 -0.0527
21.3400 14.1965 -0.0625
21.3600 14.2099 -0.0552
21.3800 14.2232 -0.0607
21.4000 14.2365 -0.0632
21.4200 14.2498 -0.0478
21.4400 14.2631 -0.0568
21.4600 14.2765 -0.0652
21.4800 14.2898 -0.0544
21.5000 14.3031 -0.0551
21.5200 14.3164 -0.0625
21.5400 14.3297 -0.0535
21.5600 14.3431 -0.0516
21.5800 14.3564 -0.0601
21.6000 14.3698 -0.0613
21.6200 14.3831 -0.0533
21.6400 14.3965 -0.0598
21.6600 14.4099 -0.0593
21.6800 14.4232 -0.0563
21.7000 14.4366 -0.0624
21.7200 14.4499 -0.0570
21.7400 14.4632 -0.0566
21.7600 14.4765 -0.0650
21.7800 14.4897 -0.0586
21.8000 14.5030 -0.0550
21.8200 14.5164 -0.0677
21.8400 14.5298 -0.0597
21.8600 14.5431 -0.0554
21.8800 14.5564 -0.0693
21.9000 14.5698 -0.0592
21.9200 14.5831 -0.0563
21.9400 14.5965 -0.0663
21.9600 14.6098 -0.0564
21.9800 14.6232 -0.0650
22.0000 14.6366 -0.0656
22.0200 14.6499 -0.0525
22.0400 14.6632 -0.0634
22.0600 14.6765 -0.0695
22.0800 14.6898 -0.0506
22.1000 14.7032 -0.0652
22.1200 14.7165 -0.0648
22.1400 14.7298 -0.0507
22.1600 14.7431 -0.0661
22.1800 14.7565 -0.0671
22.2000 14.7698 -0.0496
22.2200 14.7831 -0.0662
22.2400 14.7965 -0.0667
22.2600 14.8098 -0.0574
22.2800 14.8231 -0.0688
22.3000 14.8365 -0.0637
22.3200 14.8498 -0.0626
22.3400 14.8632 -0.0685
22.3600 14.8765 -0.0688
22.3800 14.8899 -0.0625
22.4000 14.9032 -0.0702
22.4200 14.9165 -0.0696
22.4400 14.9299 -0.0621
22.4600 14.9432 -0.0715
22.4800 14.9566 -0.0768
22.5000 14.9698 -0.0615
22.5200 14.9831 -0.0684
22.5400 14.9965 -0.0790
22.5600 15.0098 -0.0694
22.5800 15.0231 -0.0727
22.6000 15.0364 -0.0779
22.6200 15.0498 -0.0701
22.6400 15.0631 -0.0773
22.6600 15.0765 -0.0779
22.6800 15.0898 -0.0729
22.7000 15.1031 -0.0794
22.7200 15.1165 -0.0823
22.7400 15.1299 -0.0738
22.7600 15.1432 -0.0818
22.7800 15.1565 -0.0840
22.8000 15.1698 -0.0763
22.8200 15.1832 -0.0813
22.8400 15.1965 -0.0853
22.8600 15.2098 -0.0762
22.8800 15.2231 -0.0859
22.9000 15.2365 -0.0845
22.9200 15.2498 -0.0808
22.9400 15.2631 -0.0865
22.9600 15.2764 -0.0849
22.9800 15.2898 -0.0827
23.0000 15.3031 -0.0899
23.0200 15.3165 -0.0892
23.0400 15.3298 -0.0809
23.0600 15.3431 -0.0920
23.0800 15.3565 -0.0906
23.1000 15.3699 -0.0845
23.1200 15.3832 -0.0995
23.1400 15.3965 -0.0863
23.1600 15.4098 -0.0847
23.1800 15.4232 -0.0973
23.2000 15.4366 -0.0835
23.2200 15.4499 -0.0874
23.2400 15.4631 -0.0991
23.2600 15.4765 -0.0847
23.2800 15.4898 -0.0860
23.3000 15.5031 -0.1047
23.3200 15.5164 -0.0822
23.3400 15.5297 -0.0916
23.3600 15.5431 -0.1017
23.3800 15.5565 -0.0859
23.4000 15.5698 -0.0908
23.4200 15.5831 -0.0962
23.4400 15.5965 -0.0901
23.4600 15.6099 -0.0959
23.4800 15.6232 -0.0939
23.5000 15.6365 -0.0884
23.5200 15.6498 -0.0959
23.5400 15.6632 -0.0929
23.5600 15.6765 -0.0900
23.5800 15.6898 -0.0973
23.6000 15.7031 -0.0843
23.6200 15.7165 -0.0947
23.6400 15.7298 -0.1004
23.6600 15.7431 -0.0873
23.6800 15.7564 -0.0959
23.7000 15.7698 -0.0979
23.7200 15.7831 -0.0893
23.7400 15.7964 -0.1005
23.7600 15.8098 -0.0979
23.7800 15.8231 -0.0917
23.8000 15.8365 -0.0990
23.8200 15.8499 -0.0988
23.8400 15.8632 -0.0949
23.8600 15.8765 -0.1021
23.8800 15.8899 -0.0931
23.9000 15.9032 -0.0934
23.9200 15.9165 -0.1042
23.9400 15.9298 -0.0918
23.9600 15.9431 -0.0919
23.9800 15.9564 -0.0981
24.0000 15.9698 -0.0983
24.0200 15.9831 -0.0950
24.0400 15.9964 -0.0951
24.0600 16.0098 -0.0925
24.0800 16.0231 -0.1001
24.1000 16.0365 -0.0968
24.1200 16.0498 -0.0939
24.1400 16.0632 -0.0955
24.1600 16.0765 -0.0951
24.1800 16.0898 -0.0937
24.2000 16.1031 -0.0957
24.2200 16.1164 -0.0949
24.2400 16.1298 -0.0973
24.2600 16.1431 -0.1008
24.2800 16.1565 -0.0963
24.3000 16.1699 -0.0966
24.3200 16.1832 -0.1013
24.3400 16.1965 -0.0926
24.3600 16.2099 -0.0993
24.3800 16.2232 -0.1058
24.4000 16.2365 -0.0902
24.4200 16.2498 -0.0984
24.4400 16.2631 -0.1140
24.4600 16.2765 -0.0917
24.4800 16.2898 -0.1001
24.5000 16.3031 -0.1038
24.5200 16.3165 -0.0944
24.5400 16.3298 -0.1058
24.5600 16.3432 -0.1018
24.5800 16.3565 -0.0942
24.6000 16.3698 -0.1046
24.6200 16.3832 -0.0995
24.6400 16.3965 -0.0954
24.6600 16.4099 -0.1057
24.6800 16.4232 -0.0997
24.7000 16.4365 -0.0949
24.7200 16.4499 -0.1011
24.7400 16.4632 -0.1039
24.7600 16.4765 -0.1002
24.7800 16.4898 -0.1031
24.8000 16.5031 -0.1000
24.8200 16.5164 -0.1034
24.8400 16.5298 -0.1042
24.8600 16.5431 -0.1041
24.8800 16.5565 -0.1059
24.9000 16.5699 -0.1063
24.9200 16.5832 -0.1106
24.9400 16.5965 -0.1085
24.9600 16.6099 -0.1041
24.9800 16.6232 -0.1122
25.0000 16.6366 -0.1102
25.0200 16.6499 -0.1122
25.0400 16.6632 -0.1126
25.0600 16.6765 -0.1084
25.0800 16.6898 -0.1110
25.1000 16.7031 -0.1199
25.1200 16.7164 -0.1131
25.1400 16.7297 -0.1116
25.1600 16.7431 -0.1211
25.1800 16.7565 -0.1151
25.2000 16.7698 -0.1147
25.2200 16.7831 -0.1255
25.2400 16.7965 -0.1123
25.2600 16.8098 -0.1193
25.2800 16.8232 -0.1285
25.3000 16.8365 -0.1145
25.3200 16.8498 -0.1221
25.3400 16.8632 -0.1272
25.3600 16.8766 -0.1147
25.3800 16.8899 -0.1208
25.4000 16.9032 -0.1273
25.4200 16.9165 -0.1170
25.4400 16.9298 -0.1197
25.4600 16.9431 -0.1281
25.4800 16.9564 -0.1221
25.5000 16.9697 -0.1200
25.5200 16.9830 -0.1258
25.5400 16.9964 -0.1213
25.5600 17.0097 -0.1256
25.5800 17.0231 -0.1231
25.6000 17.0365 -0.1193
25.6200 17.0499 -0.1297
25.6400 17.0632 -0.1282
25.6600 17.0765 -0.1145
25.6800 17.0898 -0.1231
25.7000 17.1032 -0.1322
25.7200 17.1165 -0.1203
25.7400 17.1298 -0.1263
25.7600 17.1431 -0.1252
25.7800 17.1565 -0.1186
25.8000 17.1698 -0.1300
25.8200 17.1832 -0.1302
25.8400 17.1965 -0.1270
25.8600 17.2098 -0.1268
25.8800 17.2231 -0.1251
25.9000 17.2365 -0.1267
25.9200 17.2498 -0.1348
25.9400 17.2631 -0.1256
25.9600 17.2765 -0.1248
25.9800 17.2899 -0.1355
26.0000 17.3032 -0.1318
26.0200 17.3165 -0.1264
26.0400 17.3299 -0.1293
26.0600 17.3432 -0.1287
26.0800 17.3565 -0.1306
26.1000 17.3698 -0.1330
26.1200 17.3831 -0.1344
26.1400 17.3965 -0.1294
26.1600 17.4098 -0.1326
26.1800 17.4231 -0.1358
26.2000 17.4364 -0.1336
26.2200 17.4498 -0.1318
26.2400 17.4631 -0.1282
26.2600 17.4765 -0.1344
26.2800 17.4898 -0.1353
26.3000 17.5032 -0.1342
26.3200 17.5165 -0.1283
26.3400 17.5298 -0.1300
26.3600 17.5432 -0.1371
26.3800 17.5565 -0.1326
26.4000 17.5698 -0.1292
26.4200 17.5832 -0.1365
26.4400 17.5965 -0.1280
26.4600 17.6099 -0.1324
26.4800 17.6232 -0.1375
26.5000 17.6365 -0.1288
26.5200 17.6499 -0.1320
26.5400 17.6632 -0.1348
26.5600 17.6765 -0.1326
26.5800 17.6897 -0.1332
26.6000 17.7030 -0.1379
26.6200 17.7164 -0.1361
26.6400 17.7297 -0.1334
26.6600 17.7431 -0.1361
26.6800 17.7565 -0.1375
26.7000 17.7699 -0.1403
26.7200 17.7832 -0.1342
26.7400 17.7965 -0.1402
26.7600 17.8099 -0.1364
26.7800 17.8232 -0.1386
26.8000 17.8366 -0.1466
26.8200 17.8499 -0.1371
26.8400 17.8632 -0.1432
26.8600 17.8765 -0.1468
26.8800 17.8898 -0.1356
26.9000 17.9031 -0.1407
26.9200 17.9164 -0.1445
26.9400 17.9297 -0.1429
26.9600 17.9431 -0.1412
26.9800 17.9564 -0.1449
27.0000 17.9698 -0.1423
27.0200 17.9831 -0.1421
27.0400 17.9965 -0.1515
27.0600 18.0098 -0.1439
27.0800 18.0232 -0.1482
27.1000 18.0366 -0.1494
27.1200 18.0499 -0.1478
27.1400 18.0632 -0.1482
27.1600 18.0765 -0.1504
27.1800 18.0899 -0.1453
27.2000 18.1031 -0.1503
27.2200 18.1165 -0.1554
27.2400 18.1298 -0.1454
27.2600 18.1431 -0.1550
27.2800 18.1565 -0.1558
27.3000 18.1698 -0.1458
27.3200 18.1831 -0.1619
27.3400 18.1965 -0.1565
27.3600 18.2098 -0.1504
27.3800 18.2231 -0.1619
27.4000 18.2365 -0.1582
27.4200 18.2498 -0.1502
27.4400 18.2632 -0.1650
27.4600 18.2765 -0.1570
27.4800 18.2898 -0.1491
27.5000 18.3032 -0.1695
27.5200 18.3165 -0.1544
27.5400 18.3299 -0.1574
27.5600 18.3432 -0.1726
27.5800 18.3565 -0.1499
27.6000 18.3699 -0.1579
27.6200 18.3832 -0.1780
27.6400 18.3965 -0.1544
27.6600 18.4098 -0.1551
27.6800 18.4231 -0.1738
27.7000 18.4365 -0.1552
27.7200 18.4498 -0.1633
27.7400 18.4631 -0.1752
27.7600 18.4765 -0.1539
27.7800 18.4898 -0.1657
27.8000 18.5032 -0.1744
27.8200 18.5165 -0.1571
27.8400 18.5298 -0.1695
27.8600 18.5432 -0.1719
27.8800 18.5565 -0.1586
27.9000 18.5699 -0.1710
27.9200 18.5831 -0.1738
27.9400 18.5964 -0.1588
27.9600 18.6098 -0.1670
27.9800 18.6231 -0.1789
28.0000 18.6365 -0.1633
28.0200 18.6498 -0.1770
28.0400 18.6631 -0.1720
28.0600 18.6765 -0.1569
28.0800 18.6898 -0.1795
28.1000 18.7031 -0.1744
28.1200 18.7164 -0.1622
28.1400 18.7298 -0.1759
28.1600 18.7432 -0.1689
28.1800 18.7565 -0.1685
28.2000 18.7698 -0.1744
28.2200 18.7832 -0.1715
28.2400 18.7966 -0.1712
28.2600 18.8099 -0.1693
28.2800 18.8232 -0.1600
28.3000 18.8365 -0.1726
28.3200 18.8498 -0.1757
28.3400 18.8632 -0.1599
28.3600 18.8765 -0.1695
28.3800 18.8898 -0.1673
28.4000 18.9031 -0.1643
28.4200 18.9164 -0.1720
28.4400 18.9298 -0.1683
28.4600 18.9431 -0.1668
28.4800 18.9565 -0.1636
28.5000 18.9698 -0.1703
28.5200 18.9832 -0.1655
28.5400 18.9965 -0.1643
28.5600 19.0098 -0.1750
28.5800 19.0232 -0.1683
28.6000 19.0365 -0.1700
28.6200 19.0499 -0.1742
28.6400 19.0632 -0.1708
28.6600 19.0765 -0.1692
28.6800 19.0898 -0.1837
28.7000 19.1032 -0.1737
28.7200 19.1165 -0.1720
28.7400 19.1298 -0.1874
28.7600 19.1431 -0.1688
28.7800 19.1564 -0.1783
28.8000 19.1697 -0.1953
28.8200 19.1831 -0.1753
28.8400 19.1964 -0.1778
28.8600 19.2098 -0.1908
28.8800 19.2232 -0.1837
28.9000 19.2366 -0.1860
28.9200 19.2499 -0.1894
28.9400 19.2632 -0.1779
28.9600 19.2766 -0.1860
28.9800 19.2899 -0.1962
29.0000 19.3031 -0.1870
29.0200 19.3164 -0.1879
29.0400 19.3297 -0.1902
29.0600 19.3431 -0.1875
29.0800 19.3564 -0.1914
29.1000 19.3698 -0.1916
29.1200 19.3831 -0.1919
29.1400 19.3965 -0.1910
29.1600 19.4098 -0.1926
29.1800 19.4232 -0.1933
29.2000 19.4365 -0.1956
29.2200 19.4499 -0.1924
29.2400 19.4632 -0.1958
29.2600 19.4765 -0.1951
29.2800 19.4898 -0.1942
29.3000 19.5031 -0.1983
29.3200 19.5165 -0.1947
29.3400 19.5298 -0.1981
29.3600 19.5431 -0.1982
29.3800 19.5565 -0.1943
29.4000 19.5698 -0.1999
29.4200 19.5831 -0.1984
29.4400 19.5965 -0.1999
29.4600 19.6098 -0.2020
29.4800 19.6231 -0.1921
29.5000 19.6364 -0.2026
29.5200 19.6498 -0.2061
29.5400 19.6631 -0.2002
29.5600 19.6765 -0.2052
29.5800 19.6898 -0.2020
29.6000 19.7032 -0.2027
29.6200 19.7165 -0.2098
29.6400 19.7298 -0.2057
29.6600 19.7432 -0.1996
29.6800 19.7565 -0.2070
29.7000 19.7699 -0.2100
29.7200 19.7832 -0.2039
29.7400 19.7965 -0.2082
29.7600 19.8098 -0.2107
29.7800 19.8232 -0.2072
29.8000 19.8365 -0.2078
29.8200 19.8498 -0.2109
29.8400 19.8631 -0.2084
29.8600 19.8764 -0.2048
29.8800 19.8898 -0.2172
29.9000 19.9031 -0.2165
29.9200 19.9165 -0.2042
29.9400 19.9298 -0.2204
29.9600 19.9432 -0.2168
29.9800 19.9566 -0.2072
30.0000 19.9699 -0.2261
30.0200 19.9832 -0.2166
30.0400 19.9965 -0.2111
30.0600 20.0099 -0.2269
30.0800 20.0232 -0.2197
30.1000 20.0365 -0.2092
30.1200 20.0498 -0.2254
30.1400 20.0631 -0.2203
30.1600 20.0765 -0.2087
30.1800 20.0898 -0.2315
30.2000 20.1031 -0.2163
30.2200 20.1165 -0.2096
30.2400 20.1298 -0.2381
30.2600 20.1431 -0.2140
30.2800 20.1564 -0.2142
30.3000 20.1698 -0.2391
30.3200 20.1832 -0.2232
30.3400 20.1965 -0.2149
30.3600 20.2098 -0.2403
30.3800 20.2232 -0.2275
30.4000 20.2365 -0.2223
30.4200 20.2499 -0.2459
30.4400 20.2632 -0.2247
30.4600 20.2765 -0.2254
30.4800 20.2898 -0.2496
30.5000 20.3031 -0.2252
30.5200 20.3165 -0.2264
30.5400 20.3298 -0.2459
30.5600 20.3431 -0.2266
30.5800 20.3564 -0.2259
30.6000 20.3698 -0.2403
30.6200 20.3831 -0.1655
30.6400 20.3965 -0.0839
30.6600 20.4098 -0.0413
30.6800 20.4232 0.0111
30.7000 20.4366 0.0223
30.7200 20.4499 0.0537
30.7400 20.4632 0.1224
30.7600 20.4765 0.1699
30.7800 20.4899 0.2185
30.8000 20.5032 0.2884
30.8200 20.5165 0.3325
30.8400 20.5298 0.3777
30.8600 20.5431 0.4403
30.8800 20.5565 0.4768
30.9000 20.5698 0.5204
30.9200 20.5831 0.5695
30.9400 20.5964 0.5618
30.9600 20.6098 0.5406
30.9800 20.6231 0.5318
31.0000 20.6364 0.5167
31.0200 20.6498 0.5141
31.0400 20.6632 0.5181
31.0600 20.6765 0.5090
31.0800 20.6899 0.5032
31.1000 20.7032 0.5128
31.1200 20.7165 0.5082
31.1400 20.7299 0.4993
31.1600 20.7432 0.5050
31.1800 20.7565 0.5051
31.2000 20.7698 0.5188
31.2200 20.7831 0.5204
31.2400 20.7965 0.5171
31.2600 20.8098 0.5056
31.2800 20.8231 0.5096
31.3000 20.8365 0.5155
31.3200 20.8498 0.5024
31.3400 20.8632 0.4986
31.3600 20.8765 0.4997
31.3800 20.8898 0.4953
31.4000 20.9032 0.4952
31.4200 20.9165 0.5039
31.4400 20.9298 0.5022
31.4600 20.9431 0.4921
31.4800 20.9565 0.4965
31.5000 20.9698 0.4999
31.5200 20.9832 0.5014
31.5400 20.9965 0.4964
31.5600 21.0098 0.4900
31.5800 21.0232 0.4903
31.6000 21.0366 0.4951
31.6200 21.0499 0.4951
31.6400 21.0631 0.4891
31.6600 21.0765 0.4907
31.6800 21.0898 0.4882
31.7000 21.1031 0.4882
31.7200 21.1164 0.4899
31.7400 21.1298 0.4870
31.7600 21.1432 0.4851
31.7800 21.1565 0.4860
31.8000 21.1698 0.4741
31.8200 21.1831 0.4786
31.8400 21.1965 0.4789
31.8600 21.2099 0.4704
31.8800 21.2232 0.4748
31.9000 21.2365 0.4745
31.9200 21.2498 0.4730
31.9400 21.2632 0.4736
31.9600 21.2765 0.4722
31.9800 21.2898 0.4703
32.0000 21.3031 0.4651
32.0200 21.3164 0.4722
32.0400 21.3298 0.4705
32.0600 21.3431 0.4676
32.0800 21.3565 0.4661
32.1000 21.3698 0.4696
32.1200 21.3832 0.4644
32.1400 21.3965 0.4632
32.1600 21.4099 0.4655
32.1800 21.4232 0.4576
32.2000 21.4365 0.4604
32.2200 21.4499 0.4646
32.2400 21.4632 0.4580
32.2600 21.4765 0.4617
32.2800 21.4898 0.4726
32.3000 21.5031 0.4549
32.3200 21.5165 0.4504
32.3400 21.5298 0.4610
32.3600 21.5431 0.4563
32.3800 21.5564 0.4535
32.4000 21.5698 0.4630
32.4200 21.5831 0.4569
32.4400 21.5965 0.4588
32.4600 21.6098 0.4599
32.4800 21.6231 0.4509
32.5000 21.6365 0.4503
32.5200 21.6498 0.4554
32.5400 21.6632 0.4466
32.5600 21.6765 0.4486
32.5800 21.6899 0.4536
32.6000 21.7032 0.4432
32.6200 21.7165 0.4506
32.6400 21.7298 0.4517
32.6600 21.7431 0.4416
32.6800 21.7565 0.4516
32.7000 21.7698 0.4430
32.7200 21.7831 0.4411
32.7400 21.7964 0.4483
32.7600 21.8098 0.4427
32.7800 21.8231 0.4372
32.8000 21.8364 0.4490
32.8200 21.8498 0.4408
32.8400 21.8632 0.4377
32.8600 21.8766 0.4437
32.8800 21.8899 0.4327
32.9000 21.9032 0.4344
32.9200 21.9165 0.4379
32.9400 21.9299 0.4310
32.9600 21.9432 0.4329
32.9800 21.9565 0.4359
33.0000 21.9698 0.4346
33.0200 21.9831 0.4326
33.0400 21.9965 0.4262
33.0600 22.0098 0.4334
33.0800 22.0232 0.4316
33.1000 22.0365 0.4308
33.1200 22.0498 0.4331
33.1400 22.0631 0.4304
33.1600 22.0765 0.4264
33.1800 22.0898 0.4266
33.2000 22.1032 0.4307
33.2200 22.1165 0.4272
33.2400 22.1299 0.4256
33.2600 22.1432 0.4249
33.2800 22.1565 0.4193
33.3000 22.1699 0.4240
33.3200 22.1832 0.4254
33.3400 22.1965 0.4218
33.3600 22.2098 0.4234
33.3800 22.2231 0.4266
33.4000 22.2365 0.4213
33.4200 22.2498 0.4208
33.4400 22.2631 0.4218
33.4600 22.2764 0.4196
33.4800 22.2898 0.4199
33.5000 22.3031 0.4228
33.5200 22.3165 0.4166
33.5400 22.3298 0.4149
33.5600 22.3432 0.4196
33.5800 22.3565 0.4146
33.6000 22.3698 0.4147
33.6200 22.3831 0.4175
33.6400 22.3965 0.4131
33.6600 22.4098 0.4090
33.6800 22.4232 0.4132
33.7000 22.4365 0.4187
33.7200 22.4499 0.4088
33.7400 22.4632 0.4073
33.7600 22.4765 0.4106
33.7800 22.4898 0.4039
33.8000 22.5031 0.4100
33.8200 22.5164 0.4123
33.8400 22.5297 0.4018
33.8600 22.5431 0.4046
33.8800 22.5564 0.4081
33.9000 22.5698 0.4034
33.9200 22.5831 0.4057
33.9400 22.5965 0.4018
33.9600 22.6099 0.3956
33.9800 22.6232 0.4041
34.0000 22.6366 0.4048
34.0200 22.6499 0.3953
34.0400 22.6633 0.4069
34.0600 22.6766 0.3939
34.0800 22.6898 0.3973
34.1000 22.7031 0.4109
34.1200 22.7164 0.3962
34.1400 22.7298 0.3979
34.1600 22.7431 0.4005
34.1800 22.7564 0.3952
34.2000 22.7698 0.3991
34.2200 22.7831 0.3979
34.2400 22.7964 0.3915
34.2600 22.8098 0.3962
34.2800 22.8232 0.3997
34.3000 22.8365 0.3931
34.3200 22.8499 0.3961
34.3400 22.8632 0.3943
34.3600 22.8765 0.3882
34.3800 22.8899 0.3910
34.4000 22.9032 0.3995
34.4200 22.9165 0.3903
34.4400 22.9298 0.3863
34.4600 22.9431 0.3962
34.4800 22.9565 0.3853
34.5000 22.9698 0.3870
34.5200 22.9831 0.3965
34.5400 22.9964 0.3808
34.5600 23.0098 0.3814
34.5800 23.0231 0.3932
34.6000 23.0365 0.3802
34.6200 23.0498 0.3789
34.6400 23.0631 0.3924
34.6600 23.0765 0.3758
34.6800 23.0899 0.3805
34.7000 23.1032 0.3909
34.7200 23.1165 0.3730
34.7400 23.1298 0.3784
34.7600 23.1432 0.3844
34.7800 23.1565 0.3735
34.8000 23.1698 0.3789
34.8200 23.1832 0.3855
34.8400 23.1965 0.3640
34.8600 23.2098 0.3745
34.8800 23.2231 0.3874
34.9000 23.2364 0.3684
34.9200 23.2498 0.3754
34.9400 23.2631 0.3788
34.9600 23.2765 0.3619
34.9800 23.2898 0.3774
35.0000 23.3032 0.3766
35.0200 23.3165 0.3625
35.0400 23.3299 0.3726
35.0600 23.3432 0.3749
35.0800 23.3565 0.3611
35.1000 23.3699 0.3729
35.1200 23.3832 0.3765
35.1400 23.3965 0.3585
35.1600 23.4098 0.3700
35.1800 23.4231 0.3751
35.2000 23.4365 0.3592
35.2200 23.4498 0.3630
35.2400 23.4631 0.3725
35.2600 23.4764 0.3599
35.2800 23.4898 0.3670
35.3000 23.5031 0.3767
35.3200 23.5164 0.3534
35.3400 23.5298 0.3609
35.3600 23.5431 0.3726
35.3800 23.5565 0.3526
35.4000 23.5699 0.3673
35.4200 23.5832 0.3672
35.4400 23.5965 0.3501
35.4600 23.6099 0.3621
35.4800 23.6232 0.3703
35.5000 23.6366 0.3450
35.5200 23.6499 0.3643
35.5400 23.6632 0.3669
35.5600 23.6765 0.3398
35.5800 23.6898 0.3666
35.6000 23.7031 0.3667
35.6200 23.7164 0.3412
35.6400 23.7298 0.3649
35.6600 23.7431 0.3612
35.6800 23.7565 0.3420
35.7000 23.7698 0.3633
35.7200 23.7831 0.3602
35.7400 23.7965 0.3422
35.7600 23.8099 0.3602
35.7800 23.8232 0.3570
35.8000 23.8365 0.3406
35.8200 23.8498 0.3611
35.8400 23.8632 0.3522
35.8600 23.8765 0.3384
35.8800 23.8898 0.3581
35.9000 23.9031 0.3555
35.9200 23.9165 0.3372
35.9400 23.9298 0.3547
35.9600 23.9431 0.3547
35.9800 23.9564 0.3397
36.0000 23.9697 0.3522
36.0200 23.9831 0.3445
36.0400 23.9964 0.3375
36.0600 24.0098 0.3508
36.0800 24.0231 0.3465
36.1000 24.0365 0.3374
36.1200 24.0499 0.3433
36.1400 24.0633 0.3414
36.1600 24.0766 0.3360
36.1800 24.0899 0.3408
36.2000 24.1032 0.3426
36.2200 24.1165 0.3379
36.2400 24.1298 0.3365
36.2600 24.1431 0.3431
36.2800 24.1564 0.3333
36.3000 24.1698 0.3366
36.3200 24.1831 0.3411
36.3400 24.1964 0.3381
36.3600 24.2098 0.3256
36.3800 24.2231 0.3422
36.4000 24.2365 0.3335
36.4200 24.2498 0.3252
36.4400 24.2632 0.3437
36.4600 24.2765 0.3285
36.4800 24.2899 0.3205
36.5000 24.3032 0.3446
36.5200 24.3165 0.3270
36.5400 24.3299 0.3255
36.5600 24.3432 0.3405
36.5800 24.3565 0.3237
36.6000 24.3698 0.3221
36.6200 24.3831 0.3362
36.6400 24.3965 0.3232
36.6600 24.4098 0.3237
36.6800 24.4231 0.3362
36.7000 24.4364 0.3197
36.7200 24.4498 0.3264
36.7400 24.4631 0.3358
36.7600 24.4765 0.3172
36.7800 24.4898 0.3225
36.8000 24.5031 0.3308
36.8200 24.5165 0.3149
36.8400 24.5299 0.3207
36.8600 24.5432 0.3265
36.8800 24.5565 0.3151
36.9000 24.5698 0.3232
36.9200 24.5832 0.3276
36.9400 24.5965 0.3134
36.9600 24.6098 0.3224
36.9800 24.6231 0.3214
37.0000 24.6365 0.3132
37.0200 24.6498 0.3190
37.0400 24.6631 0.3249
37.0600 24.6764 0.3140
37.0800 24.6898 0.3150
37.1000 24.7031 0.3216
37.1200 24.7165 0.3145
37.1400 24.7298 0.3138
37.1600 24.7431 0.3249
37.1800 24.7565 0.3108
37.2000 24.7699 0.3084
37.2200 24.7832 0.3244
37.2400 24.7965 0.3084
37.2600 24.8099 0.3121
37.2800 24.8232 0.3237
37.3000 24.8365 0.3042
37.3200 24.8498 0.3135
37.3400 24.8631 0.3235
37.3600 24.8765 0.3043
37.3800 24.8898 0.3146
37.4000 24.9031 0.3216
37.4200 24.9165 0.3015
37.4400 24.9298 0.3171
37.4600 24.9431 0.3127
37.4800 24.9565 0.3041
37.5000 24.9698 0.3161
37.5200 24.9831 0.3091
37.5400 24.9965 0.3022
37.5600 25.0098 0.3086
37.5800 25.0232 0.3092
37.6000 25.0365 0.3062
37.6200 25.0498 0.3132
37.6400 25.0632 0.3019
37.6600 25.0765 0.3013
37.6800 25.0899 0.3141
37.7000 25.1032 0.3013
37.7200 25.1165 0.3052
37.7400 25.1298 0.3055
37.7600 25.1431 0.2960
37.7800 25.1564 0.3087
37.8000 25.1697 0.3031
37.8200 25.1831 0.2996
37.8400 25.1964 0.3054
37.8600 25.2098 0.2982
37.8800 25.2231 0.2962
37.9000 25.2365 0.3049
37.9200 25.2499 0.2958
37.9400 25.2632 0.2971
37.9600 25.2765 0.3065
37.9800 25.2898 0.2931
38.0000 25.3032 0.2976
38.0200 25.3166 0.3016
38.0400 25.3299 0.2878
38.0600 25.3431 0.2985
38.0800 25.3565 0.2990
38.1000 25.3698 0.2814
38.1200 25.3832 0.2960
38.1400 25.3965 0.2988
38.1600 25.4098 0.2831
38.1800 25.4231 0.2907
38.2000 25.4364 0.2909
38.2200 25.4498 0.2879
38.2400 25.4631 0.2934
38.2600 25.4764 0.2874
38.2800 25.4898 0.2847
38.3000 25.5032 0.2881
38.3200 25.5165 0.2872
38.3400 25.5298 0.2855
38.3600 25.5432 0.2894
38.3800 25.5565 0.2837
38.4000 25.5698 0.2808
38.4200 25.5831 0.2848
38.4400 25.5965 0.2802
38.4600 25.6098 0.2828
38.4800 25.6231 0.2814
38.5000 25.6364 0.2786
38.5200 25.6498 0.2837
38.5400 25.6632 0.2782
38.5600 25.6765 0.2801
38.5800 25.6898 0.2796
38.6000 25.7032 0.2764
38.6200 25.7165 0.2768
38.6400 25.7298 0.2797
38.6600 25.7431 0.2730
38.6800 25.7564 0.2804
38.7000 25.7698 0.2789
38.7200 25.7832 0.2696
38.7400 25.7965 0.2761
38.7600 25.8099 0.2750
38.7800 25.8232 0.2712
38.8000 25.8365 0.2770
38.8200 25.8499 0.2702
38.8400 25.8632 0.2677
38.8600 25.8765 0.2765
38.8800 25.8898 0.2686
38.9000 25.9031 0.2711
38.9200 25.9165 0.2732
38.9400 25.9298 0.2646
38.9600 25.9431 0.2728
38.9800 25.9564 0.2747
39.0000 25.9698 0.2629
39.0200 25.9832 0.2716
39.0400 25.9965 0.2734
39.0600 26.0098 0.2638
39.0800 26.0232 0.2722
39.1000 26.0365 0.2708
39.1200 26.0498 0.2624
39.1400 26.0631 0.2717
39.1600 26.0765 0.2715
39.1800 26.0898 0.2656
39.2000 26.1032 0.2665
39.2200 26.1165 0.2685
39.2400 26.1298 0.2653
39.2600 26.1431 0.2728
39.2800 26.1564 0.2663
39.3000 26.1698 0.2632
39.3200 26.1831 0.2672
39.3400 26.1965 0.2657
39.3600 26.2099 0.2652
39.3800 26.2232 0.2646
39.4000 26.2366 0.2629
39.4200 26.2499 0.2637
39.4400 26.2632 0.2638
39.4600 26.2765 0.2632
39.4800 26.2898 0.2615
39.5000 26.3031 0.2600
39.5200 26.3165 0.2593
39.5400 26.3298 0.2624
39.5600 26.3431 0.2585
39.5800 26.3564 0.2627
39.6000 26.3698 0.2618
39.6200 26.3831 0.2532
39.6400 26.3965 0.2612
39.6600 26.4098 0.2614
39.6800 26.4231 0.2535
39.7000 26.4365 0.2574
39.7200 26.4498 0.2571
39.7400 26.4632 0.2513
39.7600 26.4765 0.2514
39.7800 26.4899 0.2550
39.8000 26.5032 0.2499
39.8200 26.5166 0.2492
39.8400 26.5299 0.2533
39.8600 26.5432 0.2528
39.8800 26.5565 0.2475
39.9000 26.5698 0.2462
39.9200 26.5831 0.2538
39.9400 26.5964 0.2424
39.9600 26.6097 0.2493
39.9800 26.6231 0.2566
40.0000 26.6364 0.2391
40.0200 26.6498 0.2430
40.0400 26.6631 0.2530
40.0600 26.6765 0.2375
40.0800 26.6899 0.2462
40.1000 26.7032 0.2480
40.1200 26.7165 0.2347
40.1400 26.7298 0.2453
40.1600 26.7432 0.2506
40.1800 26.7565 0.2308
40.2000 26.7698 0.2445
40.2200 26.7831 0.2484
40.2400 26.7965 0.2308
40.2600 26.8098 0.2432
40.2800 26.8232 0.2487
40.3000 26.8365 0.2288
40.3200 26.8498 0.2393
40.3400 26.8631 0.2432
40.3600 26.8765 0.2271
40.3800 26.8898 0.2384
40.4000 26.9031 0.2425
40.4200 26.9165 0.2302
40.4400 26.9299 0.2391
40.4600 26.9432 0.2407
40.4800 26.9565 0.2269
40.5000 26.9698 0.2371
40.5200 26.9832 0.2414
40.5400 26.9965 0.2239
40.5600 27.0099 0.2361
40.5800 27.0232 0.2412
40.6000 27.0365 0.2247
40.6200 27.0498 0.2380
40.6400 27.0631 0.2356
40.6600 27.0764 0.2205
40.6800 27.0898 0.2359
40.7000 27.1031 0.2363
40.7200 27.1165 0.2252
40.7400 27.1298 0.2345
40.7600 27.1431 0.2356
40.7800 27.1565 0.2245
40.8000 27.1698 0.2320
40.8200 27.1832 0.2364
40.8400 27.1965 0.2203
40.8600 27.2098 0.2313
40.8800 27.2232 0.2365
40.9000 27.2365 0.2186
40.9200 27.2499 0.2281
40.9400 27.2632 0.2396
40.9600 27.2765 0.2187
40.9800 27.2899 0.2239
41.0000 27.3032 0.2362
41.0200 27.3165 0.2168
41.0400 27.3298 0.2227
41.0600 27.3431 0.2349
41.0800 27.3564 0.2100
41.1000 27.3697 0.2204
41.1200 27.3831 0.2339
41.1400 27.3964 0.2119
41.1600 27.4098 0.2215
41.1800 27.4232 0.2245
41.2000 27.4366 0.2117
41.2200 27.4499 0.2241
41.2400 27.4632 0.2245
41.2600 27.4766 0.2075
41.2800 27.4899 0.2186
41.3000 27.5032 0.2237
41.3200 27.5165 0.2067
41.3400 27.5298 0.2168
41.3600 27.5431 0.2189
41.3800 27.5564 0.2033
41.4000 27.5697 0.2175
41.4200 27.5831 0.2199
41.4400 27.5964 0.2022
41.4600 27.6098 0.2114
41.4800 27.6231 0.2199
41.5000 27.6365 0.2031
41.5200 27.6498 0.2149
41.5400 27.6632 0.2161
41.5600 27.6766 0.1986
41.5800 27.6899 0.2125
41.6000 27.7032 0.2156
41.6200 27.7165 0.2016
41.6400 27.7299 0.2184
41.6600 27.7431 0.2140
41.6800 27.7565 0.2017
41.7000 27.7698 0.2138
41.7200 27.7831 0.2109
41.7400 27.7965 0.2006
41.7600 27.8098 0.2151
41.7800 27.8231 0.2072
41.8000 27.8365 0.2009
41.8200 27.8498 0.2115
41.8400 27.8632 0.2062
41.8600 27.8765 0.2039
41.8800 27.8898 0.2118
41.9000 27.9032 0.2067
41.9200 27.9165 0.1995
41.9400 27.9299 0.2068
41.9600 27.9432 0.2088
41.9800 27.9565 0.1977
42.0000 27.9699 0.2090
42.0200 27.9832 0.2072
42.0400 27.9965 0.1955
42.0600 28.0098 0.2059
42.0800 28.0232 0.2037
42.1000 28.0365 0.1958
42.1200 28.0498 0.2037
42.1400 28.0631 0.2049
42.1600 28.0764 0.1913
42.1800 28.0898 0.2032
42.2000 28.1031 0.2024
42.2200 28.1165 0.1894
42.2400 28.1299 0.2034
42.2600 28.1432 0.2019
42.2800 28.1566 0.1883
42.3000 28.1699 0.2000
42.3200 28.1832 0.2003
42.3400 28.1965 0.1870
42.3600 28.2098 0.1974
42.3800 28.2231 0.2006
42.4000 28.2364 0.1834
42.4200 28.2498 0.1971
42.4400 28.2631 0.1959
42.4600 28.2765 0.1868
42.4800 28.2898 0.1931
42.5000 28.3031 0.1947
42.5200 28.3165 0.1841
42.5400 28.3298 0.1880
42.5600 28.3431 0.1983
42.5800 28.3564 0.1869
42.6000 28.3698 0.1886
42.6200 28.3832 0.1916
42.6400 28.3965 0.1807
42.6600 28.4099 0.1858
42.6800 28.4232 0.1903
42.7000 28.4365 0.1868
42.7200 28.4499 0.1840
42.7400 28.4632 0.1879
42.7600 28.4765 0.1813
42.7800 28.4898 0.1843
42.8000 28.5031 0.1891
42.8200 28.5165 0.1801
42.8400 28.5298 0.1829
42.8600 28.5431 0.1823
42.8800 28.5564 0.1780
42.9000 28.5698 0.1815
42.9200 28.5831 0.1802
42.9400 28.5965 0.1752
42.9600 28.6098 0.1815
42.9800 28.6232 0.1786
43.0000 28.6365 0.1758
43.0200 28.6498 0.1797
43.0400 28.6632 0.1814
43.0600 28.6765 0.1716
43.0800 28.6899 0.1750
43.1000 28.7032 0.1827
43.1200 28.7165 0.1791
43.1400 28.7298 0.1733
43.1600 28.7432 0.1808
43.1800 28.7565 0.1743
43.2000 28.7698 0.1748
43.2200 28.7831 0.1785
43.2400 28.7964 0.1786
43.2600 28.8097 0.1732
43.2800 28.8231 0.1795
43.3000 28.8364 0.1750
43.3200 28.8498 0.1748
43.3400 28.8632 0.1771
43.3600 28.8766 0.1706
43.3800 28.8899 0.1702
43.4000 28.9032 0.1740
43.4200 28.9166 0.1762
43.4400 28.9299 0.1699
43.4600 28.9432 0.1736
43.4800 28.9564 0.1718
43.5000 28.9697 0.1699
43.5200 28.9831 0.1758
43.5400 28.9964 0.1646
43.5600 29.0098 0.1654
43.5800 29.0231 0.1750
43.6000 29.0365 0.1657
43.6200 29.0498 0.1642
43.6400 29.0632 0.1740
43.6600 29.0765 0.1636
43.6800 29.0899 0.1601
43.7000 29.1033 0.1765
43.7200 29.1166 0.1623
43.7400 29.1299 0.1591
43.7600 29.1432 0.1758
43.7800 29.1565 0.1597
43.8000 29.1699 0.1567
43.8200 29.1832 0.1769
43.8400 29.1965 0.1586
43.8600 29.2098 0.1612
43.8800 29.2231 0.1692
43.9000 29.2365 0.1555
43.9200 29.2498 0.1593
43.9400 29.2631 0.1680
43.9600 29.2764 0.1562
43.9800 29.2898 0.1567
44.0000 29.3031 0.1661
44.0200 29.3165 0.1557
44.0400 29.3298 0.1573
44.0600 29.3432 0.1663
44.0800 29.3565 0.1548
44.1000 29.3699 0.1544
44.1200 29.3832 0.1646
44.1400 29.3965 0.1577
44.1600 29.4099 0.1533
44.1800 29.4232 0.1573
44.2000 29.4365 0.1574
44.2200 29.4498 0.1577
44.2400 29.4632 0.1538
44.2600 29.4765 0.1523
44.2800 29.4898 0.1557
44.3000 29.5031 0.1553
44.3200 29.5164 0.1544
44.3400 29.5298 0.1509
44.3600 29.5431 0.1487
44.3800 29.5564 0.1521
44.4000 29.5698 0.1519
44.4200 29.5832 0.1505
44.4400 29.5965 0.1549
44.4600 29.6099 0.1469
44.4800 29.6232 0.1489
44.5000 29.6365 0.1550
44.5200 29.6498 0.1451
44.5400 29.6632 0.1470
44.5600 29.6765 0.1582
44.5800 29.6898 0.1414
44.6000 29.7032 0.1485
44.6200 29.7165 0.1550
44.6400 29.7298 0.1419
44.6600 29.7431 0.1497
44.6800 29.7564 0.1532
44.7000 29.7698 0.1380
44.7200 29.7831 0.1420
44.7400 29.7965 0.1507
44.7600 29.8098 0.1422
44.7800 29.8232 0.1412
44.8000 29.8365 0.1487
44.8200 29.8498 0.1416
44.8400 29.8632 0.1476
44.8600 29.8765 0.1415
44.8800 29.8899 0.1414
44.9000 29.9032 0.1459
44.9200 29.9165 0.1325
44.9400 29.9298 0.1474
44.9600 29.9431 0.1455
44.9800 29.9565 0.1313
45.0000 29.9698 0.1431
45.0200 29.9831 0.1460
45.0400 29.9964 0.1316
45.0600 30.0098 0.1449
45.0800 30.0231 0.1450
45.1000 30.0365 0.1291
45.1200 30.0498 0.1446
45.1400 30.0632 0.1425
45.1600 30.0766 0.1269
45.1800 30.0899 0.1394
45.2000 30.1032 0.1370
45.2200 30.1165 0.1366
45.2400 30.1299 0.1403
45.2600 30.1432 0.1297
45.2800 30.1565 0.1364
45.3000 30.1698 0.1463
45.3200 30.1831 0.1227
45.3400 30.1965 0.1365
45.3600 30.2098 0.1413
45.3800 30.2231 0.1218
45.4000 30.2364 0.1343
45.4200 30.2498 0.1374
45.4400 30.2631 0.1219
45.4600 30.2764 0.1367
45.4800 30.2898 0.1335
45.5000 30.3032 0.1228
45.5200 30.3166 0.1364
45.5400 30.3299 0.1305
45.5600 30.3432 0.1210
45.5800 30.3565 0.1363
45.6000 30.3699 0.1277
45.6200 30.3832 0.1182
45.6400 30.3965 0.1385
45.6600 30.4098 0.1268
45.6800 30.4231 0.1210
45.7000 30.4365 0.1319
45.7200 30.4498 0.1245
45.7400 30.4631 0.1204
45.7600 30.4765 0.1308
45.7800 30.4898 0.1253
45.8000 30.5032 0.1201
45.8200 30.5165 0.1231
45.8400 30.5298 0.1272
45.8600 30.5432 0.1179
45.8800 30.5565 0.1277
45.9000 30.5698 0.1234
45.9200 30.5831 0.1181
45.9400 30.5965 0.1251
45.9600 30.6098 0.1266
45.9800 30.6232 0.1103
46.0000 30.6365 0.1205
46.0200 30.6498 0.1251
46.0400 30.6632 0.1110
46.0600 30.6765 0.1248
46.0800 30.6898 0.1196
46.1000 30.7031 0.1122
46.1200 30.7165 0.1260
46.1400 30.7298 0.1161
46.1600 30.7431 0.1160
46.1800 30.7564 0.1240
46.2000 30.7698 0.1161
46.2200 30.7831 0.1104
46.2400 30.7965 0.1239
46.2600 30.8098 0.1137
46.2800 30.8232 0.1105
46.3000 30.8365 0.1252
46.3200 30.8499 0.1128
46.3400 30.8632 0.1080
46.3600 30.8765 0.1253
46.3800 30.8898 0.1142
46.4000 30.9032 0.1066
46.4200 30.9165 0.1167
46.4400 30.9298 0.1145
46.4600 30.9431 0.1059
46.4800 30.9564 0.1175
46.5000 30.9698 0.1150
46.5200 30.9831 0.1069
46.5400 30.9964 0.1175
46.5600 31.0098 0.1145
46.5800 31.0232 0.1038
46.6000 31.0365 0.1171
46.6200 31.0499 0.1101
46.6400 31.0632 0.1048
46.6600 31.0765 0.1159
46.6800 31.0899 0.1095
46.7000 31.1032 0.1075
46.7200 31.1165 0.1168
46.7400 31.1298 0.1063
46.7600 31.1432 0.1018
46.7800 31.1565 0.1156
46.8000 31.1698 0.1054
46.8200 31.1831 0.1062
46.8400 31.1964 0.1129
46.8600 31.2098 0.1017
46.8800 31.2231 0.1063
46.9000 31.2365 0.1121
46.9200 31.2498 0.1014
46.9400 31.2631 0.1028
46.9600 31.2765 0.1091
46.9800 31.2898 0.0985
47.0000 31.3032 0.1030
47.0200 31.3165 0.1065
47.0400 31.3299 0.0960
47.0600 31.3432 0.1006
47.0800 31.3565 0.1022
47.1000 31.3698 0.1013
47.1200 31.3831 0.1014
47.1400 31.3965 0.0997
47.1600 31.4098 0.0989
47.1800 31.4231 0.0943
47.2000 31.4364 0.0976
47.2200 31.4498 0.1013
47.2400 31.4631 0.0930
47.2600 31.4764 0.0950
47.2800 31.4898 0.1011
47.3000 31.5032 0.0938
47.3200 31.5165 0.0908
47.3400 31.5299 0.0958
47.3600 31.5432 0.0933
47.3800 31.5565 0.0882
47.4000 31.5698 0.0947
47.4200 31.5832 0.0883
47.4400 31.5965 0.0922
47.4600 31.6098 0.0973
47.4800 31.6231 0.0842
47.5000 31.6365 0.0914
47.5200 31.6498 0.0973
47.5400 31.6631 0.0844
47.5600 31.6765 0.0885
47.5800 31.6898 0.0948
47.6000 31.7031 0.0852
47.6200 31.7165 0.0816
47.6400 31.7298 0.0965
47.6600 31.7432 0.0837
47.6800 31.7565 0.0812
47.7000 31.7699 0.0945
47.7200 31.7832 0.0830
47.7400 31.7965 0.0843
47.7600 31.8099 0.0916
47.7800 31.8232 0.0804
47.8000 31.8365 0.0823
47.8200 31.8498 0.0900
47.8400 31.8631 0.0832
47.8600 31.8765 0.0840
47.8800 31.8898 0.0868
47.9000 31.9031 0.0791
47.9200 31.9164 0.0835
47.9400 31.9298 0.0865
47.9600 31.9431 0.0792
47.9800 31.9564 0.0830
48.0000 31.9698 0.0864
48.0200 31.9831 0.0759
48.0400 31.9965 0.0769
48.0600 32.0098 0.0867
48.0800 32.0231 0.0786
48.1000 32.0365 0.0785
48.1200 32.0498 0.0838
48.1400 32.0632 0.0777
48.1600 32.0765 0.0754
48.1800 32.0899 0.0858
48.2000 32.1032 0.0762
48.2200 32.1165 0.0743
48.2400 32.1299 0.0827
48.2600 32.1431 0.0763
48.2800 32.1564 0.0755
48.3000 32.1697 0.0832
48.3200 32.1830 0.0721
48.3400 32.1964 0.0770
48.3600 32.2097 0.0830
48.3800 32.2231 0.0735
48.4000 32.2365 0.0744
48.4200 32.2499 0.0778
48.4400 32.2632 0.0686
48.4600 32.2765 0.0761
48.4800 32.2899 0.0789
48.5000 32.3032 0.0648
48.5200 32.3166 0.0712
48.5400 32.3298 0.0805
48.5600 32.3431 0.0713
48.5800 32.3565 0.0722
48.6000 32.3698 0.0753
48.6200 32.3831 0.0675
48.6400 32.3964 0.0726
48.6600 32.4098 0.0756
48.6800 32.4231 0.0657
48.7000 32.4364 0.0690
48.7200 32.4498 0.0748
48.7400 32.4632 0.0660
48.7600 32.4765 0.0694
48.7800 32.4899 0.0743
48.8000 32.5032 0.0601
48.8200 32.5165 0.0694
48.8400 32.5299 0.0689
48.8600 32.5432 0.0654
48.8800 32.5565 0.0707
48.9000 32.5698 0.0640
48.9200 32.5831 0.0633
48.9400 32.5965 0.0666
48.9600 32.6098 0.0663
48.9800 32.6231 0.0596
49.0000 32.6364 0.0719
49.0200 32.6498 0.0628
49.0400 32.6631 0.0626
49.0600 32.6765 0.0670
49.0800 32.6898 0.0626
49.1000 32.7031 0.0631
49.1200 32.7165 0.0641
49.1400 32.7299 0.0626
49.1600 32.7432 0.0617
49.1800 32.7565 0.0692
49.2000 32.7698 0.0592
49.2200 32.7832 0.0624
49.2400 32.7965 0.0672
49.2600 32.8098 0.0595
49.2800 32.8232 0.0671
49.3000 32.8365 0.0605
49.3200 32.8498 0.0606
49.3400 32.8631 0.0598
49.3600 32.8764 0.0628
49.3800 32.8897 0.0619
49.4000 32.9031 0.0543
49.4200 32.9165 0.0617
49.4400 32.9298 0.0607
49.4600 32.9432 0.0573
49.4800 32.9565 0.0568
49.5000 32.9699 0.0555
49.5200 32.9832 0.0572
49.5400 32.9965 0.0570
49.5600 33.0098 0.0590
49.5800 33.0232 0.0552
49.6000 33.0365 0.0580
49.6200 33.0498 0.0568
49.6400 33.0631 0.0455
49.6600 33.0765 0.0621
49.6800 33.0898 0.0516
49.7000 33.1031 0.0474
49.7200 33.1164 0.0622
49.7400 33.1298 0.0478
49.7600 33.1431 0.0484
49.7800 33.1564 0.0577
49.8000 33.1698 0.0463
49.8200 33.1831 0.0479
49.8400 33.1965 0.0586
49.8600 33.2099 0.0437
49.8800 33.2232 0.0461
49.9000 33.2365 0.0577
49.9200 33.2499 0.0398
49.9400 33.2632 0.0465
49.9600 33.2766 0.0552
49.9800 33.2899 0.0414
50.0000 33.3032 0.0469
50.0200 33.3165 0.0506
50.0400 33.3298 0.0361
50.0600 33.3431 0.0500
50.0800 33.3564 0.0508
50.1000 33.3698 0.0351
50.1200 33.3831 0.0531
50.1400 33.3965 0.0514
50.1600 33.4098 0.0301
50.1800 33.4231 0.0538
50.2000 33.4365 0.0456
50.2200 33.4499 0.0274
50.2400 33.4632 0.0520
50.2600 33.4765 0.0481
50.2800 33.4898 0.0330
50.3000 33.5032 0.0420
50.3200 33.5165 0.0476
50.3400 33.5298 0.0391
50.3600 33.5432 0.0407
50.3800 33.5565 0.0413
50.4000 33.5699 0.0467
50.4200 33.5832 0.0465
50.4400 33.5965 0.0266
50.4600 33.6098 0.0439
50.4800 33.6231 0.0446
50.5000 33.6364 0.0294
50.5200 33.6497 0.0406
50.5400 33.6631 0.0451
50.5600 33.6765 0.0276
50.5800 33.6899 0.0326
50.6000 33.7033 0.0464
50.6200 33.7166 0.0332
50.6400 33.7299 0.0322
50.6600 33.7432 0.0406
50.6800 33.7565 0.0306
50.7000 33.7698 0.0316
50.7200 33.7831 0.0418
50.7400 33.7964 0.0345
50.7600 33.8098 0.0285
50.7800 33.8231 0.0349
50.8000 33.8364 0.0376
50.8200 33.8498 0.0279
50.8400 33.8631 0.0341
50.8600 33.8765 0.0302
50.8800 33.8898 0.0296
50.9000 33.9032 0.0319
50.9200 33.9165 0.0320
50.9400 33.9299 0.0266
50.9600 33.9432 0.0282
50.9800 33.9565 0.0285
51.0000 33.9698 0.0317
51.0200 33.9831 0.0343
51.0400 33.9965 0.0222
51.0600 34.0098 0.0213
51.0800 34.0231 0.0359
51.1000 34.0365 0.0310
51.1200 34.0498 0.0159
51.1400 34.0631 0.0297
51.1600 34.0764 0.0249
51.1800 34.0898 0.0209
51.2000 34.1031 0.0255
51.2200 34.1165 0.0294
51.2400 34.1298 0.0208
51.2600 34.1431 0.0183
51.2800 34.1565 0.0283
51.3000 34.1699 0.0250
51.3200 34.1832 0.0151
51.3400 34.1965 0.0269
51.3600 34.2099 0.0214
51.3800 34.2232 0.0166
51.4000 34.2366 0.0243
51.4200 34.2499 0.0159
51.4400 34.2631 0.0170
51.4600 34.2765 0.0309
51.4800 34.2898 0.0175
51.5000 34.3032 0.0120
51.5200 34.3164 0.0277
51.5400 34.3297 0.0163
51.5600 34.3431 0.0139
51.5800 34.3565 0.0292
51.6000 34.3698 0.0114
51.6200 34.3831 0.0134
51.6400 34.3965 0.0266
51.6600 34.4099 0.0115
51.6800 34.4232 0.0143
51.7000 34.4365 0.0243
51.7200 34.4499 0.0090
51.7400 34.4632 0.0108
51.7600 34.4765 0.0225
51.7800 34.4898 0.0124
51.8000 34.5031 0.0131
51.8200 34.5164 0.0200
51.8400 34.5298 0.0096
51.8600 34.5431 0.0127
51.8800 34.5564 0.0171
51.9000 34.5698 0.0090
51.9200 34.5831 0.0138
51.9400 34.5965 0.0100
51.9600 34.6098 0.0095
51.9800 34.6231 0.0105
52.0000 34.6364 0.0091
52.0200 34.6498 0.0128
52.0400 34.6632 0.0052
52.0600 34.6765 0.0084
52.0800 34.6898 0.0141
52.1000 34.7032 -0.0034
52.1200 34.7166 0.0122
52.1400 34.7299 0.0122
52.1600 34.7432 -0.0044
52.1800 34.7565 0.0100
52.2000 34.7698 0.0148
52.2200 34.7831 -0.0065
52.2400 34.7964 0.0096
52.2600 34.8097 0.0118
52.2800 34.8231 -0.0078
52.3000 34.8364 0.0097
52.3200 34.8498 0.0092
52.3400 34.8631 -0.0065
52.3600 34.8765 0.0083
52.3800 34.8899 0.0048
52.4000 34.9032 -0.0118
52.4200 34.9165 0.0079
52.4400 34.9298 0.0065
52.4600 34.9432 -0.0136
52.4800 34.9565 0.0103
52.5000 34.9699 0.0019
52.5200 34.9832 -0.0104
52.5400 34.9965 0.0119
52.5600 35.0098 -0.0028
52.5800 35.0231 -0.0124
52.6000 35.0364 0.0096
52.6200 35.0498 -0.0048
52.6400 35.0631 -0.0162
52.6600 35.0764 0.0126
52.6800 35.0898 -0.0052
52.7000 35.1031 -0.0134
52.7200 35.1165 0.0078
52.7400 35.1299 -0.0068
52.7600 35.1432 -0.0166
52.7800 35.1565 0.0081
52.8000 35.1699 -0.0088
52.8200 35.1832 -0.0149
52.8400 35.1965 0.0047
52.8600 35.2098 -0.0091
52.8800 35.2231 -0.0173
52.9000 35.2364 0.0037
52.9200 35.2498 -0.0099
52.9400 35.2631 -0.0209
52.9600 35.2764 0.0064
52.9800 35.2898 -0.0099
53.0000 35.3032 -0.0184
53.0200 35.3165 -0.0011
53.0400 35.3299 -0.0113
53.0600 35.3432 -0.0143
53.0800 35.3565 -0.0061
53.1000 35.3699 -0.0114
53.1200 35.3832 -0.0155
53.1400 35.3965 -0.0022
53.1600 35.4098 -0.0147
53.1800 35.4231 -0.0208
53.2000 35.4365 -0.0001
53.2200 35.4498 -0.0192
53.2400 35.4632 -0.0214
53.2600 35.4765 -0.0083
53.2800 35.4899 -0.0192
53.3000 35.5032 -0.0203
53.3200 35.5165 -0.0119
53.3400 35.5298 -0.0160
53.3600 35.5431 -0.0163
53.3800 35.5564 -0.0131
53.4000 35.5698 -0.0214
53.4200 35.5831 -0.0146
53.4400 35.5964 -0.0083
53.4600 35.6098 -0.0297
53.4800 35.6232 -0.0186
53.5000 35.6365 -0.0097
53.5200 35.6498 -0.0242
53.5400 35.6632 -0.0248
53.5600 35.6765 -0.0134
53.5800 35.6899 -0.0233
53.6000 35.7032 -0.0208
53.6200 35.7165 -0.0159
53.6400 35.7298 -0.0262
53.6600 35.7432 -0.0215
53.6800 35.7565 -0.0135
53.7000 35.7698 -0.0278
53.7200 35.7831 -0.0242
53.7400 35.7964 -0.0154
53.7600 35.8098 -0.0301
53.7800 35.8231 -0.0217
53.8000 35.8365 -0.0191
53.8200 35.8498 -0.0293
53.8400 35.8632 -0.0229
53.8600 35.8765 -0.0215
53.8800 35.8899 -0.0297
53.9000 35.9032 -0.0234
53.9200 35.9165 -0.0246
53.9400 35.9299 -0.0283
53.9600 35.9431 -0.0238
53.9800 35.9564 -0.0283
54.0000 35.9698 -0.0288
54.0200 35.9831 -0.0250
54.0400 35.9964 -0.0270
54.0600 36.0098 -0.0272
54.0800 36.0231 -0.0276
54.1000 36.0365 -0.0264
54.1200 36.0498 -0.0330
54.1400 36.0631 -0.0244
54.1600 36.0765 -0.0264
54.1800 36.0898 -0.0351
54.2000 36.1032 -0.0324
54.2200 36.1165 -0.0226
54.2400 36.1298 -0.0353
54.2600 36.1432 -0.0355
54.2800 36.1566 -0.0256
54.3000 36.1699 -0.0333
54.3200 36.1832 -0.0367
54.3400 36.1965 -0.0248
54.3600 36.2098 -0.0374
54.3800 36.2232 -0.0366
54.4000 36.2365 -0.0383
54.4200 36.2498 -0.0326
54.4400 36.2631 -0.0337
54.4600 36.2764 -0.0360
54.4800 36.2898 -0.0379
54.5000 36.3031 -0.0388
54.5200 36.3165 -0.0324
54.5400 36.3299 -0.0387
54.5600 36.3432 -0.0442
54.5800 36.3565 -0.0373
54.6000 36.3698 -0.0397
54.6200 36.3832 -0.0439
54.6400 36.3965 -0.0380
54.6600 36.4098 -0.0387
54.6800 36.4231 -0.0488
54.7000 36.4365 -0.0325
54.7200 36.4498 -0.0450
54.7400 36.4631 -0.0514
54.7600 36.4765 -0.0288
54.7800 36.4898 -0.0495
54.8000 36.5031 -0.0445
54.8200 36.5165 -0.0354
54.8400 36.5298 -0.0498
54.8600 36.5431 -0.0442
54.8800 36.5565 -0.0361
54.9000 36.5698 -0.0517
54.9200 36.5832 -0.0445
54.9400 36.5965 -0.0380
54.9600 36.6098 -0.0550
54.9800 36.6232 -0.0395
55.0000 36.6365 -0.0448
55.0200 36.6499 -0.0587
55.0400 36.6631 -0.0345
55.0600 36.6764 -0.0495
55.0800 36.6898 -0.0577
55.1000 36.7031 -0.0394
55.1200 36.7164 -0.0517
55.1400 36.7297 -0.0575
55.1600 36.7431 -0.0356
55.1800 36.7564 -0.0519
55.2000 36.7698 -0.0615
55.2200 36.7831 -0.0380
55.2400 36.7965 -0.0556
55.2600 36.8098 -0.0598
55.2800 36.8232 -0.0394
55.3000 36.8365 -0.0584
55.3200 36.8498 -0.0562
55.3400 36.8631 -0.0444
55.3600 36.8765 -0.0595
55.3800 36.8899 -0.0565
55.4000 36.9032 -0.0421
55.4200 36.9165 -0.0610
55.4400 36.9299 -0.0591
55.4600 36.9432 -0.0445
55.4800 36.9565 -0.0627
55.5000 36.9698 -0.0549
55.5200 36.9831 -0.0494
55.5400 36.9964 -0.0610
55.5600 37.0097 -0.0587
55.5800 37.0231 -0.0568
55.6000 37.0364 -0.0578
55.6200 37.0499 -0.0601
55.6400 37.0632 -0.0647
55.6600 37.0766 -0.0604
55.6800 37.0899 -0.0605
55.7000 37.1032 -0.0539
55.7200 37.1166 -0.0636
55.7400 37.1299 -0.0618
55.7600 37.1432 -0.0572
55.7800 37.1565 -0.0649
55.8000 37.1698 -0.0636
55.8200 37.1831 -0.0572
55.8400 37.1965 -0.0626
55.8600 37.2097 -0.0648
55.8800 37.2231 -0.0616
55.9000 37.2364 -0.0640
55.9200 37.2498 -0.0658
55.9400 37.2631 -0.0601
55.9600 37.2764 -0.0650
55.9800 37.2898 -0.0640
56.0000 37.3032 -0.0605
56.0200 37.3165 -0.0703
56.0400 37.3299 -0.0663
56.0600 37.3432 -0.0627
56.0800 37.3566 -0.0755
56.1000 37.3699 -0.0666
56.1200 37.3832 -0.0641
56.1400 37.3965 -0.0737
56.1600 37.4098 -0.0672
56.1800 37.4232 -0.0670
56.2000 37.4365 -0.0764
56.2200 37.4498 -0.0663
56.2400 37.4631 -0.0623
56.2600 37.4764 -0.0787
56.2800 37.4898 -0.0731
56.3000 37.5031 -0.0646
56.3200 37.5165 -0.0730
56.3400 37.5298 -0.0745
56.3600 37.5432 -0.0684
56.3800 37.5565 -0.0753
56.4000 37.5698 -0.0746
56.4200 37.5832 -0.0680
56.4400 37.5965 -0.0777
56.4600 37.6099 -0.0749
56.4800 37.6232 -0.0639
56.5000 37.6365 -0.0798
56.5200 37.6498 -0.0826
56.5400 37.6632 -0.0626
56.5600 37.6765 -0.0764
56.5800 37.6898 -0.0854
56.6000 37.7031 -0.0650
56.6200 37.7164 -0.0814
56.6400 37.7298 -0.0834
56.6600 37.7431 -0.0661
56.6800 37.7565 -0.0830
56.7000 37.7698 -0.0830
56.7200 37.7832 -0.0686
56.7400 37.7966 -0.0850
56.7600 37.8099 -0.0815
56.7800 37.8232 -0.0717
56.8000 37.8365 -0.0906
56.8200 37.8499 -0.0843
56.8400 37.8632 -0.0728
56.8600 37.8765 -0.0879
56.8800 37.8898 -0.0843
56.9000 37.9031 -0.0755
56.9200 37.9165 -0.0888
56.9400 37.9298 -0.0852
56.9600 37.9431 -0.0780
56.9800 37.9564 -0.0854
57.0000 37.9698 -0.0910
57.0200 37.9831 -0.0850
57.0400 37.9965 -0.0865
57.0600 38.0098 -0.0911
57.0800 38.0232 -0.0874
57.1000 38.0365 -0.0842
57.1200 38.0499 -0.0931
57.1400 38.0632 -0.0874
57.1600 38.0765 -0.0865
57.1800 38.0899 -0.0923
57.2000 38.1032 -0.0899
57.2200 38.1165 -0.0890
57.2400 38.1298 -0.0933
57.2600 38.1432 -0.0912
57.2800 38.1565 -0.0871
57.3000 38.1698 -0.0957
57.3200 38.1831 -0.0937
57.3400 38.1964 -0.0858
57.3600 38.2098 -0.0989
57.3800 38.2231 -0.0909
57.4000 38.2364 -0.0896
57.4200 38.2498 -0.0973
57.4400 38.2632 -0.0905
57.4600 38.2765 -0.0911
57.4800 38.2898 -0.1018
57.5000 38.3032 -0.0931
57.5200 38.3165 -0.0918
57.5400 38.3299 -0.1046
57.5600 38.3432 -0.0910
57.5800 38.3565 -0.0948
57.6000 38.3698 -0.1040
57.6200 38.3831 -0.0993
57.6400 38.3965 -0.0961
57.6600 38.4098 -0.1062
57.6800 38.4231 -0.1016
57.7000 38.4364 -0.0990
57.7200 38.4497 -0.1083
57.7400 38.4631 -0.0995
57.7600 38.4764 -0.1060
57.7800 38.4898 -0.1075
57.8000 38.5032 -0.1022
57.8200 38.5166 -0.1053
57.8400 38.5299 -0.1129
57.8600 38.5432 -0.1076
57.8800 38.5566 -0.0995
57.9000 38.5699 -0.1121
57.9200 38.5832 -0.1060
57.9400 38.5964 -0.1040
57.9600 38.6097 -0.1123
57.9800 38.6231 -0.1097
58.0000 38.6364 -0.1087
58.0200 38.6498 -0.1180
58.0400 38.6631 -0.1110
58.0600 38.6765 -0.1044
58.0800 38.6898 -0.1207
58.1000 38.7032 -0.1091
58.1200 38.7165 -0.1068
58.1400 38.7299 -0.1264
58.1600 38.7432 -0.1103
58.1800 38.7566 -0.1089
58.2000 38.7699 -0.1252
58.2200 38.7832 -0.1073
58.2400 38.7965 -0.1109
58.2600 38.8099 -0.1245
58.2800 38.8232 -0.1093
58.3000 38.8365 -0.1118
58.3200 38.8498 -0.1295
58.3400 38.8631 -0.1081
58.3600 38.8765 -0.1178
58.3800 38.8898 -0.1297
58.4000 38.9031 -0.1062
58.4200 38.9164 -0.1150
58.4400 38.9298 -0.1290
58.4600 38.9431 -0.1111
58.4800 38.9565 -0.1233
58.5000 38.9698 -0.1258
58.5200 38.9832 -0.1141
58.5400 38.9965 -0.1237
58.5600 39.0098 -0.1308
58.5800 39.0232 -0.1178
58.6000 39.0365 -0.1190
58.6200 39.0499 -0.1280
58.6400 39.0632 -0.1260
58.6600 39.0765 -0.1226
58.6800 39.0898 -0.1284
58.7000 39.1031 -0.1277
58.7200 39.1165 -0.1247
58.7400 39.1298 -0.1286
58.7600 39.1431 -0.1336
58.7800 39.1564 -0.1229
58.8000 39.1698 -0.1389
58.8200 39.1831 -0.1321
58.8400 39.1964 -0.1229
58.8600 39.2098 -0.1408
58.8800 39.2232 -0.1299
58.9000 39.2365 -0.1279
58.9200 39.2499 -0.1438
58.9400 39.2632 -0.1271
58.9600 39.2765 -0.1256
58.9800 39.2899 -0.1454
59.0000 39.3032 -0.1314
59.0200 39.3165 -0.1320
59.0400 39.3298 -0.1440
59.0600 39.3431 -0.1311
59.0800 39.3565 -0.1334
59.1000 39.3698 -0.1471
59.1200 39.3831 -0.1316
59.1400 39.3964 -0.1383
59.1600 39.4098 -0.1461
59.1800 39.4231 -0.1342
59.2000 39.4364 -0.1403
59.2200 39.4498 -0.1533
59.2400 39.4631 -0.1346
59.2600 39.4765 -0.1404
59.2800 39.4898 -0.1521
59.3000 39.5032 -0.1395
59.3200 39.5165 -0.1423
59.3400 39.5299 -0.1520
59.3600 39.5432 -0.1433
59.3800 39.5565 -0.1458
59.4000 39.5698 -0.1512
59.4200 39.5831 -0.1467
59.4400 39.5965 -0.1489
59.4600 39.6098 -0.1527
59.4800 39.6231 -0.1435
59.5000 39.6364 -0.1541
59.5200 39.6498 -0.1554
59.5400 39.6631 -0.1433
59.5600 39.6765 -0.1573
59.5800 39.6898 -0.1547
59.6000 39.7032 -0.1444
59.6200 39.7166 -0.1591
59.6400 39.7299 -0.1540
59.6600 39.7432 -0.1478
59.6800 39.7565 -0.1576
59.7000 39.7699 -0.1586
59.7200 39.7832 -0.1489
59.7400 39.7965 -0.1608
59.7600 39.8098 -0.1570
59.7800 39.8232 -0.1465
59.8000 39.8365 -0.1640
59.8200 39.8498 -0.1582
59.8400 39.8631 -0.1515
59.8600 39.8764 -0.1646
59.8800 39.8898 -0.1575
59.9000 39.9031 -0.1555
59.9200 39.9164 -0.1682
59.9400 39.9298 -0.1606
59.9600 39.9432 -0.1572
59.9800 39.9565 -0.1703
60.0000 39.9699 -0.1654
60.0200 39.9832 -0.1570
60.0400 39.9965 -0.1795
60.0460 40.0004 -0.1925
