Raw Data
Time Displacement Force
(s) (mm) (N)
0.0000 0.0000 0.3201
0.0200 0.0001 0.3377
0.0400 0.0022 0.3993
0.0600 0.0101 0.3986
0.0800 0.0220 0.3109
0.1000 0.0345 0.3165
0.1200 0.0472 0.3605
0.1400 0.0606 0.3230
0.1600 0.0747 0.3275
0.1800 0.0889 0.3422
0.2000 0.1028 0.3096
0.2200 0.1163 0.3273
0.2400 0.1297 0.3396
0.2600 0.1430 0.3133
0.2800 0.1563 0.3338
0.3000 0.1697 0.3372
0.3200 0.1831 0.3105
0.3400 0.1964 0.3398
0.3600 0.2097 0.3333
0.3800 0.2231 0.3162
0.4000 0.2364 0.3365
0.4200 0.2497 0.3295
0.4400 0.2630 0.3193
0.4600 0.2764 0.3337
0.4800 0.2897 0.3279
0.5000 0.3031 0.3212
0.5200 0.3164 0.3312
0.5400 0.3297 0.3246
0.5600 0.3430 0.3264
0.5800 0.3564 0.3325
0.6000 0.3698 0.3212
0.6200 0.3831 0.3241
0.6400 0.3965 0.3319
0.6600 0.4098 0.3193
0.6800 0.4232 0.3255
0.7000 0.4365 0.3251
0.7200 0.4498 0.3213
0.7400 0.4631 0.3241
0.7600 0.4765 0.3239
0.7800 0.4898 0.3247
0.8000 0.5031 0.3180
0.8200 0.5164 0.3242
0.8400 0.5298 0.3230
0.8600 0.5431 0.3190
0.8800 0.5564 0.3170
0.9000 0.5697 0.3241
0.9200 0.5830 0.3208
0.9400 0.5964 0.3191
0.9600 0.6097 0.3225
0.9800 0.6230 0.3121
1.0000 0.6364 0.3214
1.0200 0.6497 0.3199
1.0400 0.6631 0.3063
1.0600 0.6765 0.3180
1.0800 0.6898 0.3176
1.1000 0.7031 0.3065
1.1200 0.7165 0.3196
1.1400 0.7298 0.3122
1.1600 0.7431 0.3053
1.1800 0.7564 0.3132
1.2000 0.7698 0.3102
1.2200 0.7831 0.3070
1.2400 0.7964 0.3134
1.2600 0.8097 0.3083
1.2800 0.8230 0.3046
1.3000 0.8364 0.3071
1.3200 0.8498 0.3018
1.3400 0.8631 0.3067
1.3600 0.8764 0.3100
1.3800 0.8897 0.3020
1.4000 0.9031 0.3063
1.4200 0.9164 0.3034
1.4400 0.9298 0.3005
1.4600 0.9431 0.3091
1.4800 0.9565 0.2953
1.5000 0.9698 0.2984
1.5200 0.9831 0.3051
1.5400 0.9964 0.2949
1.5600 1.0097 0.3017
1.5800 1.0231 0.3091
1.6000 1.0364 0.2929
1.6200 1.0497 0.2990
1.6400 1.0630 0.3078
1.6600 1.0764 0.2891
1.6800 1.0897 0.2997
1.7000 1.1031 0.2988
1.7200 1.1164 0.2851
1.7400 1.1298 0.2981
1.7600 1.1432 0.2963
1.7800 1.1565 0.2864
1.8000 1.1698 0.3000
1.8200 1.1831 0.2897
1.8400 1.1965 0.2807
1.8600 1.2098 0.2957
1.8800 1.2231 0.2928
1.9000 1.2364 0.2848
1.9200 1.2497 0.2923
1.9400 1.2631 0.2843
1.9600 1.2765 0.2841
1.9800 1.2898 0.2889
2.0000 1.3031 0.2885
2.0200 1.3164 0.2836
2.0400 1.3297 0.2858
2.0600 1.3431 0.2865
2.0800 1.3564 0.2828
2.1000 1.3698 0.2849
2.1200 1.3832 0.2859
2.1400 1.3965 0.2763
2.1600 1.4098 0.2914
2.1800 1.4231 0.2890
2.2000 1.4365 0.2738
2.2200 1.4498 0.2924
2.2400 1.4631 0.2894
2.2600 1.4764 0.2701
2.2800 1.4897 0.2940
2.3000 1.5031 0.2849
2.3200 1.5164 0.2725
2.3400 1.5297 0.2909
2.3600 1.5431 0.2817
2.3800 1.5564 0.2685
2.4000 1.5698 0.2886
2.4200 1.5831 0.2784
2.4400 1.5964 0.2698
2.4600 1.6098 0.2892
2.4800 1.6231 0.2758
2.5000 1.6364 0.2701
2.5200 1.6497 0.2883
2.5400 1.6630 0.2752
2.5600 1.6764 0.2752
2.5800 1.6898 0.2864
2.6000 1.7031 0.2677
2.6200 1.7165 0.2747
2.6400 1.7298 0.2881
2.6600 1.7431 0.2670
2.6800 1.7565 0.2756
2.7000 1.7698 0.2871
2.7200 1.7831 0.2638
2.7400 1.7964 0.2731
2.7600 1.8097 0.2777
2.7800 1.8230 0.2650
2.8000 1.8364 0.2742
2.8200 1.8497 0.2737
2.8400 1.8631 0.2637
2.8600 1.8765 0.2725
2.8800 1.8898 0.2709
2.9000 1.9031 0.2646
2.9200 1.9165 0.2719
2.9400 1.9298 0.2691
2.9600 1.9431 0.2671
2.9800 1.9564 0.2694
3.0000 1.9698 0.2627
3.0200 1.9831 0.2667
3.0400 1.9964 0.2641
3.0600 2.0097 0.2617
3.0800 2.0230 0.2683
3.1000 2.0364 0.2626
3.1200 2.0497 0.2574
3.1400 2.0631 0.2713
3.1600 2.0764 0.2580
3.1800 2.0898 0.2648
3.2000 2.1031 0.2666
3.2200 2.1165 0.2513
3.2400 2.1298 0.2617
3.2600 2.1432 0.2626
3.2800 2.1565 0.2563
3.3000 2.1698 0.2586
3.3200 2.1831 0.2598
3.3400 2.1964 0.2540
3.3600 2.2097 0.2582
3.3800 2.2231 0.2583
3.4000 2.2364 0.2481
3.4200 2.2497 0.2573
3.4400 2.2630 0.2520
3.4600 2.2764 0.2501
3.4800 2.2898 0.2550
3.5000 2.3031 0.2560
3.5200 2.3164 0.2509
3.5400 2.3298 0.2494
3.5600 2.3431 0.2541
3.5800 2.3565 0.2480
3.6000 2.3698 0.2477
3.6200 2.3831 0.2537
3.6400 2.3965 0.2489
3.6600 2.4098 0.2446
3.6800 2.4231 0.2488
3.7000 2.4365 0.2477
3.7200 2.4498 0.2423
3.7400 2.4631 0.2466
3.7600 2.4764 0.2487
3.7800 2.4897 0.2389
3.8000 2.5030 0.2490
3.8200 2.5163 0.2473
3.8400 2.5297 0.2406
3.8600 2.5430 0.2489
3.8800 2.5564 0.2448
3.9000 2.5697 0.2386
3.9200 2.5831 0.2458
3.9400 2.5965 0.2422
3.9600 2.6098 0.2382
3.9800 2.6231 0.2465
4.0000 2.6364 0.2435
4.0200 2.6498 0.2346
4.0400 2.6631 0.2483
4.0600 2.6764 0.2416
4.0800 2.6897 0.2400
4.1000 2.7031 0.2445
4.1200 2.7164 0.2372
4.1400 2.7298 0.2382
4.1600 2.7431 0.2415
4.1800 2.7564 0.2371
4.2000 2.7697 0.2354
4.2200 2.7830 0.2362
4.2400 2.7964 0.2389
4.2600 2.8097 0.2322
4.2800 2.8231 0.2388
4.3000 2.8365 0.2350
4.3200 2.8498 0.2296
4.3400 2.8631 0.2379
4.3600 2.8765 0.2325
4.3800 2.8898 0.2281
4.4000 2.9031 0.2342
4.4200 2.9164 0.2364
4.4400 2.9297 0.2239
4.4600 2.9431 0.2328
4.4800 2.9564 0.2337
4.5000 2.9697 0.2248
4.5200 2.9830 0.2328
4.5400 2.9964 0.2298
4.5600 3.0097 0.2242
4.5800 3.0231 0.2281
4.6000 3.0364 0.2294
4.6200 3.0497 0.2239
4.6400 3.0631 0.2281
4.6600 3.0764 0.2251
4.6800 3.0898 0.2213
4.7000 3.1031 0.2279
4.7200 3.1164 0.2207
4.7400 3.1298 0.2245
4.7600 3.1432 0.2218
4.7800 3.1565 0.2225
4.8000 3.1698 0.2280
4.8200 3.1831 0.2195
4.8400 3.1965 0.2212
4.8600 3.2098 0.2258
4.8800 3.2230 0.2199
4.9000 3.2363 0.2204
4.9200 3.2497 0.2248
4.9400 3.2630 0.2186
4.9600 3.2764 0.2193
4.9800 3.2897 0.2244
5.0000 3.3031 0.2171
5.0200 3.3165 0.2175
5.0400 3.3298 0.2256
5.0600 3.3432 0.2155
5.0800 3.3565 0.2208
5.1000 3.3698 0.2215
5.1200 3.3832 0.2138
5.1400 3.3964 0.2162
5.1600 3.4097 0.2201
5.1800 3.4231 0.2134
5.2000 3.4364 0.2132
5.2200 3.4497 0.2194
5.2400 3.4630 0.2130
5.2600 3.4763 0.2128
5.2800 3.4897 0.2177
5.3000 3.5031 0.2071
5.3200 3.5164 0.2061
5.3400 3.5297 0.2156
5.3600 3.5431 0.2038
5.3800 3.5565 0.2066
5.4000 3.5698 0.2128
5.4200 3.5831 0.2009
5.4400 3.5965 0.2098
5.4600 3.6098 0.2111
5.4800 3.6231 0.2014
5.5000 3.6364 0.2110
5.5200 3.6497 0.2093
5.5400 3.6631 0.1953
5.5600 3.6764 0.2104
5.5800 3.6897 0.2136
5.6000 3.7030 0.1954
5.6200 3.7164 0.2070
5.6400 3.7297 0.2081
5.6600 3.7431 0.1930
5.6800 3.7564 0.2086
5.7000 3.7698 0.2023
5.7200 3.7831 0.1939
5.7400 3.7965 0.2055
5.7600 3.8098 0.1966
5.7800 3.8231 0.1968
5.8000 3.8364 0.2024
5.8200 3.8498 0.2003
5.8400 3.8631 0.1939
5.8600 3.8765 0.1989
5.8800 3.8898 0.1989
5.9000 3.9031 0.2003
5.9200 3.9165 0.1925
5.9400 3.9298 0.1950
5.9600 3.9430 0.1974
5.9800 3.9564 0.1914
6.0000 3.9697 0.1963
6.0200 3.9831 0.1941
6.0400 3.9964 0.1904
6.0600 4.0098 0.2013
6.0800 4.0231 0.1901
6.1000 4.0365 0.1923
6.1200 4.0498 0.1988
6.1400 4.0631 0.1878
6.1600 4.0765 0.1903
6.1800 4.0898 0.2012
6.2000 4.1031 0.1871
6.2200 4.1164 0.1890
6.2400 4.1297 0.2005
6.2600 4.1431 0.1816
6.2800 4.1564 0.1897
6.3000 4.1698 0.1977
6.3200 4.1831 0.1749
6.3400 4.1964 0.1940
6.3600 4.2097 0.1936
6.3800 4.2231 0.1741
6.4000 4.2364 0.1897
6.4200 4.2497 0.2000
6.4400 4.2631 0.1713
6.4600 4.2765 0.1834
6.4800 4.2898 0.1937
6.5000 4.3031 0.1752
6.5200 4.3164 0.1873
6.5400 4.3298 0.1880
6.5600 4.3432 0.1692
6.5800 4.3565 0.1856
6.6000 4.3698 0.1858
6.6200 4.3831 0.1692
6.6400 4.3964 0.1826
6.6600 4.4098 0.1844
6.6800 4.4231 0.1679
6.7000 4.4364 0.1803
6.7200 4.4497 0.1854
6.7400 4.4630 0.1690
6.7600 4.4764 0.1821
6.7800 4.4897 0.1839
6.8000 4.5031 0.1694
6.8200 4.5165 0.1772
6.8400 4.5298 0.1802
6.8600 4.5431 0.1689
6.8800 4.5564 0.1783
6.9000 4.5698 0.1849
6.9200 4.5831 0.1672
6.9400 4.5964 0.1752
6.9600 4.6098 0.1828
6.9800 4.6231 0.1637
7.0000 4.6364 0.1763
7.0200 4.6498 0.1843
7.0400 4.6630 0.1623
7.0600 4.6763 0.1731
7.0800 4.6897 0.1838
7.1000 4.7030 0.1615
7.1200 4.7164 0.1732
7.1400 4.7297 0.1793
7.1600 4.7431 0.1593
7.1800 4.7565 0.1747
7.2000 4.7699 0.1777
7.2200 4.7832 0.1582
7.2400 4.7965 0.1821
7.2600 4.8098 0.1741
7.2800 4.8232 0.1541
7.3000 4.8364 0.1784
7.3200 4.8497 0.1728
7.3400 4.8630 0.1619
7.3600 4.8764 0.1750
7.3800 4.8897 0.1681
7.4000 4.9030 0.1610
7.4200 4.9164 0.1797
7.4400 4.9298 0.1668
7.4600 4.9431 0.1604
7.4800 4.9565 0.1778
7.5000 4.9698 0.1636
7.5200 4.9831 0.1636
7.5400 4.9965 0.1732
7.5600 5.0099 0.1638
7.5800 5.0232 0.1652
7.6000 5.0365 0.1705
7.6200 5.0498 0.1692
7.6400 5.0631 0.1638
7.6600 5.0764 0.1682
7.6800 5.0897 0.1711
7.7000 5.1030 0.1640
7.7200 5.1164 0.1616
7.7400 5.1297 0.1720
7.7600 5.1430 0.1616
7.7800 5.1564 0.1599
7.8000 5.1697 0.1704
7.8200 5.1831 0.1606
7.8400 5.1964 0.1617
7.8600 5.2097 0.1716
7.8800 5.2231 0.1581
7.9000 5.2365 0.1618
7.9200 5.2498 0.1688
7.9400 5.2631 0.1573
7.9600 5.2764 0.1611
7.9800 5.2898 0.1677
8.0000 5.3032 0.1540
8.0200 5.3165 0.1603
8.0400 5.3298 0.1680
8.0600 5.3431 0.1550
8.0800 5.3564 0.1600
8.1000 5.3698 0.1660
8.1200 5.3831 0.1521
8.1400 5.3964 0.1579
8.1600 5.4097 0.1642
8.1800 5.4231 0.1532
8.2000 5.4364 0.1580
8.2200 5.4497 0.1548
8.2400 5.4631 0.1559
8.2600 5.4765 0.1516
8.2800 5.4898 0.1581
8.3000 5.5032 0.1559
8.3200 5.5165 0.1527
8.3400 5.5298 0.1570
8.3600 5.5431 0.1545
8.3800 5.5564 0.1531
8.4000 5.5697 0.1576
8.4200 5.5831 0.1579
8.4400 5.5964 0.1484
8.4600 5.6098 0.1562
8.4800 5.6231 0.1580
8.5000 5.6364 0.1464
8.5200 5.6497 0.1595
8.5400 5.6631 0.1513
8.5600 5.6764 0.1469
8.5800 5.6897 0.1583
8.6000 5.7031 0.1483
8.6200 5.7165 0.1482
8.6400 5.7298 0.1511
8.6600 5.7431 0.1487
8.6800 5.7564 0.1473
8.7000 5.7698 0.1506
8.7200 5.7832 0.1489
8.7400 5.7965 0.1418
8.7600 5.8098 0.1486
8.7800 5.8231 0.1520
8.8000 5.8364 0.1480
8.8200 5.8497 0.1467
8.8400 5.8630 0.1423
8.8600 5.8764 0.1493
8.8800 5.8897 0.1425
8.9000 5.9031 0.1476
8.9200 5.9164 0.1466
8.9400 5.9298 0.1420
8.9600 5.9431 0.1457
8.9800 5.9565 0.1443
9.0000 5.9698 0.1366
9.0200 5.9831 0.1464
9.0400 5.9964 0.1455
9.0600 6.0098 0.1338
9.0800 6.0231 0.1456
9.1000 6.0365 0.1427
9.1200 6.0498 0.1297
9.1400 6.0631 0.1476
9.1600 6.0764 0.1372
9.1800 6.0897 0.1262
9.2000 6.1030 0.1472
9.2200 6.1164 0.1411
9.2400 6.1297 0.1226
9.2600 6.1430 0.1470
9.2800 6.1564 0.1333
9.3000 6.1697 0.1187
9.3200 6.1831 0.1505
9.3400 6.1965 0.1254
9.3600 6.2098 0.1161
9.3800 6.2232 0.1485
9.4000 6.2365 0.1212
9.4200 6.2498 0.1209
9.4400 6.2631 0.1433
9.4600 6.2764 0.1163
9.4800 6.2897 0.1217
9.5000 6.3030 0.1411
9.5200 6.3164 0.1130
9.5400 6.3297 0.1164
9.5600 6.3431 0.1440
9.5800 6.3564 0.1072
9.6000 6.3697 0.1210
9.6200 6.3831 0.1390
9.6400 6.3965 0.1035
9.6600 6.4098 0.1228
9.6800 6.4231 0.1362
9.7000 6.4365 0.1056
9.7200 6.4498 0.1192
9.7400 6.4631 0.1325
9.7600 6.4764 0.1060
9.7800 6.4897 0.1164
9.8000 6.5031 0.1312
9.8200 6.5165 0.1014
9.8400 6.5298 0.1199
9.8600 6.5431 0.1296
9.8800 6.5565 0.1063
9.9000 6.5698 0.1159
9.9200 6.5831 0.1235
9.9400 6.5964 0.1089
9.9600 6.6097 0.1145
9.9800 6.6231 0.1222
10.0000 6.6364 0.1089
10.0200 6.6497 0.1125
10.0400 6.6631 0.1227
10.0600 6.6764 0.1095
10.0800 6.6898 0.1112
10.1000 6.7031 0.1246
10.1200 6.7164 0.1092
10.1400 6.7298 0.1130
10.1600 6.7432 0.1234
10.1800 6.7565 0.1076
10.2000 6.7698 0.1124
10.2200 6.7831 0.1264
10.2400 6.7965 0.1150
10.2600 6.8098 0.1112
10.2800 6.8231 0.1246
10.3000 6.8364 0.1122
10.3200 6.8497 0.1139
10.3400 6.8630 0.1254
10.3600 6.8764 0.1139
10.3800 6.8897 0.1135
10.4000 6.9031 0.1216
10.4200 6.9164 0.1129
10.4400 6.9298 0.1158
10.4600 6.9432 0.1254
10.4800 6.9565 0.1107
10.5000 6.9698 0.1165
10.5200 6.9831 0.1205
10.5400 6.9965 0.1134
10.5600 7.0098 0.1170
10.5800 7.0231 0.1191
10.6000 7.0364 0.1124
10.6200 7.0498 0.1137
10.6400 7.0631 0.1141
10.6600 7.0764 0.1138
10.6800 7.0897 0.1148
10.7000 7.1031 0.1126
10.7200 7.1164 0.1138
10.7400 7.1297 0.1088
10.7600 7.1431 0.1140
10.7800 7.1564 0.1165
10.8000 7.1698 0.1076
10.8200 7.1831 0.1102
10.8400 7.1964 0.1172
10.8600 7.2098 0.1002
10.8800 7.2232 0.1109
10.9000 7.2365 0.1171
10.9200 7.2498 0.1000
10.9400 7.2631 0.1113
10.9600 7.2764 0.1152
10.9800 7.2898 0.0968
11.0000 7.3031 0.1108
11.0200 7.3164 0.1125
11.0400 7.3297 0.0927
11.0600 7.3430 0.1066
11.0800 7.3564 0.1087
11.1000 7.3697 0.0873
11.1200 7.3831 0.1102
11.1400 7.3964 0.1067
11.1600 7.4098 0.0859
11.1800 7.4232 0.1032
11.2000 7.4365 0.1015
11.2200 7.4498 0.0895
11.2400 7.4631 0.1041
11.2600 7.4765 0.0933
11.2800 7.4898 0.0849
11.3000 7.5031 0.1025
11.3200 7.5164 0.0947
11.3400 7.5298 0.0837
11.3600 7.5431 0.0984
11.3800 7.5564 0.0917
11.4000 7.5697 0.0869
11.4200 7.5831 0.0930
11.4400 7.5964 0.0912
11.4600 7.6097 0.0860
11.4800 7.6231 0.0916
11.5000 7.6364 0.0875
11.5200 7.6498 0.0823
11.5400 7.6631 0.0926
11.5600 7.6764 0.0909
11.5800 7.6898 0.0806
11.6000 7.7031 0.0885
11.6200 7.7165 0.0898
11.6400 7.7298 0.0799
11.6600 7.7431 0.0856
11.6800 7.7564 0.0935
11.7000 7.7697 0.0782
11.7200 7.7831 0.0868
11.7400 7.7964 0.0921
11.7600 7.8097 0.0768
11.7800 7.8231 0.0910
11.8000 7.8364 0.0881
11.8200 7.8497 0.0749
11.8400 7.8631 0.0893
11.8600 7.8764 0.0919
11.8800 7.8898 0.0697
11.9000 7.9031 0.0896
11.9200 7.9164 0.0880
11.9400 7.9297 0.0724
11.9600 7.9431 0.0885
11.9800 7.9565 0.0825
12.0000 7.9698 0.0705
12.0200 7.9831 0.0892
12.0400 7.9965 0.0854
12.0600 8.0098 0.0721
12.0800 8.0231 0.0900
12.1000 8.0364 0.0835
12.1200 8.0497 0.0738
12.1400 8.0630 0.0866
12.1600 8.0763 0.0854
12.1800 8.0896 0.0775
12.2000 8.1030 0.0810
12.2200 8.1164 0.0845
12.2400 8.1298 0.0742
12.2600 8.1432 0.0822
12.2800 8.1565 0.0807
12.3000 8.1698 0.0797
12.3200 8.1832 0.0834
12.3400 8.1965 0.0742
12.3600 8.2098 0.0828
12.3800 8.2231 0.0814
12.4000 8.2364 0.0804
12.4200 8.2497 0.0822
12.4400 8.2631 0.0790
12.4600 8.2764 0.0826
12.4800 8.2897 0.0819
12.5000 8.3030 0.0788
12.5200 8.3164 0.0837
12.5400 8.3297 0.0815
12.5600 8.3431 0.0756
12.5800 8.3564 0.0855
12.6000 8.3698 0.0776
12.6200 8.3832 0.0726
12.6400 8.3965 0.0850
12.6600 8.4098 0.0754
12.6800 8.4232 0.0768
12.7000 8.4365 0.0826
12.7200 8.4498 0.0766
12.7400 8.4631 0.0801
12.7600 8.4764 0.0817
12.7800 8.4897 0.0736
12.8000 8.5030 0.0776
12.8200 8.5163 0.0785
12.8400 8.5297 0.0727
12.8600 8.5430 0.0787
12.8800 8.5564 0.0759
12.9000 8.5698 0.0652
12.9200 8.5831 0.0798
12.9400 8.5964 0.0804
12.9600 8.6098 0.0649
12.9800 8.6232 0.0759
13.0000 8.6365 0.0750
13.0200 8.6498 0.0685
13.0400 8.6631 0.0764
13.0600 8.6765 0.0709
13.0800 8.6898 0.0668
13.1000 8.7031 0.0712
13.1200 8.7164 0.0685
13.1400 8.7298 0.0683
13.1600 8.7431 0.0722
13.1800 8.7564 0.0644
13.2000 8.7697 0.0716
13.2200 8.7830 0.0728
13.2400 8.7964 0.0638
13.2600 8.8098 0.0667
13.2800 8.8231 0.0680
13.3000 8.8365 0.0634
13.3200 8.8498 0.0598
13.3400 8.8632 0.0678
13.3600 8.8765 0.0626
13.3800 8.8898 0.0583
13.4000 8.9031 0.0666
13.4200 8.9165 0.0603
13.4400 8.9298 0.0592
13.4600 8.9431 0.0638
13.4800 8.9564 0.0568
13.5000 8.9697 0.0579
13.5200 8.9831 0.0599
13.5400 8.9964 0.0585
13.5600 9.0097 0.0580
13.5800 9.0231 0.0577
13.6000 9.0364 0.0541
13.6200 9.0497 0.0558
13.6400 9.0630 0.0568
13.6600 9.0764 0.0544
13.6800 9.0898 0.0583
13.7000 9.1031 0.0549
13.7200 9.1165 0.0500
13.7400 9.1298 0.0585
13.7600 9.1431 0.0555
13.7800 9.1565 0.0455
13.8000 9.1698 0.0555
13.8200 9.1831 0.0570
13.8400 9.1964 0.0436
13.8600 9.2097 0.0512
13.8800 9.2231 0.0554
13.9000 9.2364 0.0406
13.9200 9.2497 0.0516
13.9400 9.2630 0.0542
13.9600 9.2764 0.0387
13.9800 9.2897 0.0469
14.0000 9.3031 0.0502
14.0200 9.3164 0.0350
14.0400 9.3298 0.0537
14.0600 9.3431 0.0503
14.0800 9.3564 0.0282
14.1000 9.3698 0.0525
14.1200 9.3831 0.0473
14.1400 9.3965 0.0329
14.1600 9.4098 0.0545
14.1800 9.4231 0.0424
14.2000 9.4364 0.0349
14.2200 9.4498 0.0493
14.2400 9.4631 0.0448
14.2600 9.4764 0.0338
14.2800 9.4897 0.0523
14.3000 9.5030 0.0421
14.3200 9.5164 0.0321
14.3400 9.5297 0.0504
14.3600 9.5430 0.0409
14.3800 9.5564 0.0370
14.4000 9.5698 0.0480
14.4200 9.5832 0.0366
14.4400 9.5965 0.0323
14.4600 9.6098 0.0434
14.4800 9.6232 0.0403
14.5000 9.6365 0.0291
14.5200 9.6498 0.0409
14.5400 9.6631 0.0360
14.5600 9.6763 0.0316
14.5800 9.6897 0.0399
14.6000 9.7030 0.0355
14.6200 9.7164 0.0312
14.6400 9.7297 0.0378
14.6600 9.7431 0.0328
14.6800 9.7564 0.0288
14.7000 9.7698 0.0338
14.7200 9.7831 0.0360
14.7400 9.7965 0.0260
14.7600 9.8098 0.0373
14.7800 9.8232 0.0355
14.8000 9.8365 0.0202
14.8200 9.8498 0.0384
14.8400 9.8631 0.0317
14.8600 9.8765 0.0214
14.8800 9.8898 0.0335
14.9000 9.9031 0.0363
14.9200 9.9164 0.0164
14.9400 9.9297 0.0315
14.9600 9.9431 0.0383
14.9800 9.9564 0.0132
15.0000 9.9697 0.0355
15.0200 9.9830 0.0329
15.0400 9.9964 0.0162
15.0600 10.0097 0.0391
15.0800 10.0231 0.0272
15.1000 10.0364 0.0173
15.1200 10.0498 0.0350
15.1400 10.0632 0.0288
15.1600 10.0765 0.0125
15.1800 10.0898 0.0363
15.2000 10.1031 0.0311
15.2200 10.1165 0.0149
15.2400 10.1298 0.0350
15.2600 10.1431 0.0225
15.2800 10.1564 0.0198
15.3000 10.1698 0.0369
15.3200 10.1831 0.0235
15.3400 10.1964 0.0190
15.3600 10.2097 0.0301
15.3800 10.2230 0.0261
15.4000 10.2364 0.0160
15.4200 10.2497 0.0339
15.4400 10.2631 0.0239
15.4600 10.2764 0.0141
15.4800 10.2898 0.0295
15.5000 10.3031 0.0224
15.5200 10.3165 0.0174
15.5400 10.3298 0.0256
15.5600 10.3431 0.0215
15.5800 10.3565 0.0121
15.6000 10.3698 0.0245
15.6200 10.3831 0.0234
15.6400 10.3964 0.0120
15.6600 10.4097 0.0279
15.6800 10.4231 0.0228
15.7000 10.4364 0.0118
15.7200 10.4497 0.0261
15.7400 10.4630 0.0236
15.7600 10.4764 0.0152
15.7800 10.4897 0.0189
15.8000 10.5031 0.0243
15.8200 10.5164 0.0137
15.8400 10.5297 0.0253
15.8600 10.5431 0.0219
15.8800 10.5564 0.0089
15.9000 10.5698 0.0288
15.9200 10.5831 0.0204
15.9400 10.5965 0.0127
15.9600 10.6098 0.0270
15.9800 10.6231 0.0215
16.0000 10.6364 0.0122
16.0200 10.6498 0.0254
16.0400 10.6631 0.0244
16.0600 10.6764 0.0107
16.0800 10.6897 0.0273
16.1000 10.7030 0.0248
16.1200 10.7164 0.0098
16.1400 10.7297 0.0258
16.1600 10.7431 0.0224
16.1800 10.7564 0.0127
16.2000 10.7698 0.0236
16.2200 10.7832 0.0235
16.2400 10.7965 0.0038
16.2600 10.8098 0.0226
16.2800 10.8231 0.0251
16.3000 10.8365 0.0033
16.3200 10.8498 0.0264
16.3400 10.8631 0.0220
16.3600 10.8764 0.0016
16.3800 10.8898 0.0255
16.4000 10.9031 0.0191
16.4200 10.9164 0.0013
16.4400 10.9297 0.0264
16.4600 10.9430 0.0147
16.4800 10.9564 -0.0026
16.5000 10.9697 0.0289
16.5200 10.9830 0.0083
16.5400 10.9964 0.0028
16.5600 11.0098 0.0259
16.5800 11.0231 0.0067
16.6000 11.0365 0.0026
16.6200 11.0498 0.0241
16.6400 11.0631 0.0098
16.6600 11.0765 0.0022
16.6800 11.0898 0.0235
16.7000 11.1031 -0.0002
16.7200 11.1164 0.0036
16.7400 11.1297 0.0241
16.7600 11.1430 -0.0011
16.7800 11.1564 0.0060
16.8000 11.1697 0.0185
16.8200 11.1831 -0.0020
16.8400 11.1964 0.0085
16.8600 11.2098 0.0160
16.8800 11.2231 -0.0033
16.9000 11.2364 0.0039
16.9200 11.2498 0.0188
16.9400 11.2631 -0.0016
16.9600 11.2764 0.0037
16.9800 11.2897 0.0138
17.0000 11.3031 0.0012
17.0200 11.3164 0.0010
17.0400 11.3298 0.0080
17.0600 11.3431 0.0005
17.0800 11.3565 -0.0024
17.1000 11.3698 0.0062
17.1200 11.3831 -0.0011
17.1400 11.3965 -0.0009
17.1600 11.4098 0.0054
17.1800 11.4231 -0.0041
17.2000 11.4364 -0.0008
17.2200 11.4497 0.0050
17.2400 11.4631 -0.0033
17.2600 11.4764 -0.0029
17.2800 11.4897 0.0073
17.3000 11.5031 -0.0071
17.3200 11.5164 -0.0031
17.3400 11.5298 0.0028
17.3600 11.5431 -0.0075
17.3800 11.5564 -0.0037
17.4000 11.5698 0.0013
17.4200 11.5831 -0.0101
17.4400 11.5964 -0.0027
17.4600 11.6098 -0.0008
17.4800 11.6231 -0.0126
17.5000 11.6365 -0.0057
17.5200 11.6497 -0.0057
17.5400 11.6630 -0.0116
17.5600 11.6764 -0.0049
17.5800 11.6897 -0.0091
17.6000 11.7031 -0.0128
17.6200 11.7164 -0.0084
17.6400 11.7297 -0.0111
17.6600 11.7431 -0.0110
17.6800 11.7565 -0.0090
17.7000 11.7698 -0.0118
17.7200 11.7831 -0.0108
17.7400 11.7965 -0.0072
17.7600 11.8098 -0.0152
17.7800 11.8231 -0.0092
17.8000 11.8364 -0.0095
17.8200 11.8497 -0.0122
17.8400 11.8631 -0.0100
17.8600 11.8764 -0.0117
17.8800 11.8897 -0.0168
17.9000 11.9030 -0.0093
17.9200 11.9164 -0.0111
17.9400 11.9298 -0.0145
17.9600 11.9431 -0.0134
17.9800 11.9564 -0.0108
18.0000 11.9698 -0.0142
18.0200 11.9831 -0.0101
18.0400 11.9965 -0.0137
18.0600 12.0098 -0.0143
18.0800 12.0231 -0.0158
18.1000 12.0364 -0.0129
18.1200 12.0498 -0.0123
18.1400 12.0631 -0.0136
18.1600 12.0764 -0.0133
18.1800 12.0898 -0.0152
18.2000 12.1031 -0.0150
18.2200 12.1164 -0.0096
18.2400 12.1297 -0.0191
18.2600 12.1430 -0.0120
18.2800 12.1564 -0.0108
18.3000 12.1697 -0.0154
18.3200 12.1831 -0.0141
18.3400 12.1964 -0.0133
18.3600 12.2098 -0.0128
18.3800 12.2231 -0.0155
18.4000 12.2365 -0.0150
18.4200 12.2498 -0.0191
18.4400 12.2631 -0.0155
18.4600 12.2764 -0.0089
18.4800 12.2898 -0.0175
18.5000 12.3031 -0.0167
18.5200 12.3164 -0.0075
18.5400 12.3297 -0.0209
18.5600 12.3431 -0.0148
18.5800 12.3564 -0.0079
18.6000 12.3698 -0.0168
18.6200 12.3831 -0.0199
18.6400 12.3964 -0.0111
18.6600 12.4097 -0.0225
18.6800 12.4231 -0.0184
18.7000 12.4364 -0.0118
18.7200 12.4497 -0.0224
18.7400 12.4631 -0.0156
18.7600 12.4765 -0.0139
18.7800 12.4898 -0.0288
18.8000 12.5031 -0.0172
18.8200 12.5165 -0.0115
18.8400 12.5298 -0.0328
18.8600 12.5431 -0.0237
18.8800 12.5564 -0.0119
18.9000 12.5697 -0.0320
18.9200 12.5831 -0.0218
18.9400 12.5964 -0.0163
18.9600 12.6097 -0.0336
18.9800 12.6230 -0.0218
19.0000 12.6364 -0.0169
19.0200 12.6497 -0.0361
19.0400 12.6631 -0.0254
19.0600 12.6764 -0.0205
19.0800 12.6897 -0.0391
19.1000 12.7031 -0.0234
19.1200 12.7164 -0.0253
19.1400 12.7298 -0.0416
19.1600 12.7431 -0.0259
19.1800 12.7564 -0.0298
19.2000 12.7698 -0.0428
19.2200 12.7831 -0.0299
19.2400 12.7965 -0.0317
19.2600 12.8098 -0.0431
19.2800 12.8231 -0.0325
19.3000 12.8365 -0.0333
19.3200 12.8498 -0.0466
19.3400 12.8631 -0.0321
19.3600 12.8763 -0.0324
19.3800 12.8897 -0.0439
19.4000 12.9030 -0.0345
19.4200 12.9163 -0.0387
19.4400 12.9297 -0.0394
19.4600 12.9431 -0.0367
19.4800 12.9565 -0.0392
19.5000 12.9698 -0.0442
19.5200 12.9832 -0.0406
19.5400 12.9965 -0.0372
19.5600 13.0099 -0.0466
19.5800 13.0232 -0.0376
19.6000 13.0365 -0.0412
19.6200 13.0497 -0.0416
19.6400 13.0631 -0.0389
19.6600 13.0764 -0.0456
19.6800 13.0897 -0.0418
19.7000 13.1030 -0.0418
19.7200 13.1163 -0.0436
19.7400 13.1297 -0.0457
19.7600 13.1431 -0.0407
19.7800 13.1564 -0.0384
19.8000 13.1697 -0.0451
19.8200 13.1831 -0.0379
19.8400 13.1965 -0.0400
19.8600 13.2098 -0.0454
19.8800 13.2231 -0.0350
19.9000 13.2365 -0.0381
19.9200 13.2498 -0.0434
19.9400 13.2632 -0.0421
19.9600 13.2765 -0.0351
19.9800 13.2897 -0.0447
20.0000 13.3031 -0.0370
20.0200 13.3164 -0.0377
20.0400 13.3297 -0.0436
20.0600 13.3431 -0.0328
20.0800 13.3564 -0.0394
20.1000 13.3697 -0.0420
20.1200 13.3831 -0.0336
20.1400 13.3964 -0.0441
20.1600 13.4098 -0.0383
20.1800 13.4231 -0.0371
20.2000 13.4365 -0.0444
20.2200 13.4498 -0.0433
20.2400 13.4631 -0.0364
20.2600 13.4764 -0.0478
20.2800 13.4898 -0.0396
20.3000 13.5031 -0.0422
20.3200 13.5165 -0.0450
20.3400 13.5298 -0.0376
20.3600 13.5431 -0.0457
20.3800 13.5565 -0.0436
20.4000 13.5698 -0.0410
20.4200 13.5830 -0.0467
20.4400 13.5963 -0.0409
20.4600 13.6097 -0.0446
20.4800 13.6231 -0.0486
20.5000 13.6364 -0.0372
20.5200 13.6497 -0.0506
20.5400 13.6631 -0.0540
20.5600 13.6765 -0.0395
20.5800 13.6898 -0.0491
20.6000 13.7032 -0.0519
20.6200 13.7165 -0.0421
20.6400 13.7298 -0.0553
20.6600 13.7431 -0.0520
20.6800 13.7564 -0.0448
20.7000 13.7697 -0.0579
20.7200 13.7831 -0.0481
20.7400 13.7964 -0.0420
20.7600 13.8098 -0.0626
20.7800 13.8231 -0.0497
20.8000 13.8364 -0.0422
20.8200 13.8497 -0.0588
20.8400 13.8631 -0.0518
20.8600 13.8764 -0.0447
20.8800 13.8897 -0.0597
20.9000 13.9031 -0.0487
20.9200 13.9165 -0.0443
20.9400 13.9298 -0.0633
20.9600 13.9432 -0.0511
20.9800 13.9565 -0.0472
21.0000 13.9698 -0.0625
21.0200 13.9832 -0.0481
21.0400 13.9965 -0.0533
21.0600 14.0098 -0.0589
21.0800 14.0231 -0.0460
21.1000 14.0364 -0.0543
21.1200 14.0498 -0.0603
21.1400 14.0631 -0.0488
21.1600 14.0764 -0.0605
21.1800 14.0897 -0.0553
21.2000 14.1030 -0.0471
21.2200 14.1164 -0.0666
21.2400 14.1297 -0.0532
21.2600 14.1431 -0.0511
21.2800 14.1565 -0.0647
21.3000 14.1698 -0.0513
21.3200 14.1831 -0.0527
21.3400 14.1965 -0.0699
21.3600 14.2098 -0.0527
21.3800 14.2231 -0.0566
21.4000 14.2365 -0.0669
21.4200 14.2498 -0.0481
21.4400 14.2631 -0.0600
21.4600 14.2764 -0.0670
21.4800 14.2898 -0.0496
21.5000 14.3031 -0.0610
21.5200 14.3163 -0.0672
21.5400 14.3297 -0.0515
21.5600 14.3430 -0.0632
21.5800 14.3564 -0.0644
21.6000 14.3697 -0.0531
21.6200 14.3831 -0.0604
21.6400 14.3965 -0.0634
21.6600 14.4099 -0.0590
21.6800 14.4232 -0.0658
21.7000 14.4365 -0.0628
21.7200 14.4498 -0.0532
21.7400 14.4632 -0.0639
21.7600 14.4764 -0.0641
21.7800 14.4897 -0.0545
21.8000 14.5030 -0.0598
21.8200 14.5164 -0.0641
21.8400 14.5297 -0.0532
21.8600 14.5430 -0.0618
21.8800 14.5564 -0.0658
21.9000 14.5697 -0.0577
21.9200 14.5831 -0.0631
21.9400 14.5964 -0.0673
21.9600 14.6098 -0.0562
21.9800 14.6231 -0.0649
22.0000 14.6365 -0.0734
22.0200 14.6498 -0.0567
22.0400 14.6631 -0.0702
22.0600 14.6764 -0.0715
22.0800 14.6898 -0.0590
22.1000 14.7031 -0.0684
22.1200 14.7164 -0.0750
22.1400 14.7298 -0.0582
22.1600 14.7431 -0.0703
22.1800 14.7564 -0.0763
22.2000 14.7698 -0.0633
22.2200 14.7831 -0.0708
22.2400 14.7964 -0.0727
22.2600 14.8097 -0.0632
22.2800 14.8231 -0.0728
22.3000 14.8364 -0.0801
22.3200 14.8498 -0.0634
22.3400 14.8631 -0.0725
22.3600 14.8765 -0.0807
22.3800 14.8898 -0.0648
22.4000 14.9031 -0.0773
22.4200 14.9165 -0.0807
22.4400 14.9298 -0.0690
22.4600 14.9432 -0.0764
22.4800 14.9565 -0.0832
22.5000 14.9698 -0.0739
22.5200 14.9831 -0.0735
22.5400 14.9964 -0.0807
22.5600 15.0098 -0.0716
22.5800 15.0231 -0.0745
22.6000 15.0364 -0.0877
22.6200 15.0497 -0.0701
22.6400 15.0631 -0.0749
22.6600 15.0764 -0.0894
22.6800 15.0897 -0.0730
22.7000 15.1031 -0.0732
22.7200 15.1164 -0.0859
22.7400 15.1298 -0.0770
22.7600 15.1432 -0.0750
22.7800 15.1565 -0.0872
22.8000 15.1698 -0.0776
22.8200 15.1831 -0.0725
22.8400 15.1964 -0.0852
22.8600 15.2097 -0.0746
22.8800 15.2231 -0.0743
22.9000 15.2364 -0.0863
22.9200 15.2498 -0.0742
22.9400 15.2631 -0.0721
22.9600 15.2764 -0.0829
22.9800 15.2897 -0.0744
23.0000 15.3031 -0.0728
23.0200 15.3164 -0.0882
23.0400 15.3297 -0.0716
23.0600 15.3431 -0.0754
23.0800 15.3564 -0.0903
23.1000 15.3698 -0.0748
23.1200 15.3831 -0.0746
23.1400 15.3964 -0.0890
23.1600 15.4098 -0.0778
23.1800 15.4232 -0.0837
23.2000 15.4365 -0.0948
23.2200 15.4498 -0.0734
23.2400 15.4631 -0.0815
23.2600 15.4764 -0.0966
23.2800 15.4897 -0.0747
23.3000 15.5030 -0.0871
23.3200 15.5163 -0.0918
23.3400 15.5297 -0.0843
23.3600 15.5431 -0.0885
23.3800 15.5564 -0.0937
23.4000 15.5697 -0.0889
23.4200 15.5831 -0.0896
23.4400 15.5965 -0.0956
23.4600 15.6098 -0.0873
23.4800 15.6232 -0.0914
23.5000 15.6365 -0.0953
23.5200 15.6498 -0.0845
23.5400 15.6632 -0.0910
23.5600 15.6765 -0.0986
23.5800 15.6898 -0.0925
23.6000 15.7031 -0.0946
23.6200 15.7164 -0.0998
23.6400 15.7298 -0.0957
23.6600 15.7431 -0.0945
23.6800 15.7564 -0.0999
23.7000 15.7697 -0.0913
23.7200 15.7830 -0.0958
23.7400 15.7964 -0.1031
23.7600 15.8097 -0.0917
23.7800 15.8231 -0.0967
23.8000 15.8364 -0.1035
23.8200 15.8498 -0.0965
23.8400 15.8632 -0.0988
23.8600 15.8765 -0.1016
23.8800 15.8898 -0.0952
23.9000 15.9031 -0.0999
23.9200 15.9165 -0.1013
23.9400 15.9298 -0.0954
23.9600 15.9431 -0.0978
23.9800 15.9564 -0.0980
24.0000 15.9697 -0.1002
24.0200 15.9831 -0.0978
24.0400 15.9964 -0.1021
24.0600 16.0097 -0.1021
24.0800 16.0231 -0.0987
24.1000 16.0364 -0.1027
24.1200 16.0498 -0.1038
24.1400 16.0631 -0.0978
24.1600 16.0764 -0.1032
24.1800 16.0898 -0.1026
24.2000 16.1031 -0.0990
24.2200 16.1164 -0.1063
24.2400 16.1297 -0.1036
24.2600 16.1431 -0.0985
24.2800 16.1565 -0.1080
24.3000 16.1698 -0.1040
24.3200 16.1831 -0.0980
24.3400 16.1965 -0.1061
24.3600 16.2098 -0.1004
24.3800 16.2231 -0.1044
24.4000 16.2364 -0.1068
24.4200 16.2497 -0.1023
24.4400 16.2631 -0.1047
24.4600 16.2764 -0.1030
24.4800 16.2897 -0.1048
24.5000 16.3031 -0.1032
24.5200 16.3164 -0.1068
24.5400 16.3298 -0.1083
24.5600 16.3431 -0.1048
24.5800 16.3565 -0.1053
24.6000 16.3698 -0.1075
24.6200 16.3831 -0.1105
24.6400 16.3965 -0.1055
24.6600 16.4098 -0.1125
24.6800 16.4231 -0.1051
24.7000 16.4365 -0.1050
24.7200 16.4498 -0.1126
24.7400 16.4631 -0.1093
24.7600 16.4764 -0.1070
24.7800 16.4897 -0.1145
24.8000 16.5030 -0.1071
24.8200 16.5164 -0.1076
24.8400 16.5297 -0.1161
24.8600 16.5431 -0.1080
24.8800 16.5564 -0.1076
24.9000 16.5698 -0.1161
24.9200 16.5832 -0.1077
24.9400 16.5965 -0.1092
24.9600 16.6098 -0.1123
24.9800 16.6232 -0.1016
25.0000 16.6365 -0.1087
25.0200 16.6498 -0.1161
25.0400 16.6631 -0.1054
25.0600 16.6764 -0.1113
25.0800 16.6897 -0.1122
25.1000 16.7031 -0.1046
25.1200 16.7164 -0.1103
25.1400 16.7297 -0.1153
25.1600 16.7430 -0.1103
25.1800 16.7564 -0.1135
25.2000 16.7697 -0.1125
25.2200 16.7831 -0.1101
25.2400 16.7964 -0.1183
25.2600 16.8098 -0.1137
25.2800 16.8231 -0.1127
25.3000 16.8365 -0.1202
25.3200 16.8498 -0.1116
25.3400 16.8632 -0.1168
25.3600 16.8765 -0.1245
25.3800 16.8898 -0.1093
25.4000 16.9031 -0.1161
25.4200 16.9164 -0.1217
25.4400 16.9298 -0.1116
25.4600 16.9431 -0.1177
25.4800 16.9564 -0.1222
25.5000 16.9697 -0.1133
25.5200 16.9830 -0.1172
25.5400 16.9963 -0.1191
25.5600 17.0097 -0.1224
25.5800 17.0230 -0.1200
25.6000 17.0364 -0.1236
25.6200 17.0498 -0.1255
25.6400 17.0632 -0.1252
25.6600 17.0765 -0.1233
25.6800 17.0898 -0.1238
25.7000 17.1031 -0.1225
25.7200 17.1165 -0.1251
25.7400 17.1298 -0.1222
25.7600 17.1431 -0.1229
25.7800 17.1564 -0.1261
25.8000 17.1698 -0.1242
25.8200 17.1831 -0.1283
25.8400 17.1964 -0.1237
25.8600 17.2097 -0.1253
25.8800 17.2231 -0.1320
25.9000 17.2364 -0.1240
25.9200 17.2497 -0.1300
25.9400 17.2631 -0.1347
25.9600 17.2764 -0.1220
25.9800 17.2898 -0.1335
26.0000 17.3032 -0.1353
26.0200 17.3165 -0.1263
26.0400 17.3298 -0.1306
26.0600 17.3432 -0.1341
26.0800 17.3565 -0.1283
26.1000 17.3698 -0.1338
26.1200 17.3831 -0.1318
26.1400 17.3964 -0.1261
26.1600 17.4097 -0.1381
26.1800 17.4231 -0.1369
26.2000 17.4364 -0.1255
26.2200 17.4497 -0.1359
26.2400 17.4631 -0.1361
26.2600 17.4764 -0.1254
26.2800 17.4898 -0.1361
26.3000 17.5031 -0.1349
26.3200 17.5164 -0.1257
26.3400 17.5298 -0.1380
26.3600 17.5431 -0.1306
26.3800 17.5564 -0.1284
26.4000 17.5698 -0.1356
26.4200 17.5831 -0.1338
26.4400 17.5965 -0.1273
26.4600 17.6098 -0.1322
26.4800 17.6231 -0.1332
26.5000 17.6365 -0.1241
26.5200 17.6498 -0.1356
26.5400 17.6631 -0.1338
26.5600 17.6764 -0.1281
26.5800 17.6897 -0.1326
26.6000 17.7030 -0.1363
26.6200 17.7163 -0.1314
26.6400 17.7297 -0.1345
26.6600 17.7430 -0.1369
26.6800 17.7564 -0.1293
26.7000 17.7698 -0.1379
26.7200 17.7832 -0.1421
26.7400 17.7965 -0.1283
26.7600 17.8098 -0.1392
26.7800 17.8232 -0.1408
26.8000 17.8365 -0.1302
26.8200 17.8498 -0.1382
26.8400 17.8631 -0.1421
26.8600 17.8764 -0.1322
26.8800 17.8897 -0.1449
26.9000 17.9031 -0.1418
26.9200 17.9164 -0.1349
26.9400 17.9297 -0.1426
26.9600 17.9430 -0.1437
26.9800 17.9564 -0.1415
27.0000 17.9697 -0.1493
27.0200 17.9830 -0.1454
27.0400 17.9964 -0.1404
27.0600 18.0098 -0.1504
27.0800 18.0232 -0.1466
27.1000 18.0365 -0.1448
27.1200 18.0498 -0.1564
27.1400 18.0631 -0.1403
27.1600 18.0765 -0.1480
27.1800 18.0898 -0.1551
27.2000 18.1031 -0.1386
27.2200 18.1164 -0.1542
27.2400 18.1298 -0.1516
27.2600 18.1431 -0.1421
27.2800 18.1564 -0.1539
27.3000 18.1697 -0.1477
27.3200 18.1830 -0.1438
27.3400 18.1964 -0.1572
27.3600 18.2098 -0.1488
27.3800 18.2231 -0.1429
27.4000 18.2364 -0.1562
27.4200 18.2498 -0.1463
27.4400 18.2631 -0.1466
27.4600 18.2765 -0.1579
27.4800 18.2898 -0.1423
27.5000 18.3031 -0.1487
27.5200 18.3165 -0.1608
27.5400 18.3298 -0.1415
27.5600 18.3431 -0.1543
27.5800 18.3565 -0.1657
27.6000 18.3698 -0.1415
27.6200 18.3831 -0.1542
27.6400 18.3964 -0.1619
27.6600 18.4097 -0.1459
27.6800 18.4230 -0.1610
27.7000 18.4364 -0.1582
27.7200 18.4498 -0.1506
27.7400 18.4631 -0.1657
27.7600 18.4764 -0.1559
27.7800 18.4898 -0.1511
27.8000 18.5032 -0.1676
27.8200 18.5165 -0.1643
27.8400 18.5298 -0.1522
27.8600 18.5431 -0.1740
27.8800 18.5565 -0.1593
27.9000 18.5698 -0.1552
27.9200 18.5831 -0.1769
27.9400 18.5964 -0.1612
27.9600 18.6097 -0.1585
27.9800 18.6231 -0.1728
28.0000 18.6364 -0.1697
28.0200 18.6497 -0.1632
28.0400 18.6631 -0.1827
28.0600 18.6764 -0.1720
28.0800 18.6897 -0.1643
28.1000 18.7030 -0.1800
28.1200 18.7164 -0.1722
28.1400 18.7297 -0.1681
28.1600 18.7431 -0.1834
28.1800 18.7565 -0.1737
28.2000 18.7698 -0.1657
28.2200 18.7831 -0.1826
28.2400 18.7965 -0.1706
28.2600 18.8099 -0.1676
28.2800 18.8231 -0.1786
28.3000 18.8364 -0.1686
28.3200 18.8498 -0.1649
28.3400 18.8631 -0.1723
28.3600 18.8764 -0.1713
28.3800 18.8897 -0.1616
28.4000 18.9030 -0.1706
28.4200 18.9164 -0.1707
28.4400 18.9297 -0.1616
28.4600 18.9431 -0.1698
28.4800 18.9564 -0.1706
28.5000 18.9698 -0.1616
28.5200 18.9831 -0.1733
28.5400 18.9965 -0.1718
28.5600 19.0098 -0.1538
28.5800 19.0231 -0.1743
28.6000 19.0365 -0.1719
28.6200 19.0498 -0.1581
28.6400 19.0631 -0.1788
28.6600 19.0764 -0.1662
28.6800 19.0898 -0.1613
28.7000 19.1031 -0.1893
28.7200 19.1164 -0.1741
28.7400 19.1297 -0.1657
28.7600 19.1430 -0.1875
28.7800 19.1563 -0.1740
28.8000 19.1697 -0.1683
28.8200 19.1830 -0.1953
28.8400 19.1964 -0.1707
28.8600 19.2098 -0.1728
28.8800 19.2232 -0.1933
28.9000 19.2365 -0.1761
28.9200 19.2499 -0.1794
28.9400 19.2632 -0.1932
28.9600 19.2765 -0.1758
28.9800 19.2898 -0.1858
29.0000 19.3031 -0.1959
29.0200 19.3164 -0.1755
29.0400 19.3297 -0.1881
29.0600 19.3430 -0.1982
29.0800 19.3564 -0.1769
29.1000 19.3697 -0.1907
29.1200 19.3831 -0.1965
29.1400 19.3964 -0.1822
29.1600 19.4098 -0.1874
29.1800 19.4231 -0.1990
29.2000 19.4365 -0.1846
29.2200 19.4498 -0.1886
29.2400 19.4632 -0.2021
29.2600 19.4765 -0.1879
29.2800 19.4898 -0.1929
29.3000 19.5031 -0.1996
29.3200 19.5164 -0.1955
29.3400 19.5298 -0.1980
29.3600 19.5431 -0.2019
29.3800 19.5564 -0.1914
29.4000 19.5697 -0.1952
29.4200 19.5831 -0.2087
29.4400 19.5964 -0.1955
29.4600 19.6097 -0.1959
29.4800 19.6230 -0.2075
29.5000 19.6364 -0.1937
29.5200 19.6498 -0.2055
29.5400 19.6631 -0.2098
29.5600 19.6764 -0.1990
29.5800 19.6898 -0.2073
29.6000 19.7031 -0.2079
29.6200 19.7165 -0.2008
29.6400 19.7298 -0.2102
29.6600 19.7431 -0.2089
29.6800 19.7564 -0.2043
29.7000 19.7698 -0.2090
29.7200 19.7831 -0.2108
29.7400 19.7964 -0.2036
29.7600 19.8098 -0.2146
29.7800 19.8231 -0.2077
29.8000 19.8364 -0.2155
29.8200 19.8497 -0.2164
29.8400 19.8630 -0.2070
29.8600 19.8764 -0.2122
29.8800 19.8897 -0.2212
29.9000 19.9031 -0.2106
29.9200 19.9164 -0.2172
29.9400 19.9298 -0.2207
29.9600 19.9431 -0.2154
29.9800 19.9565 -0.2212
30.0000 19.9698 -0.2215
30.0200 19.9831 -0.2117
30.0400 19.9965 -0.2227
30.0600 20.0098 -0.2227
30.0800 20.0231 -0.2137
30.1000 20.0364 -0.2181
30.1200 20.0497 -0.2238
30.1400 20.0631 -0.2254
30.1600 20.0764 -0.2187
30.1800 20.0898 -0.2283
30.2000 20.1031 -0.2175
30.2200 20.1164 -0.2198
30.2400 20.1297 -0.2284
30.2600 20.1431 -0.2167
30.2800 20.1564 -0.2247
30.3000 20.1697 -0.2267
30.3200 20.1831 -0.2195
30.3400 20.1965 -0.2228
30.3600 20.2098 -0.2252
30.3800 20.2231 -0.2182
30.4000 20.2365 -0.2231
30.4200 20.2498 -0.2277
30.4400 20.2631 -0.2179
30.4600 20.2764 -0.2263
30.4800 20.2897 -0.2206
30.5000 20.3031 -0.2169
30.5200 20.3164 -0.2279
30.5400 20.3297 -0.2203
30.5600 20.3430 -0.2219
30.5800 20.3564 -0.2295
30.6000 20.3697 -0.2182
30.6200 20.3831 -0.1660
30.6400 20.3964 -0.0972
30.6600 20.4098 -0.0384
30.6800 20.4232 0.0058
30.7000 20.4365 0.0161
30.7200 20.4498 0.0609
30.7400 20.4631 0.1200
30.7600 20.4765 0.1639
30.7800 20.4898 0.2223
30.8000 20.5031 0.2811
30.8200 20.5164 0.3375
30.8400 20.5297 0.3856
30.8600 20.5431 0.4361
30.8800 20.5564 0.4815
30.9000 20.5697 0.5195
30.9200 20.5830 0.5617
30.9400 20.5964 0.5601
30.9600 20.6097 0.5332
30.9800 20.6230 0.5238
31.0000 20.6364 0.5097
31.0200 20.6497 0.5081
31.0400 20.6631 0.5150
31.0600 20.6765 0.5079
31.0800 20.6898 0.5074
31.1000 20.7031 0.5102
31.1200 20.7165 0.5022
31.1400 20.7298 0.5000
31.1600 20.7431 0.5087
31.1800 20.7564 0.5066
31.2000 20.7697 0.5144
31.2200 20.7831 0.5248
31.2400 20.7964 0.5097
31.2600 20.8097 0.5123
31.2800 20.8230 0.5148
31.3000 20.8364 0.5101
31.3200 20.8498 0.5076
31.3400 20.8631 0.5056
31.3600 20.8765 0.4969
31.3800 20.8898 0.4984
31.4000 20.9031 0.5027
31.4200 20.9165 0.4966
31.4400 20.9297 0.4972
31.4600 20.9431 0.4982
31.4800 20.9564 0.4994
31.5000 20.9698 0.4921
31.5200 20.9831 0.4940
31.5400 20.9964 0.4954
31.5600 21.0098 0.4923
31.5800 21.0231 0.4867
31.6000 21.0365 0.4913
31.6200 21.0498 0.4831
31.6400 21.0631 0.4862
31.6600 21.0764 0.4958
31.6800 21.0898 0.4790
31.7000 21.1031 0.4803
31.7200 21.1164 0.4875
31.7400 21.1297 0.4734
31.7600 21.1431 0.4852
31.7800 21.1565 0.4838
31.8000 21.1698 0.4684
31.8200 21.1831 0.4804
31.8400 21.1964 0.4777
31.8600 21.2098 0.4660
31.8800 21.2231 0.4805
31.9000 21.2364 0.4728
31.9200 21.2498 0.4662
31.9400 21.2631 0.4728
31.9600 21.2764 0.4641
31.9800 21.2898 0.4610
32.0000 21.3031 0.4663
32.0200 21.3164 0.4676
32.0400 21.3297 0.4613
32.0600 21.3431 0.4672
32.0800 21.3564 0.4646
32.1000 21.3698 0.4607
32.1200 21.3831 0.4636
32.1400 21.3965 0.4583
32.1600 21.4098 0.4604
32.1800 21.4231 0.4598
32.2000 21.4365 0.4588
32.2200 21.4498 0.4555
32.2400 21.4631 0.4589
32.2600 21.4764 0.4617
32.2800 21.4897 0.4563
32.3000 21.5031 0.4543
32.3200 21.5164 0.4563
32.3400 21.5297 0.4516
32.3600 21.5430 0.4487
32.3800 21.5564 0.4537
32.4000 21.5697 0.4474
32.4200 21.5831 0.4522
32.4400 21.5964 0.4555
32.4600 21.6097 0.4484
32.4800 21.6231 0.4504
32.5000 21.6364 0.4502
32.5200 21.6498 0.4384
32.5400 21.6631 0.4500
32.5600 21.6765 0.4519
32.5800 21.6898 0.4409
32.6000 21.7032 0.4442
32.6200 21.7164 0.4479
32.6400 21.7297 0.4351
32.6600 21.7431 0.4454
32.6800 21.7564 0.4459
32.7000 21.7697 0.4397
32.7200 21.7830 0.4453
32.7400 21.7964 0.4412
32.7600 21.8097 0.4350
32.7800 21.8231 0.4422
32.8000 21.8364 0.4372
32.8200 21.8497 0.4387
32.8400 21.8631 0.4394
32.8600 21.8765 0.4319
32.8800 21.8898 0.4325
32.9000 21.9031 0.4363
32.9200 21.9164 0.4316
32.9400 21.9298 0.4294
32.9600 21.9431 0.4321
32.9800 21.9564 0.4256
33.0000 21.9698 0.4342
33.0200 21.9831 0.4294
33.0400 21.9965 0.4207
33.0600 22.0098 0.4279
33.0800 22.0231 0.4224
33.1000 22.0364 0.4221
33.1200 22.0497 0.4309
33.1400 22.0631 0.4191
33.1600 22.0764 0.4209
33.1800 22.0897 0.4278
33.2000 22.1031 0.4113
33.2200 22.1165 0.4213
33.2400 22.1298 0.4309
33.2600 22.1431 0.4109
33.2800 22.1565 0.4211
33.3000 22.1698 0.4256
33.3200 22.1831 0.4117
33.3400 22.1964 0.4169
33.3600 22.2097 0.4240
33.3800 22.2230 0.4128
33.4000 22.2364 0.4151
33.4200 22.2497 0.4184
33.4400 22.2631 0.4110
33.4600 22.2764 0.4101
33.4800 22.2897 0.4163
33.5000 22.3031 0.4091
33.5200 22.3164 0.4159
33.5400 22.3297 0.4132
33.5600 22.3431 0.4075
33.5800 22.3564 0.4127
33.6000 22.3698 0.4072
33.6200 22.3831 0.4073
33.6400 22.3964 0.4125
33.6600 22.4098 0.4080
33.6800 22.4231 0.4061
33.7000 22.4365 0.4067
33.7200 22.4498 0.4052
33.7400 22.4631 0.4049
33.7600 22.4765 0.4076
33.7800 22.4898 0.4070
33.8000 22.5031 0.4011
33.8200 22.5163 0.3995
33.8400 22.5297 0.4075
33.8600 22.5430 0.4029
33.8800 22.5563 0.3986
33.9000 22.5697 0.4069
33.9200 22.5831 0.3990
33.9400 22.5965 0.3896
33.9600 22.6098 0.4062
33.9800 22.6232 0.3981
34.0000 22.6365 0.3912
34.0200 22.6499 0.4056
34.0400 22.6632 0.3891
34.0600 22.6765 0.3975
34.0800 22.6898 0.4062
34.1000 22.7031 0.3894
34.1200 22.7164 0.3940
34.1400 22.7297 0.4018
34.1600 22.7430 0.3862
34.1800 22.7563 0.3971
34.2000 22.7697 0.4005
34.2200 22.7830 0.3816
34.2400 22.7964 0.3939
34.2600 22.8097 0.3987
34.2800 22.8231 0.3812
34.3000 22.8365 0.3975
34.3200 22.8498 0.3920
34.3400 22.8632 0.3800
34.3600 22.8765 0.3949
34.3800 22.8898 0.3881
34.4000 22.9032 0.3809
34.4200 22.9165 0.3955
34.4400 22.9298 0.3867
34.4600 22.9431 0.3813
34.4800 22.9564 0.3951
34.5000 22.9698 0.3772
34.5200 22.9831 0.3824
34.5400 22.9964 0.3948
34.5600 23.0097 0.3777
34.5800 23.0231 0.3786
34.6000 23.0364 0.3876
34.6200 23.0497 0.3790
34.6400 23.0631 0.3807
34.6600 23.0765 0.3871
34.6800 23.0898 0.3746
34.7000 23.1031 0.3756
34.7200 23.1164 0.3806
34.7400 23.1298 0.3709
34.7600 23.1431 0.3745
34.7800 23.1565 0.3803
34.8000 23.1698 0.3721
34.8200 23.1831 0.3714
34.8400 23.1965 0.3825
34.8600 23.2098 0.3705
34.8800 23.2231 0.3723
34.9000 23.2363 0.3739
34.9200 23.2497 0.3698
34.9400 23.2631 0.3696
34.9600 23.2764 0.3715
34.9800 23.2897 0.3686
35.0000 23.3031 0.3671
35.0200 23.3165 0.3711
35.0400 23.3298 0.3632
35.0600 23.3431 0.3703
35.0800 23.3565 0.3711
35.1000 23.3698 0.3623
35.1200 23.3831 0.3710
35.1400 23.3964 0.3666
35.1600 23.4097 0.3663
35.1800 23.4231 0.3675
35.2000 23.4364 0.3628
35.2200 23.4498 0.3642
35.2400 23.4631 0.3674
35.2600 23.4764 0.3639
35.2800 23.4897 0.3595
35.3000 23.5031 0.3639
35.3200 23.5164 0.3581
35.3400 23.5297 0.3611
35.3600 23.5431 0.3628
35.3800 23.5564 0.3549
35.4000 23.5698 0.3613
35.4200 23.5831 0.3590
35.4400 23.5965 0.3510
35.4600 23.6098 0.3615
35.4800 23.6232 0.3594
35.5000 23.6365 0.3530
35.5200 23.6498 0.3555
35.5400 23.6631 0.3576
35.5600 23.6764 0.3521
35.5800 23.6898 0.3572
35.6000 23.7031 0.3570
35.6200 23.7164 0.3484
35.6400 23.7297 0.3548
35.6600 23.7431 0.3523
35.6800 23.7564 0.3481
35.7000 23.7697 0.3557
35.7200 23.7831 0.3516
35.7400 23.7965 0.3532
35.7600 23.8098 0.3484
35.7800 23.8231 0.3491
35.8000 23.8364 0.3535
35.8200 23.8498 0.3479
35.8400 23.8631 0.3491
35.8600 23.8765 0.3496
35.8800 23.8898 0.3487
35.9000 23.9031 0.3497
35.9200 23.9164 0.3462
35.9400 23.9298 0.3438
35.9600 23.9431 0.3470
35.9800 23.9563 0.3451
36.0000 23.9697 0.3390
36.0200 23.9830 0.3471
36.0400 23.9964 0.3390
36.0600 24.0097 0.3394
36.0800 24.0231 0.3470
36.1000 24.0365 0.3375
36.1200 24.0499 0.3397
36.1400 24.0632 0.3441
36.1600 24.0765 0.3343
36.1800 24.0898 0.3407
36.2000 24.1032 0.3441
36.2200 24.1165 0.3288
36.2400 24.1297 0.3407
36.2600 24.1430 0.3450
36.2800 24.1563 0.3257
36.3000 24.1697 0.3383
36.3200 24.1830 0.3415
36.3400 24.1964 0.3224
36.3600 24.2097 0.3417
36.3800 24.2231 0.3390
36.4000 24.2365 0.3217
36.4200 24.2498 0.3382
36.4400 24.2631 0.3349
36.4600 24.2765 0.3192
36.4800 24.2898 0.3394
36.5000 24.3032 0.3309
36.5200 24.3165 0.3177
36.5400 24.3298 0.3389
36.5600 24.3431 0.3310
36.5800 24.3565 0.3158
36.6000 24.3698 0.3358
36.6200 24.3831 0.3272
36.6400 24.3964 0.3179
36.6600 24.4097 0.3285
36.6800 24.4231 0.3260
36.7000 24.4364 0.3181
36.7200 24.4497 0.3274
36.7400 24.4631 0.3214
36.7600 24.4764 0.3159
36.7800 24.4897 0.3209
36.8000 24.5031 0.3205
36.8200 24.5164 0.3172
36.8400 24.5298 0.3189
36.8600 24.5431 0.3177
36.8800 24.5565 0.3161
36.9000 24.5698 0.3159
36.9200 24.5832 0.3195
36.9400 24.5965 0.3104
36.9600 24.6098 0.3129
36.9800 24.6231 0.3281
37.0000 24.6364 0.3089
37.0200 24.6498 0.3176
37.0400 24.6631 0.3238
37.0600 24.6764 0.3112
37.0800 24.6897 0.3156
37.1000 24.7031 0.3195
37.1200 24.7164 0.3120
37.1400 24.7297 0.3164
37.1600 24.7431 0.3137
37.1800 24.7564 0.3116
37.2000 24.7698 0.3184
37.2200 24.7832 0.3183
37.2400 24.7965 0.3101
37.2600 24.8098 0.3171
37.2800 24.8231 0.3154
37.3000 24.8364 0.3078
37.3200 24.8497 0.3125
37.3400 24.8631 0.3163
37.3600 24.8764 0.3088
37.3800 24.8898 0.3043
37.4000 24.9031 0.3118
37.4200 24.9164 0.3129
37.4400 24.9297 0.3051
37.4600 24.9431 0.3137
37.4800 24.9564 0.3068
37.5000 24.9697 0.3032
37.5200 24.9830 0.3128
37.5400 24.9964 0.3063
37.5600 25.0098 0.3013
37.5800 25.0231 0.3088
37.6000 25.0364 0.3043
37.6200 25.0498 0.3020
37.6400 25.0631 0.3107
37.6600 25.0765 0.2968
37.6800 25.0898 0.3065
37.7000 25.1031 0.3082
37.7200 25.1164 0.2917
37.7400 25.1298 0.3043
37.7600 25.1431 0.3068
37.7800 25.1564 0.2922
37.8000 25.1697 0.3050
37.8200 25.1830 0.3019
37.8400 25.1964 0.2923
37.8600 25.2097 0.3041
37.8800 25.2231 0.3027
37.9000 25.2365 0.2876
37.9200 25.2498 0.2971
37.9400 25.2632 0.2997
37.9600 25.2765 0.2862
37.9800 25.2898 0.2959
38.0000 25.3032 0.3021
38.0200 25.3165 0.2810
38.0400 25.3298 0.2883
38.0600 25.3431 0.3020
38.0800 25.3564 0.2887
38.1000 25.3698 0.2868
38.1200 25.3831 0.2958
38.1400 25.3964 0.2805
38.1600 25.4097 0.2898
38.1800 25.4230 0.2945
38.2000 25.4364 0.2748
38.2200 25.4497 0.2880
38.2400 25.4630 0.2940
38.2600 25.4764 0.2744
38.2800 25.4898 0.2846
38.3000 25.5031 0.2869
38.3200 25.5165 0.2774
38.3400 25.5298 0.2826
38.3600 25.5432 0.2866
38.3800 25.5565 0.2788
38.4000 25.5698 0.2757
38.4200 25.5831 0.2844
38.4400 25.5964 0.2817
38.4600 25.6097 0.2753
38.4800 25.6231 0.2848
38.5000 25.6364 0.2739
38.5200 25.6497 0.2688
38.5400 25.6631 0.2886
38.5600 25.6765 0.2737
38.5800 25.6898 0.2654
38.6000 25.7031 0.2826
38.6200 25.7164 0.2730
38.6400 25.7298 0.2664
38.6600 25.7431 0.2827
38.6800 25.7564 0.2675
38.7000 25.7697 0.2711
38.7200 25.7831 0.2783
38.7400 25.7965 0.2637
38.7600 25.8098 0.2667
38.7800 25.8231 0.2849
38.8000 25.8365 0.2625
38.8200 25.8498 0.2608
38.8400 25.8631 0.2774
38.8600 25.8764 0.2629
38.8800 25.8897 0.2661
38.9000 25.9031 0.2729
38.9200 25.9164 0.2564
38.9400 25.9297 0.2652
38.9600 25.9430 0.2762
38.9800 25.9564 0.2571
39.0000 25.9698 0.2654
39.0200 25.9831 0.2723
39.0400 25.9964 0.2560
39.0600 26.0098 0.2631
39.0800 26.0231 0.2713
39.1000 26.0365 0.2572
39.1200 26.0498 0.2623
39.1400 26.0631 0.2709
39.1600 26.0764 0.2536
39.1800 26.0898 0.2693
39.2000 26.1031 0.2640
39.2200 26.1164 0.2503
39.2400 26.1297 0.2671
39.2600 26.1430 0.2645
39.2800 26.1564 0.2492
39.3000 26.1697 0.2667
39.3200 26.1831 0.2619
39.3400 26.1964 0.2533
39.3600 26.2098 0.2670
39.3800 26.2232 0.2536
39.4000 26.2365 0.2532
39.4200 26.2498 0.2634
39.4400 26.2632 0.2617
39.4600 26.2765 0.2459
39.4800 26.2898 0.2538
39.5000 26.3031 0.2684
39.5200 26.3164 0.2476
39.5400 26.3298 0.2511
39.5600 26.3431 0.2618
39.5800 26.3564 0.2493
39.6000 26.3697 0.2534
39.6200 26.3830 0.2599
39.6400 26.3964 0.2427
39.6600 26.4098 0.2522
39.6800 26.4231 0.2595
39.7000 26.4364 0.2397
39.7200 26.4498 0.2530
39.7400 26.4631 0.2507
39.7600 26.4765 0.2392
39.7800 26.4898 0.2543
39.8000 26.5031 0.2507
39.8200 26.5165 0.2384
39.8400 26.5298 0.2480
39.8600 26.5431 0.2423
39.8800 26.5564 0.2462
39.9000 26.5698 0.2518
39.9200 26.5831 0.2392
39.9400 26.5964 0.2423
39.9600 26.6097 0.2431
39.9800 26.6230 0.2447
40.0000 26.6364 0.2446
40.0200 26.6497 0.2386
40.0400 26.6630 0.2431
40.0600 26.6764 0.2444
40.0800 26.6898 0.2397
40.1000 26.7032 0.2408
40.1200 26.7165 0.2399
40.1400 26.7298 0.2373
40.1600 26.7431 0.2426
40.1800 26.7565 0.2395
40.2000 26.7698 0.2356
40.2200 26.7831 0.2466
40.2400 26.7964 0.2365
40.2600 26.8097 0.2379
40.2800 26.8231 0.2395
40.3000 26.8364 0.2353
40.3200 26.8497 0.2372
40.3400 26.8631 0.2381
40.3600 26.8764 0.2359
40.3800 26.8897 0.2328
40.4000 26.9031 0.2371
40.4200 26.9164 0.2355
40.4400 26.9298 0.2327
40.4600 26.9431 0.2342
40.4800 26.9565 0.2336
40.5000 26.9698 0.2349
40.5200 26.9831 0.2347
40.5400 26.9965 0.2368
40.5600 27.0098 0.2336
40.5800 27.0231 0.2287
40.6000 27.0364 0.2349
40.6200 27.0497 0.2296
40.6400 27.0631 0.2315
40.6600 27.0764 0.2368
40.6800 27.0897 0.2261
40.7000 27.1030 0.2295
40.7200 27.1164 0.2343
40.7400 27.1298 0.2228
40.7600 27.1431 0.2315
40.7800 27.1564 0.2339
40.8000 27.1698 0.2268
40.8200 27.1831 0.2315
40.8400 27.1964 0.2291
40.8600 27.2097 0.2284
40.8800 27.2231 0.2290
40.9000 27.2365 0.2263
40.9200 27.2498 0.2251
40.9400 27.2631 0.2261
40.9600 27.2765 0.2233
40.9800 27.2898 0.2230
41.0000 27.3032 0.2240
41.0200 27.3165 0.2191
41.0400 27.3297 0.2306
41.0600 27.3430 0.2195
41.0800 27.3563 0.2158
41.1000 27.3697 0.2266
41.1200 27.3830 0.2116
41.1400 27.3964 0.2205
41.1600 27.4098 0.2254
41.1800 27.4232 0.2134
41.2000 27.4365 0.2130
41.2200 27.4498 0.2194
41.2400 27.4632 0.2142
41.2600 27.4765 0.2154
41.2800 27.4898 0.2188
41.3000 27.5031 0.2032
41.3200 27.5164 0.2183
41.3400 27.5297 0.2226
41.3600 27.5431 0.2030
41.3800 27.5564 0.2174
41.4000 27.5697 0.2188
41.4200 27.5830 0.2040
41.4400 27.5964 0.2144
41.4600 27.6097 0.2150
41.4800 27.6230 0.1997
41.5000 27.6364 0.2139
41.5200 27.6498 0.2109
41.5400 27.6632 0.2002
41.5600 27.6765 0.2171
41.5800 27.6898 0.2120
41.6000 27.7031 0.1992
41.6200 27.7165 0.2134
41.6400 27.7298 0.2088
41.6600 27.7431 0.2036
41.6800 27.7564 0.2088
41.7000 27.7697 0.2138
41.7200 27.7831 0.1989
41.7400 27.7964 0.2128
41.7600 27.8097 0.2074
41.7800 27.8230 0.1989
41.8000 27.8364 0.2141
41.8200 27.8498 0.2008
41.8400 27.8631 0.1951
41.8600 27.8764 0.2144
41.8800 27.8898 0.2070
41.9000 27.9032 0.1955
41.9200 27.9165 0.2111
41.9400 27.9298 0.2004
41.9600 27.9431 0.1950
41.9800 27.9565 0.2113
42.0000 27.9698 0.1954
42.0200 27.9831 0.1950
42.0400 27.9964 0.2096
42.0600 28.0098 0.1940
42.0800 28.0231 0.1998
42.1000 28.0364 0.2034
42.1200 28.0497 0.1984
42.1400 28.0630 0.1980
42.1600 28.0764 0.1968
42.1800 28.0897 0.1973
42.2000 28.1031 0.1982
42.2200 28.1164 0.1954
42.2400 28.1298 0.1961
42.2600 28.1432 0.1956
42.2800 28.1565 0.1890
42.3000 28.1698 0.2037
42.3200 28.1831 0.1953
42.3400 28.1965 0.1836
42.3600 28.2098 0.2036
42.3800 28.2231 0.1880
42.4000 28.2364 0.1902
42.4200 28.2497 0.2057
42.4400 28.2631 0.1798
42.4600 28.2764 0.1890
42.4800 28.2897 0.1988
42.5000 28.3030 0.1809
42.5200 28.3164 0.1933
42.5400 28.3297 0.1965
42.5600 28.3431 0.1776
42.5800 28.3564 0.1928
42.6000 28.3698 0.1973
42.6200 28.3831 0.1741
42.6400 28.3965 0.1951
42.6600 28.4098 0.1896
42.6800 28.4231 0.1716
42.7000 28.4365 0.1923
42.7200 28.4498 0.1826
42.7400 28.4632 0.1740
42.7600 28.4764 0.1896
42.7800 28.4898 0.1831
42.8000 28.5031 0.1724
42.8200 28.5164 0.1880
42.8400 28.5297 0.1845
42.8600 28.5430 0.1714
42.8800 28.5564 0.1863
42.9000 28.5697 0.1784
42.9200 28.5831 0.1703
42.9400 28.5964 0.1860
42.9600 28.6098 0.1798
42.9800 28.6231 0.1726
43.0000 28.6365 0.1801
43.0200 28.6498 0.1807
43.0400 28.6631 0.1664
43.0600 28.6765 0.1827
43.0800 28.6898 0.1791
43.1000 28.7031 0.1665
43.1200 28.7164 0.1829
43.1400 28.7298 0.1761
43.1600 28.7431 0.1651
43.1800 28.7564 0.1825
43.2000 28.7697 0.1760
43.2200 28.7830 0.1646
43.2400 28.7963 0.1795
43.2600 28.8097 0.1767
43.2800 28.8230 0.1617
43.3000 28.8364 0.1835
43.3200 28.8498 0.1714
43.3400 28.8632 0.1587
43.3600 28.8765 0.1804
43.3800 28.8899 0.1668
43.4000 28.9032 0.1621
43.4200 28.9165 0.1810
43.4400 28.9299 0.1649
43.4600 28.9431 0.1552
43.4800 28.9564 0.1795
43.5000 28.9697 0.1717
43.5200 28.9830 0.1552
43.5400 28.9964 0.1771
43.5600 29.0097 0.1642
43.5800 29.0231 0.1577
43.6000 29.0364 0.1796
43.6200 29.0498 0.1589
43.6400 29.0631 0.1598
43.6600 29.0765 0.1749
43.6800 29.0898 0.1601
43.7000 29.1032 0.1608
43.7200 29.1165 0.1742
43.7400 29.1298 0.1574
43.7600 29.1431 0.1623
43.7800 29.1565 0.1678
43.8000 29.1698 0.1523
43.8200 29.1831 0.1636
43.8400 29.1964 0.1690
43.8600 29.2097 0.1517
43.8800 29.2231 0.1618
43.9000 29.2364 0.1654
43.9200 29.2497 0.1561
43.9400 29.2630 0.1648
43.9600 29.2764 0.1648
43.9800 29.2897 0.1489
44.0000 29.3031 0.1633
44.0200 29.3164 0.1641
44.0400 29.3298 0.1518
44.0600 29.3431 0.1619
44.0800 29.3565 0.1623
44.1000 29.3698 0.1487
44.1200 29.3831 0.1655
44.1400 29.3965 0.1604
44.1600 29.4098 0.1463
44.1800 29.4231 0.1636
44.2000 29.4364 0.1583
44.2200 29.4497 0.1491
44.2400 29.4631 0.1634
44.2600 29.4764 0.1558
44.2800 29.4897 0.1535
44.3000 29.5030 0.1590
44.3200 29.5164 0.1518
44.3400 29.5297 0.1511
44.3600 29.5431 0.1576
44.3800 29.5564 0.1496
44.4000 29.5697 0.1550
44.4200 29.5831 0.1596
44.4400 29.5965 0.1474
44.4600 29.6098 0.1545
44.4800 29.6231 0.1561
44.5000 29.6365 0.1509
44.5200 29.6498 0.1559
44.5400 29.6631 0.1515
44.5600 29.6764 0.1513
44.5800 29.6897 0.1516
44.6000 29.7031 0.1497
44.6200 29.7164 0.1527
44.6400 29.7297 0.1513
44.6600 29.7430 0.1529
44.6800 29.7564 0.1522
44.7000 29.7697 0.1465
44.7200 29.7831 0.1521
44.7400 29.7964 0.1527
44.7600 29.8097 0.1395
44.7800 29.8231 0.1532
44.8000 29.8365 0.1476
44.8200 29.8498 0.1376
44.8400 29.8631 0.1554
44.8600 29.8765 0.1465
44.8800 29.8898 0.1356
44.9000 29.9031 0.1542
44.9200 29.9164 0.1424
44.9400 29.9297 0.1358
44.9600 29.9431 0.1526
44.9800 29.9564 0.1366
45.0000 29.9697 0.1308
45.0200 29.9830 0.1523
45.0400 29.9964 0.1374
45.0600 30.0097 0.1327
45.0800 30.0231 0.1484
45.1000 30.0364 0.1340
45.1200 30.0498 0.1326
45.1400 30.0632 0.1435
45.1600 30.0765 0.1281
45.1800 30.0898 0.1346
45.2000 30.1031 0.1427
45.2200 30.1165 0.1302
45.2400 30.1298 0.1332
45.2600 30.1431 0.1384
45.2800 30.1564 0.1284
45.3000 30.1697 0.1352
45.3200 30.1831 0.1381
45.3400 30.1964 0.1234
45.3600 30.2097 0.1342
45.3800 30.2230 0.1355
45.4000 30.2364 0.1260
45.4200 30.2497 0.1340
45.4400 30.2630 0.1312
45.4600 30.2764 0.1302
45.4800 30.2897 0.1286
45.5000 30.3031 0.1308
45.5200 30.3165 0.1299
45.5400 30.3298 0.1259
45.5600 30.3431 0.1310
45.5800 30.3565 0.1304
45.6000 30.3698 0.1247
45.6200 30.3831 0.1268
45.6400 30.3964 0.1254
45.6600 30.4097 0.1263
45.6800 30.4230 0.1282
45.7000 30.4364 0.1221
45.7200 30.4497 0.1246
45.7400 30.4630 0.1271
45.7600 30.4764 0.1207
45.7800 30.4898 0.1233
45.8000 30.5031 0.1249
45.8200 30.5164 0.1179
45.8400 30.5298 0.1184
45.8600 30.5431 0.1250
45.8800 30.5564 0.1152
45.9000 30.5697 0.1196
45.9200 30.5831 0.1263
45.9400 30.5964 0.1187
45.9600 30.6098 0.1196
45.9800 30.6231 0.1214
46.0000 30.6365 0.1179
46.0200 30.6498 0.1194
46.0400 30.6631 0.1187
46.0600 30.6765 0.1157
46.0800 30.6898 0.1151
46.1000 30.7031 0.1198
46.1200 30.7164 0.1210
46.1400 30.7297 0.1176
46.1600 30.7431 0.1182
46.1800 30.7564 0.1111
46.2000 30.7697 0.1175
46.2200 30.7831 0.1196
46.2400 30.7965 0.1084
46.2600 30.8098 0.1098
46.2800 30.8231 0.1201
46.3000 30.8365 0.1079
46.3200 30.8498 0.1120
46.3400 30.8632 0.1200
46.3600 30.8765 0.1063
46.3800 30.8898 0.1113
46.4000 30.9031 0.1165
46.4200 30.9165 0.1091
46.4400 30.9298 0.1095
46.4600 30.9431 0.1158
46.4800 30.9564 0.1069
46.5000 30.9697 0.1085
46.5200 30.9830 0.1152
46.5400 30.9964 0.1054
46.5600 31.0097 0.1123
46.5800 31.0231 0.1118
46.6000 31.0365 0.1038
46.6200 31.0498 0.1074
46.6400 31.0631 0.1125
46.6600 31.0765 0.1051
46.6800 31.0898 0.1070
46.7000 31.1031 0.1110
46.7200 31.1164 0.1051
46.7400 31.1298 0.1060
46.7600 31.1431 0.1103
46.7800 31.1565 0.1026
46.8000 31.1698 0.1052
46.8200 31.1831 0.1096
46.8400 31.1964 0.1057
46.8600 31.2097 0.1059
46.8800 31.2231 0.1068
46.9000 31.2364 0.1051
46.9200 31.2497 0.1022
46.9400 31.2631 0.1071
46.9600 31.2764 0.1040
46.9800 31.2898 0.0978
47.0000 31.3031 0.1047
47.0200 31.3165 0.0977
47.0400 31.3298 0.1013
47.0600 31.3432 0.1019
47.0800 31.3565 0.0966
47.1000 31.3698 0.1033
47.1200 31.3831 0.1011
47.1400 31.3964 0.0987
47.1600 31.4097 0.0999
47.1800 31.4230 0.1032
47.2000 31.4363 0.0938
47.2200 31.4497 0.0965
47.2400 31.4631 0.1033
47.2600 31.4764 0.0883
47.2800 31.4897 0.1000
47.3000 31.5031 0.1013
47.3200 31.5165 0.0841
47.3400 31.5298 0.0940
47.3600 31.5431 0.1044
47.3800 31.5564 0.0882
47.4000 31.5698 0.0954
47.4200 31.5831 0.1023
47.4400 31.5964 0.0796
47.4600 31.6097 0.1009
47.4800 31.6231 0.0973
47.5000 31.6364 0.0771
47.5200 31.6498 0.0997
47.5400 31.6631 0.0924
47.5600 31.6764 0.0809
47.5800 31.6897 0.1029
47.6000 31.7031 0.0868
47.6200 31.7164 0.0795
47.6400 31.7297 0.0991
47.6600 31.7431 0.0830
47.6800 31.7565 0.0803
47.7000 31.7698 0.0963
47.7200 31.7831 0.0823
47.7400 31.7965 0.0877
47.7600 31.8098 0.0915
47.7800 31.8232 0.0784
47.8000 31.8365 0.0888
47.8200 31.8497 0.0897
47.8400 31.8631 0.0763
47.8600 31.8764 0.0921
47.8800 31.8897 0.0841
47.9000 31.9031 0.0790
47.9200 31.9164 0.0911
47.9400 31.9297 0.0765
47.9600 31.9431 0.0807
47.9800 31.9564 0.0879
48.0000 31.9697 0.0728
48.0200 31.9831 0.0838
48.0400 31.9964 0.0848
48.0600 32.0098 0.0711
48.0800 32.0231 0.0848
48.1000 32.0364 0.0880
48.1200 32.0498 0.0686
48.1400 32.0631 0.0829
48.1600 32.0765 0.0828
48.1800 32.0898 0.0714
48.2000 32.1031 0.0870
48.2200 32.1165 0.0813
48.2400 32.1298 0.0743
48.2600 32.1431 0.0819
48.2800 32.1563 0.0813
48.3000 32.1696 0.0715
48.3200 32.1830 0.0771
48.3400 32.1963 0.0766
48.3600 32.2097 0.0725
48.3800 32.2231 0.0813
48.4000 32.2365 0.0711
48.4200 32.2498 0.0705
48.4400 32.2631 0.0764
48.4600 32.2765 0.0723
48.4800 32.2898 0.0691
48.5000 32.3032 0.0736
48.5200 32.3165 0.0712
48.5400 32.3298 0.0676
48.5600 32.3431 0.0711
48.5800 32.3564 0.0663
48.6000 32.3697 0.0703
48.6200 32.3831 0.0666
48.6400 32.3964 0.0705
48.6600 32.4097 0.0677
48.6800 32.4231 0.0631
48.7000 32.4364 0.0725
48.7200 32.4497 0.0651
48.7400 32.4631 0.0609
48.7600 32.4765 0.0722
48.7800 32.4898 0.0665
48.8000 32.5032 0.0518
48.8200 32.5165 0.0716
48.8400 32.5298 0.0628
48.8600 32.5432 0.0567
48.8800 32.5565 0.0662
48.9000 32.5698 0.0647
48.9200 32.5831 0.0618
48.9400 32.5964 0.0641
48.9600 32.6098 0.0614
48.9800 32.6231 0.0639
49.0000 32.6364 0.0648
49.0200 32.6497 0.0590
49.0400 32.6631 0.0607
49.0600 32.6764 0.0644
49.0800 32.6898 0.0633
49.1000 32.7031 0.0624
49.1200 32.7165 0.0635
49.1400 32.7298 0.0581
49.1600 32.7431 0.0590
49.1800 32.7564 0.0668
49.2000 32.7698 0.0607
49.2200 32.7831 0.0543
49.2400 32.7965 0.0627
49.2600 32.8098 0.0621
49.2800 32.8231 0.0531
49.3000 32.8365 0.0626
49.3200 32.8498 0.0628
49.3400 32.8631 0.0530
49.3600 32.8763 0.0582
49.3800 32.8897 0.0604
49.4000 32.9031 0.0535
49.4200 32.9164 0.0542
49.4400 32.9298 0.0572
49.4600 32.9431 0.0535
49.4800 32.9565 0.0608
49.5000 32.9698 0.0556
49.5200 32.9831 0.0442
49.5400 32.9965 0.0604
49.5600 33.0098 0.0597
49.5800 33.0231 0.0443
49.6000 33.0364 0.0589
49.6200 33.0497 0.0528
49.6400 33.0630 0.0462
49.6600 33.0764 0.0544
49.6800 33.0897 0.0532
49.7000 33.1031 0.0534
49.7200 33.1164 0.0535
49.7400 33.1297 0.0492
49.7600 33.1431 0.0523
49.7800 33.1564 0.0521
49.8000 33.1697 0.0464
49.8200 33.1831 0.0498
49.8400 33.1964 0.0521
49.8600 33.2098 0.0456
49.8800 33.2231 0.0487
49.9000 33.2365 0.0499
49.9200 33.2498 0.0430
49.9400 33.2632 0.0436
49.9600 33.2765 0.0505
49.9800 33.2898 0.0427
50.0000 33.3031 0.0437
50.0200 33.3164 0.0527
50.0400 33.3298 0.0442
50.0600 33.3431 0.0382
50.0800 33.3564 0.0511
50.1000 33.3697 0.0421
50.1200 33.3831 0.0387
50.1400 33.3964 0.0535
50.1600 33.4098 0.0397
50.1800 33.4231 0.0355
50.2000 33.4364 0.0461
50.2200 33.4498 0.0394
50.2400 33.4631 0.0366
50.2600 33.4764 0.0468
50.2800 33.4898 0.0387
50.3000 33.5031 0.0370
50.3200 33.5165 0.0483
50.3400 33.5298 0.0380
50.3600 33.5431 0.0438
50.3800 33.5564 0.0427
50.4000 33.5698 0.0341
50.4200 33.5831 0.0427
50.4400 33.5964 0.0439
50.4600 33.6097 0.0404
50.4800 33.6231 0.0399
50.5000 33.6364 0.0392
50.5200 33.6497 0.0382
50.5400 33.6631 0.0417
50.5600 33.6764 0.0356
50.5800 33.6898 0.0390
50.6000 33.7032 0.0353
50.6200 33.7165 0.0349
50.6400 33.7298 0.0447
50.6600 33.7432 0.0295
50.6800 33.7565 0.0351
50.7000 33.7697 0.0433
50.7200 33.7830 0.0284
50.7400 33.7964 0.0347
50.7600 33.8097 0.0415
50.7800 33.8230 0.0299
50.8000 33.8364 0.0356
50.8200 33.8497 0.0349
50.8400 33.8631 0.0232
50.8600 33.8765 0.0381
50.8800 33.8898 0.0355
50.9000 33.9031 0.0200
50.9200 33.9165 0.0405
50.9400 33.9298 0.0324
50.9600 33.9431 0.0183
50.9800 33.9564 0.0392
51.0000 33.9697 0.0261
51.0200 33.9831 0.0201
51.0400 33.9964 0.0380
51.0600 34.0097 0.0235
51.0800 34.0231 0.0257
51.1000 34.0364 0.0398
51.1200 34.0498 0.0229
51.1400 34.0631 0.0211
51.1600 34.0764 0.0336
51.1800 34.0897 0.0196
51.2000 34.1031 0.0256
51.2200 34.1164 0.0266
51.2400 34.1298 0.0210
51.2600 34.1431 0.0289
51.2800 34.1565 0.0213
51.3000 34.1698 0.0204
51.3200 34.1831 0.0286
51.3400 34.1964 0.0204
51.3600 34.2098 0.0236
51.3800 34.2231 0.0237
51.4000 34.2365 0.0187
51.4200 34.2498 0.0181
51.4400 34.2631 0.0277
51.4600 34.2764 0.0213
51.4800 34.2898 0.0203
51.5000 34.3031 0.0234
51.5200 34.3164 0.0163
51.5400 34.3297 0.0216
51.5600 34.3431 0.0267
51.5800 34.3564 0.0110
51.6000 34.3697 0.0170
51.6200 34.3831 0.0294
51.6400 34.3964 0.0168
51.6600 34.4098 0.0151
51.6800 34.4231 0.0193
51.7000 34.4365 0.0118
51.7200 34.4498 0.0185
51.7400 34.4632 0.0181
51.7600 34.4765 0.0101
51.7800 34.4897 0.0117
51.8000 34.5031 0.0202
51.8200 34.5164 0.0168
51.8400 34.5297 0.0105
51.8600 34.5431 0.0163
51.8800 34.5564 0.0117
51.9000 34.5697 0.0123
51.9200 34.5831 0.0111
51.9400 34.5964 0.0099
51.9600 34.6097 0.0113
51.9800 34.6230 0.0045
52.0000 34.6364 0.0167
52.0200 34.6498 0.0137
52.0400 34.6631 -0.0010
52.0600 34.6764 0.0123
52.0800 34.6898 0.0090
52.1000 34.7031 0.0040
52.1200 34.7165 0.0101
52.1400 34.7298 0.0077
52.1600 34.7431 -0.0006
52.1800 34.7564 0.0187
52.2000 34.7697 0.0073
52.2200 34.7831 -0.0020
52.2400 34.7964 0.0115
52.2600 34.8097 0.0023
52.2800 34.8230 0.0077
52.3000 34.8364 0.0101
52.3200 34.8497 -0.0024
52.3400 34.8631 0.0056
52.3600 34.8765 0.0012
52.3800 34.8898 0.0004
52.4000 34.9032 0.0105
52.4200 34.9165 0.0008
52.4400 34.9298 -0.0049
52.4600 34.9431 0.0086
52.4800 34.9565 -0.0014
52.5000 34.9698 0.0012
52.5200 34.9831 0.0131
52.5400 34.9964 -0.0107
52.5600 35.0098 -0.0036
52.5800 35.0231 0.0096
52.6000 35.0364 -0.0068
52.6200 35.0497 0.0005
52.6400 35.0630 0.0063
52.6600 35.0764 -0.0079
52.6800 35.0897 0.0012
52.7000 35.1031 0.0073
52.7200 35.1164 -0.0089
52.7400 35.1298 -0.0001
52.7600 35.1432 0.0052
52.7800 35.1565 -0.0126
52.8000 35.1698 0.0001
52.8200 35.1831 0.0017
52.8400 35.1965 -0.0087
52.8600 35.2098 -0.0021
52.8800 35.2230 0.0045
52.9000 35.2364 -0.0129
52.9200 35.2497 -0.0064
52.9400 35.2631 0.0027
52.9600 35.2764 -0.0145
52.9800 35.2897 -0.0056
53.0000 35.3031 0.0012
53.0200 35.3165 -0.0158
53.0400 35.3298 -0.0066
53.0600 35.3431 -0.0039
53.0800 35.3565 -0.0215
53.1000 35.3698 -0.0112
53.1200 35.3831 -0.0067
53.1400 35.3964 -0.0151
53.1600 35.4097 -0.0154
53.1800 35.4231 -0.0043
53.2000 35.4364 -0.0184
53.2200 35.4498 -0.0117
53.2400 35.4631 -0.0051
53.2600 35.4764 -0.0217
53.2800 35.4898 -0.0131
53.3000 35.5032 -0.0116
53.3200 35.5164 -0.0201
53.3400 35.5297 -0.0108
53.3600 35.5430 -0.0121
53.3800 35.5564 -0.0231
53.4000 35.5697 -0.0131
53.4200 35.5830 -0.0084
53.4400 35.5964 -0.0249
53.4600 35.6098 -0.0104
53.4800 35.6231 -0.0145
53.5000 35.6365 -0.0263
53.5200 35.6498 -0.0100
53.5400 35.6631 -0.0124
53.5600 35.6765 -0.0271
53.5800 35.6898 -0.0108
53.6000 35.7031 -0.0120
53.6200 35.7164 -0.0262
53.6400 35.7298 -0.0152
53.6600 35.7431 -0.0168
53.6800 35.7564 -0.0319
53.7000 35.7697 -0.0097
53.7200 35.7830 -0.0186
53.7400 35.7964 -0.0338
53.7600 35.8097 -0.0114
53.7800 35.8231 -0.0241
53.8000 35.8364 -0.0353
53.8200 35.8498 -0.0072
53.8400 35.8631 -0.0255
53.8600 35.8765 -0.0325
53.8800 35.8898 -0.0113
53.9000 35.9031 -0.0333
53.9200 35.9165 -0.0281
53.9400 35.9298 -0.0099
53.9600 35.9431 -0.0356
53.9800 35.9564 -0.0310
54.0000 35.9697 -0.0114
54.0200 35.9831 -0.0388
54.0400 35.9964 -0.0292
54.0600 36.0097 -0.0187
54.0800 36.0230 -0.0413
54.1000 36.0364 -0.0300
54.1200 36.0498 -0.0262
54.1400 36.0631 -0.0380
54.1600 36.0764 -0.0179
54.1800 36.0898 -0.0361
54.2000 36.1031 -0.0432
54.2200 36.1165 -0.0184
54.2400 36.1298 -0.0332
54.2600 36.1431 -0.0394
54.2800 36.1565 -0.0261
54.3000 36.1698 -0.0347
54.3200 36.1831 -0.0376
54.3400 36.1964 -0.0284
54.3600 36.2098 -0.0372
54.3800 36.2231 -0.0379
54.4000 36.2364 -0.0374
54.4200 36.2497 -0.0338
54.4400 36.2630 -0.0300
54.4600 36.2764 -0.0392
54.4800 36.2897 -0.0365
54.5000 36.3031 -0.0361
54.5200 36.3164 -0.0379
54.5400 36.3298 -0.0372
54.5600 36.3432 -0.0376
54.5800 36.3565 -0.0407
54.6000 36.3698 -0.0346
54.6200 36.3831 -0.0409
54.6400 36.3965 -0.0447
54.6600 36.4098 -0.0276
54.6800 36.4231 -0.0426
54.7000 36.4364 -0.0474
54.7200 36.4497 -0.0305
54.7400 36.4631 -0.0456
54.7600 36.4764 -0.0459
54.7800 36.4897 -0.0324
54.8000 36.5031 -0.0500
54.8200 36.5164 -0.0424
54.8400 36.5298 -0.0376
54.8600 36.5431 -0.0527
54.8800 36.5564 -0.0426
54.9000 36.5698 -0.0399
54.9200 36.5831 -0.0541
54.9400 36.5965 -0.0376
54.9600 36.6098 -0.0406
54.9800 36.6231 -0.0539
55.0000 36.6365 -0.0387
55.0200 36.6498 -0.0467
55.0400 36.6631 -0.0495
55.0600 36.6764 -0.0371
55.0800 36.6897 -0.0479
55.1000 36.7031 -0.0532
55.1200 36.7164 -0.0428
55.1400 36.7297 -0.0480
55.1600 36.7430 -0.0542
55.1800 36.7564 -0.0461
55.2000 36.7698 -0.0525
55.2200 36.7831 -0.0529
55.2400 36.7964 -0.0476
55.2600 36.8098 -0.0501
55.2800 36.8231 -0.0518
55.3000 36.8364 -0.0531
55.3200 36.8497 -0.0497
55.3400 36.8631 -0.0537
55.3600 36.8765 -0.0534
55.3800 36.8898 -0.0529
55.4000 36.9031 -0.0540
55.4200 36.9165 -0.0570
55.4400 36.9298 -0.0509
55.4600 36.9432 -0.0539
55.4800 36.9564 -0.0599
55.5000 36.9697 -0.0561
55.5200 36.9830 -0.0582
55.5400 36.9963 -0.0603
55.5600 37.0096 -0.0569
55.5800 37.0230 -0.0611
55.6000 37.0364 -0.0582
55.6200 37.0498 -0.0567
55.6400 37.0632 -0.0629
55.6600 37.0765 -0.0622
55.6800 37.0898 -0.0551
55.7000 37.1032 -0.0675
55.7200 37.1165 -0.0590
55.7400 37.1299 -0.0585
55.7600 37.1432 -0.0665
55.7800 37.1564 -0.0580
55.8000 37.1698 -0.0595
55.8200 37.1831 -0.0676
55.8400 37.1964 -0.0572
55.8600 37.2097 -0.0640
55.8800 37.2230 -0.0665
55.9000 37.2364 -0.0590
55.9200 37.2497 -0.0647
55.9400 37.2630 -0.0696
55.9600 37.2764 -0.0612
55.9800 37.2898 -0.0641
56.0000 37.3031 -0.0662
56.0200 37.3165 -0.0663
56.0400 37.3298 -0.0705
56.0600 37.3431 -0.0631
56.0800 37.3565 -0.0686
56.1000 37.3698 -0.0689
56.1200 37.3831 -0.0610
56.1400 37.3964 -0.0757
56.1600 37.4098 -0.0653
56.1800 37.4231 -0.0586
56.2000 37.4364 -0.0795
56.2200 37.4497 -0.0639
56.2400 37.4630 -0.0644
56.2600 37.4764 -0.0825
56.2800 37.4897 -0.0639
56.3000 37.5031 -0.0681
56.3200 37.5164 -0.0801
56.3400 37.5298 -0.0647
56.3600 37.5431 -0.0766
56.3800 37.5565 -0.0771
56.4000 37.5698 -0.0649
56.4200 37.5831 -0.0773
56.4400 37.5965 -0.0780
56.4600 37.6098 -0.0672
56.4800 37.6231 -0.0858
56.5000 37.6364 -0.0783
56.5200 37.6498 -0.0649
56.5400 37.6631 -0.0838
56.5600 37.6764 -0.0798
56.5800 37.6897 -0.0685
56.6000 37.7030 -0.0907
56.6200 37.7164 -0.0729
56.6400 37.7297 -0.0743
56.6600 37.7431 -0.0913
56.6800 37.7564 -0.0703
56.7000 37.7698 -0.0793
56.7200 37.7832 -0.0900
56.7400 37.7965 -0.0772
56.7600 37.8098 -0.0811
56.7800 37.8231 -0.0915
56.8000 37.8365 -0.0751
56.8200 37.8498 -0.0801
56.8400 37.8631 -0.0938
56.8600 37.8764 -0.0731
56.8800 37.8897 -0.0873
56.9000 37.9031 -0.0928
56.9200 37.9164 -0.0794
56.9400 37.9297 -0.0869
56.9600 37.9430 -0.0865
56.9800 37.9564 -0.0881
57.0000 37.9697 -0.0815
57.0200 37.9830 -0.0874
57.0400 37.9964 -0.0888
57.0600 38.0098 -0.0817
57.0800 38.0231 -0.0933
57.1000 38.0365 -0.0941
57.1200 38.0498 -0.0826
57.1400 38.0631 -0.0896
57.1600 38.0765 -0.0946
57.1800 38.0898 -0.0888
57.2000 38.1032 -0.0886
57.2200 38.1164 -0.0966
57.2400 38.1297 -0.0862
57.2600 38.1431 -0.0911
57.2800 38.1564 -0.0960
57.3000 38.1698 -0.0890
57.3200 38.1831 -0.0990
57.3400 38.1964 -0.0914
57.3600 38.2097 -0.0898
57.3800 38.2231 -0.1015
57.4000 38.2364 -0.0921
57.4200 38.2497 -0.0887
57.4400 38.2631 -0.1006
57.4600 38.2765 -0.1005
57.4800 38.2898 -0.0876
57.5000 38.3031 -0.0995
57.5200 38.3165 -0.0925
57.5400 38.3298 -0.0923
57.5600 38.3431 -0.1043
57.5800 38.3564 -0.0996
57.6000 38.3698 -0.0938
57.6200 38.3831 -0.0998
57.6400 38.3964 -0.1050
57.6600 38.4097 -0.0960
57.6800 38.4230 -0.1021
57.7000 38.4364 -0.1002
57.7200 38.4497 -0.1019
57.7400 38.4630 -0.1059
57.7600 38.4764 -0.1005
57.7800 38.4897 -0.1059
57.8000 38.5031 -0.1113
57.8200 38.5165 -0.0991
57.8400 38.5298 -0.1054
57.8600 38.5432 -0.1104
57.8800 38.5565 -0.1041
57.9000 38.5698 -0.1035
57.9200 38.5831 -0.1125
57.9400 38.5964 -0.1023
57.9600 38.6097 -0.1067
57.9800 38.6230 -0.1115
58.0000 38.6364 -0.1055
58.0200 38.6497 -0.1096
58.0400 38.6630 -0.1067
58.0600 38.6764 -0.1113
58.0800 38.6898 -0.1158
58.1000 38.7031 -0.1094
58.1200 38.7164 -0.1080
58.1400 38.7298 -0.1155
58.1600 38.7432 -0.1156
58.1800 38.7565 -0.1129
58.2000 38.7698 -0.1205
58.2200 38.7831 -0.1105
58.2400 38.7965 -0.1109
58.2600 38.8098 -0.1179
58.2800 38.8231 -0.1136
58.3000 38.8364 -0.1121
58.3200 38.8497 -0.1181
58.3400 38.8631 -0.1154
58.3600 38.8764 -0.1170
58.3800 38.8897 -0.1149
58.4000 38.9030 -0.1164
58.4200 38.9164 -0.1206
58.4400 38.9298 -0.1174
58.4600 38.9431 -0.1214
58.4800 38.9564 -0.1186
58.5000 38.9698 -0.1159
58.5200 38.9832 -0.1245
58.5400 38.9965 -0.1269
58.5600 39.0098 -0.1150
58.5800 39.0231 -0.1276
58.6000 39.0365 -0.1224
58.6200 39.0498 -0.1208
58.6400 39.0632 -0.1307
58.6600 39.0764 -0.1268
58.6800 39.0897 -0.1170
58.7000 39.1031 -0.1332
58.7200 39.1164 -0.1297
58.7400 39.1297 -0.1229
58.7600 39.1430 -0.1360
58.7800 39.1564 -0.1276
58.8000 39.1697 -0.1237
58.8200 39.1831 -0.1385
58.8400 39.1964 -0.1280
58.8600 39.2097 -0.1307
58.8800 39.2231 -0.1394
58.9000 39.2365 -0.1320
58.9200 39.2498 -0.1313
58.9400 39.2631 -0.1351
58.9600 39.2765 -0.1351
58.9800 39.2898 -0.1365
59.0000 39.3031 -0.1351
59.0200 39.3164 -0.1315
59.0400 39.3297 -0.1364
59.0600 39.3431 -0.1381
59.0800 39.3564 -0.1365
59.1000 39.3697 -0.1428
59.1200 39.3830 -0.1361
59.1400 39.3964 -0.1418
59.1600 39.4097 -0.1438
59.1800 39.4231 -0.1409
59.2000 39.4364 -0.1416
59.2200 39.4497 -0.1434
59.2400 39.4631 -0.1445
59.2600 39.4764 -0.1419
59.2800 39.4898 -0.1466
59.3000 39.5031 -0.1469
59.3200 39.5165 -0.1434
59.3400 39.5298 -0.1470
59.3600 39.5432 -0.1499
59.3800 39.5565 -0.1405
59.4000 39.5697 -0.1485
59.4200 39.5831 -0.1508
59.4400 39.5964 -0.1484
59.4600 39.6097 -0.1448
59.4800 39.6230 -0.1526
59.5000 39.6364 -0.1519
59.5200 39.6497 -0.1490
59.5400 39.6631 -0.1574
59.5600 39.6764 -0.1480
59.5800 39.6897 -0.1525
59.6000 39.7031 -0.1601
59.6200 39.7165 -0.1526
59.6400 39.7298 -0.1556
59.6600 39.7431 -0.1577
59.6800 39.7565 -0.1544
59.7000 39.7698 -0.1573
59.7200 39.7832 -0.1634
59.7400 39.7965 -0.1542
59.7600 39.8098 -0.1587
59.7800 39.8231 -0.1605
59.8000 39.8364 -0.1556
59.8200 39.8498 -0.1681
59.8400 39.8631 -0.1602
59.8600 39.8764 -0.1627
59.8800 39.8897 -0.1665
59.9000 39.9031 -0.1583
59.9200 39.9164 -0.1654
59.9400 39.9297 -0.1718
59.9600 39.9431 -0.1567
59.9800 39.9565 -0.1654
60.0000 39.9698 -0.1731
60.0200 39.9831 -0.1606
60.0400 39.9964 -0.1728
60.0460 40.0003 -0.1898
