Raw Data
Time Displacement Force
(s) (mm) (N)
0.0000 0.0000 0.1770
0.0200 0.0001 0.1856
0.0400 0.0021 0.2488
0.0600 0.0098 0.2519
0.0800 0.0215 0.1618
0.1000 0.0339 0.1666
0.1200 0.0466 0.2163
0.1400 0.0601 0.1691
0.1600 0.0743 0.1703
0.1800 0.0885 0.1881
0.2000 0.1024 0.1630
0.2200 0.1160 0.1670
0.2400 0.1294 0.1851
0.2600 0.1427 0.1669
0.2800 0.1560 0.1804
0.3000 0.1694 0.1818
0.3200 0.1828 0.1693
0.3400 0.1961 0.1838
0.3600 0.2094 0.1760
0.3800 0.2228 0.1709
0.4000 0.2361 0.1778
0.4200 0.2494 0.1765
0.4400 0.2627 0.1820
0.4600 0.2760 0.1700
0.4800 0.2894 0.1784
0.5000 0.3028 0.1829
0.5200 0.3161 0.1670
0.5400 0.3294 0.1788
0.5600 0.3427 0.1787
0.5800 0.3561 0.1673
0.6000 0.3694 0.1783
0.6200 0.3828 0.1815
0.6400 0.3961 0.1666
0.6600 0.4095 0.1812
0.6800 0.4228 0.1801
0.7000 0.4361 0.1599
0.7200 0.4495 0.1869
0.7400 0.4628 0.1794
0.7600 0.4762 0.1614
0.7800 0.4895 0.1847
0.8000 0.5028 0.1755
0.8200 0.5161 0.1673
0.8400 0.5294 0.1825
0.8600 0.5428 0.1772
0.8800 0.5561 0.1659
0.9000 0.5693 0.1840
0.9200 0.5827 0.1753
0.9400 0.5960 0.1622
0.9600 0.6094 0.1808
0.9800 0.6227 0.1772
1.0000 0.6360 0.1623
1.0200 0.6494 0.1788
1.0400 0.6628 0.1703
1.0600 0.6761 0.1618
1.0800 0.6895 0.1743
1.1000 0.7028 0.1721
1.1200 0.7161 0.1604
1.1400 0.7294 0.1743
1.1600 0.7427 0.1738
1.1800 0.7561 0.1607
1.2000 0.7694 0.1706
1.2200 0.7828 0.1719
1.2400 0.7961 0.1614
1.2600 0.8094 0.1704
1.2800 0.8227 0.1703
1.3000 0.8361 0.1575
1.3200 0.8494 0.1688
1.3400 0.8627 0.1698
1.3600 0.8761 0.1554
1.3800 0.8894 0.1675
1.4000 0.9028 0.1705
1.4200 0.9161 0.1543
1.4400 0.9294 0.1711
1.4600 0.9428 0.1694
1.4800 0.9561 0.1559
1.5000 0.9695 0.1690
1.5200 0.9828 0.1672
1.5400 0.9961 0.1537
1.5600 1.0094 0.1721
1.5800 1.0227 0.1596
1.6000 1.0360 0.1557
1.6200 1.0493 0.1743
1.6400 1.0627 0.1584
1.6600 1.0760 0.1572
1.6800 1.0894 0.1680
1.7000 1.1027 0.1608
1.7200 1.1161 0.1580
1.7400 1.1295 0.1623
1.7600 1.1429 0.1651
1.7800 1.1562 0.1529
1.8000 1.1695 0.1630
1.8200 1.1828 0.1667
1.8400 1.1961 0.1521
1.8600 1.2095 0.1552
1.8800 1.2228 0.1645
1.9000 1.2361 0.1510
1.9200 1.2494 0.1594
1.9400 1.2628 0.1644
1.9600 1.2761 0.1449
1.9800 1.2894 0.1611
2.0000 1.3027 0.1639
2.0200 1.3160 0.1440
2.0400 1.3294 0.1589
2.0600 1.3427 0.1595
2.0800 1.3561 0.1457
2.1000 1.3694 0.1608
2.1200 1.3828 0.1602
2.1400 1.3962 0.1493
2.1600 1.4095 0.1642
2.1800 1.4228 0.1589
2.2000 1.4361 0.1526
2.2200 1.4495 0.1615
2.2400 1.4628 0.1553
2.2600 1.4761 0.1562
2.2800 1.4894 0.1593
2.3000 1.5027 0.1535
2.3200 1.5161 0.1533
2.3400 1.5294 0.1568
2.3600 1.5427 0.1536
2.3800 1.5561 0.1520
2.4000 1.5695 0.1543
2.4200 1.5828 0.1520
2.4400 1.5961 0.1519
2.4600 1.6094 0.1562
2.4800 1.6228 0.1504
2.5000 1.6360 0.1555
2.5200 1.6493 0.1576
2.5400 1.6627 0.1513
2.5600 1.6761 0.1520
2.5800 1.6895 0.1593
2.6000 1.7028 0.1480
2.6200 1.7161 0.1545
2.6400 1.7295 0.1555
2.6600 1.7428 0.1443
2.6800 1.7561 0.1537
2.7000 1.7694 0.1548
2.7200 1.7827 0.1510
2.7400 1.7961 0.1514
2.7600 1.8094 0.1454
2.7800 1.8227 0.1478
2.8000 1.8360 0.1492
2.8200 1.8494 0.1471
2.8400 1.8628 0.1463
2.8600 1.8761 0.1485
2.8800 1.8895 0.1413
2.9000 1.9028 0.1515
2.9200 1.9161 0.1457
2.9400 1.9295 0.1373
2.9600 1.9428 0.1566
2.9800 1.9561 0.1398
3.0000 1.9694 0.1381
3.0200 1.9828 0.1576
3.0400 1.9961 0.1407
3.0600 2.0094 0.1390
3.0800 2.0227 0.1504
3.1000 2.0360 0.1417
3.1200 2.0494 0.1433
3.1400 2.0627 0.1458
3.1600 2.0761 0.1409
3.1800 2.0894 0.1459
3.2000 2.1028 0.1459
3.2200 2.1162 0.1350
3.2400 2.1295 0.1466
3.2600 2.1428 0.1416
3.2800 2.1562 0.1378
3.3000 2.1695 0.1462
3.3200 2.1828 0.1397
3.3400 2.1961 0.1388
3.3600 2.2094 0.1392
3.3800 2.2228 0.1417
3.4000 2.2361 0.1390
3.4200 2.2494 0.1404
3.4400 2.2627 0.1401
3.4600 2.2760 0.1375
3.4800 2.2894 0.1385
3.5000 2.3028 0.1411
3.5200 2.3161 0.1437
3.5400 2.3294 0.1368
3.5600 2.3428 0.1355
3.5800 2.3561 0.1426
3.6000 2.3695 0.1369
3.6200 2.3828 0.1373
3.6400 2.3962 0.1412
3.6600 2.4095 0.1335
3.6800 2.4228 0.1393
3.7000 2.4361 0.1367
3.7200 2.4494 0.1366
3.7400 2.4628 0.1377
3.7600 2.4761 0.1386
3.7800 2.4894 0.1308
3.8000 2.5027 0.1380
3.8200 2.5160 0.1448
3.8400 2.5294 0.1306
3.8600 2.5427 0.1334
3.8800 2.5560 0.1409
3.9000 2.5694 0.1392
3.9200 2.5828 0.1305
3.9400 2.5962 0.1366
3.9600 2.6095 0.1395
3.9800 2.6228 0.1324
4.0000 2.6361 0.1353
4.0200 2.6495 0.1365
4.0400 2.6628 0.1321
4.0600 2.6761 0.1372
4.0800 2.6894 0.1308
4.1000 2.7028 0.1304
4.1200 2.7161 0.1422
4.1400 2.7294 0.1334
4.1600 2.7427 0.1248
4.1800 2.7561 0.1396
4.2000 2.7694 0.1292
4.2200 2.7827 0.1241
4.2400 2.7960 0.1399
4.2600 2.8094 0.1289
4.2800 2.8228 0.1222
4.3000 2.8362 0.1397
4.3200 2.8495 0.1270
4.3400 2.8628 0.1290
4.3600 2.8761 0.1376
4.3800 2.8895 0.1227
4.4000 2.9028 0.1262
4.4200 2.9161 0.1360
4.4400 2.9294 0.1249
4.4600 2.9427 0.1282
4.4800 2.9561 0.1329
4.5000 2.9694 0.1176
4.5200 2.9827 0.1327
4.5400 2.9961 0.1327
4.5600 3.0094 0.1181
4.5800 3.0227 0.1260
4.6000 3.0361 0.1355
4.6200 3.0494 0.1218
4.6400 3.0628 0.1281
4.6600 3.0761 0.1318
4.6800 3.0894 0.1156
4.7000 3.1028 0.1290
4.7200 3.1161 0.1287
4.7400 3.1295 0.1175
4.7600 3.1428 0.1284
4.7800 3.1561 0.1300
4.8000 3.1695 0.1226
4.8200 3.1828 0.1214
4.8400 3.1961 0.1277
4.8600 3.2094 0.1150
4.8800 3.2227 0.1198
4.9000 3.2360 0.1318
4.9200 3.2493 0.1173
4.9400 3.2626 0.1201
4.9600 3.2760 0.1268
4.9800 3.2894 0.1145
5.0000 3.3028 0.1217
5.0200 3.3162 0.1301
5.0400 3.3295 0.1117
5.0600 3.3429 0.1201
5.0800 3.3562 0.1281
5.1000 3.3695 0.1138
5.1200 3.3828 0.1229
5.1400 3.3961 0.1231
5.1600 3.4094 0.1103
5.1800 3.4227 0.1242
5.2000 3.4361 0.1197
5.2200 3.4494 0.1051
5.2400 3.4627 0.1279
5.2600 3.4760 0.1201
5.2800 3.4894 0.1032
5.3000 3.5027 0.1175
5.3200 3.5160 0.1175
5.3400 3.5294 0.1167
5.3600 3.5428 0.1139
5.3800 3.5561 0.1172
5.4000 3.5695 0.1173
5.4200 3.5828 0.1136
5.4400 3.5961 0.1150
5.4600 3.6095 0.1176
5.4800 3.6228 0.1127
5.5000 3.6361 0.1165
5.5200 3.6494 0.1150
5.5400 3.6627 0.1137
5.5600 3.6761 0.1202
5.5800 3.6894 0.1146
5.6000 3.7027 0.1123
5.6200 3.7160 0.1212
5.6400 3.7294 0.1126
5.6600 3.7428 0.1156
5.6800 3.7561 0.1166
5.7000 3.7694 0.1107
5.7200 3.7828 0.1185
5.7400 3.7961 0.1165
5.7600 3.8095 0.1040
5.7800 3.8228 0.1191
5.8000 3.8361 0.1218
5.8200 3.8495 0.1020
5.8400 3.8628 0.1141
5.8600 3.8761 0.1224
5.8800 3.8894 0.1034
5.9000 3.9028 0.1138
5.9200 3.9161 0.1179
5.9400 3.9294 0.1027
5.9600 3.9427 0.1116
5.9800 3.9560 0.1190
6.0000 3.9694 0.1047
6.0200 3.9828 0.1074
6.0400 3.9961 0.1191
6.0600 4.0094 0.1020
6.0800 4.0228 0.1061
6.1000 4.0362 0.1205
6.1200 4.0495 0.0978
6.1400 4.0628 0.1018
6.1600 4.0761 0.1209
6.1800 4.0895 0.1040
6.2000 4.1028 0.1014
6.2200 4.1161 0.1167
6.2400 4.1294 0.1047
6.2600 4.1428 0.1024
6.2800 4.1561 0.1153
6.3000 4.1694 0.1007
6.3200 4.1827 0.1058
6.3400 4.1961 0.1150
6.3600 4.2094 0.1033
6.3800 4.2227 0.1030
6.4000 4.2360 0.1151
6.4200 4.2494 0.1014
6.4400 4.2627 0.1080
6.4600 4.2761 0.1051
6.4800 4.2895 0.0997
6.5000 4.3028 0.1111
6.5200 4.3161 0.1033
6.5400 4.3295 0.0993
6.5600 4.3428 0.1097
6.5800 4.3561 0.0991
6.6000 4.3694 0.0999
6.6200 4.3828 0.1146
6.6400 4.3961 0.0941
6.6600 4.4094 0.1039
6.6800 4.4227 0.1115
6.7000 4.4360 0.0909
6.7200 4.4494 0.1081
6.7400 4.4627 0.1084
6.7600 4.4761 0.0893
6.7800 4.4894 0.1073
6.8000 4.5027 0.1058
6.8200 4.5161 0.0917
6.8400 4.5295 0.1129
6.8600 4.5428 0.1052
6.8800 4.5561 0.0886
6.9000 4.5695 0.1143
6.9200 4.5828 0.0983
6.9400 4.5961 0.0935
6.9600 4.6094 0.1175
6.9800 4.6227 0.0980
7.0000 4.6361 0.0928
7.0200 4.6494 0.1092
7.0400 4.6627 0.0938
7.0600 4.6760 0.0979
7.0800 4.6893 0.1105
7.1000 4.7027 0.0942
7.1200 4.7160 0.0926
7.1400 4.7294 0.1088
7.1600 4.7428 0.0941
7.1800 4.7562 0.0937
7.2000 4.7695 0.1087
7.2200 4.7829 0.0934
7.2400 4.7962 0.0976
7.2600 4.8095 0.1029
7.2800 4.8228 0.0905
7.3000 4.8361 0.0973
7.3200 4.8493 0.1014
7.3400 4.8626 0.0902
7.3600 4.8760 0.0952
7.3800 4.8894 0.1019
7.4000 4.9027 0.0883
7.4200 4.9161 0.1007
7.4400 4.9294 0.0994
7.4600 4.9428 0.0859
7.4800 4.9561 0.1025
7.5000 4.9695 0.1083
7.5200 4.9828 0.0857
7.5400 4.9962 0.0923
7.5600 5.0095 0.1080
7.5800 5.0228 0.0859
7.6000 5.0361 0.0930
7.6200 5.0495 0.1083
7.6400 5.0628 0.0858
7.6600 5.0761 0.0981
7.6800 5.0894 0.1045
7.7000 5.1027 0.0806
7.7200 5.1161 0.0980
7.7400 5.1294 0.1085
7.7600 5.1427 0.0807
7.7800 5.1560 0.0896
7.8000 5.1694 0.1109
7.8200 5.1827 0.0815
7.8400 5.1961 0.0957
7.8600 5.2094 0.0990
7.8800 5.2228 0.0796
7.9000 5.2361 0.0985
7.9200 5.2495 0.0936
7.9400 5.2628 0.0798
7.9600 5.2761 0.1050
7.9800 5.2895 0.0930
8.0000 5.3028 0.0800
8.0200 5.3161 0.0959
8.0400 5.3294 0.0948
8.0600 5.3428 0.0839
8.0800 5.3561 0.0976
8.1000 5.3694 0.0883
8.1200 5.3827 0.0879
8.1400 5.3960 0.0992
8.1600 5.4094 0.0870
8.1800 5.4227 0.0932
8.2000 5.4361 0.0955
8.2200 5.4494 0.0822
8.2400 5.4627 0.0944
8.2600 5.4761 0.0955
8.2800 5.4895 0.0844
8.3000 5.5028 0.0912
8.3200 5.5161 0.0929
8.3400 5.5295 0.0847
8.3600 5.5428 0.1022
8.3800 5.5561 0.0876
8.4000 5.5694 0.0837
8.4200 5.5827 0.1033
8.4400 5.5961 0.0807
8.4600 5.6094 0.0850
8.4800 5.6227 0.1002
8.5000 5.6361 0.0795
8.5200 5.6494 0.0849
8.5400 5.6628 0.0992
8.5600 5.6761 0.0745
8.5800 5.6894 0.0879
8.6000 5.7027 0.1019
8.6200 5.7161 0.0728
8.6400 5.7295 0.0860
8.6600 5.7428 0.0958
8.6800 5.7561 0.0739
8.7000 5.7695 0.0905
8.7200 5.7828 0.0958
8.7400 5.7962 0.0773
8.7600 5.8095 0.0863
8.7800 5.8227 0.0966
8.8000 5.8361 0.0737
8.8200 5.8494 0.0874
8.8400 5.8627 0.0966
8.8600 5.8760 0.0730
8.8800 5.8894 0.0877
8.9000 5.9027 0.0933
8.9200 5.9161 0.0794
8.9400 5.9294 0.0855
8.9600 5.9428 0.0923
8.9800 5.9562 0.0783
9.0000 5.9695 0.0785
9.0200 5.9828 0.0918
9.0400 5.9961 0.0756
9.0600 6.0095 0.0810
9.0800 6.0228 0.0942
9.1000 6.0361 0.0708
9.1200 6.0494 0.0819
9.1400 6.0627 0.0917
9.1600 6.0761 0.0736
9.1800 6.0894 0.0775
9.2000 6.1027 0.0879
9.2200 6.1160 0.0710
9.2400 6.1294 0.0769
9.2600 6.1427 0.0888
9.2800 6.1560 0.0697
9.3000 6.1694 0.0752
9.3200 6.1827 0.0882
9.3400 6.1961 0.0690
9.3600 6.2095 0.0778
9.3800 6.2228 0.0809
9.4000 6.2362 0.0666
9.4200 6.2495 0.0764
9.4400 6.2628 0.0833
9.4600 6.2761 0.0695
9.4800 6.2894 0.0720
9.5000 6.3027 0.0825
9.5200 6.3160 0.0697
9.5400 6.3294 0.0717
9.5600 6.3427 0.0826
9.5800 6.3561 0.0683
9.6000 6.3694 0.0732
9.6200 6.3828 0.0759
9.6400 6.3961 0.0694
9.6600 6.4094 0.0733
9.6800 6.4228 0.0773
9.7000 6.4361 0.0653
9.7200 6.4495 0.0695
9.7400 6.4628 0.0746
9.7600 6.4761 0.0659
9.7800 6.4894 0.0731
9.8000 6.5028 0.0726
9.8200 6.5161 0.0669
9.8400 6.5295 0.0731
9.8600 6.5428 0.0750
9.8800 6.5561 0.0700
9.9000 6.5695 0.0660
9.9200 6.5828 0.0714
9.9400 6.5961 0.0700
9.9600 6.6094 0.0655
9.9800 6.6227 0.0703
10.0000 6.6361 0.0675
10.0200 6.6494 0.0718
10.0400 6.6627 0.0651
10.0600 6.6761 0.0644
10.0800 6.6895 0.0710
10.1000 6.7028 0.0684
10.1200 6.7161 0.0669
10.1400 6.7295 0.0688
10.1600 6.7428 0.0666
10.1800 6.7562 0.0652
10.2000 6.7695 0.0697
10.2200 6.7828 0.0696
10.2400 6.7961 0.0679
10.2600 6.8094 0.0672
10.2800 6.8228 0.0641
10.3000 6.8361 0.0667
10.3200 6.8494 0.0703
10.3400 6.8627 0.0654
10.3600 6.8761 0.0662
10.3800 6.8894 0.0687
10.4000 6.9027 0.0629
10.4200 6.9161 0.0661
10.4400 6.9295 0.0670
10.4600 6.9428 0.0695
10.4800 6.9561 0.0622
10.5000 6.9695 0.0697
10.5200 6.9828 0.0698
10.5400 6.9961 0.0615
10.5600 7.0094 0.0712
10.5800 7.0227 0.0706
10.6000 7.0361 0.0619
10.6200 7.0494 0.0667
10.6400 7.0627 0.0711
10.6600 7.0760 0.0666
10.6800 7.0894 0.0705
10.7000 7.1027 0.0675
10.7200 7.1161 0.0610
10.7400 7.1294 0.0725
10.7600 7.1427 0.0689
10.7800 7.1561 0.0587
10.8000 7.1695 0.0738
10.8200 7.1828 0.0625
10.8400 7.1961 0.0579
10.8600 7.2094 0.0722
10.8800 7.2228 0.0650
10.9000 7.2362 0.0573
10.9200 7.2495 0.0651
10.9400 7.2628 0.0608
10.9600 7.2761 0.0638
10.9800 7.2894 0.0685
11.0000 7.3027 0.0553
11.0200 7.3160 0.0626
11.0400 7.3293 0.0635
11.0600 7.3427 0.0554
11.0800 7.3561 0.0666
11.1000 7.3694 0.0577
11.1200 7.3827 0.0539
11.1400 7.3961 0.0654
11.1600 7.4095 0.0559
11.1800 7.4228 0.0587
11.2000 7.4361 0.0637
11.2200 7.4494 0.0528
11.2400 7.4628 0.0599
11.2600 7.4762 0.0628
11.2800 7.4895 0.0535
11.3000 7.5028 0.0575
11.3200 7.5161 0.0619
11.3400 7.5294 0.0484
11.3600 7.5428 0.0549
11.3800 7.5561 0.0621
11.4000 7.5694 0.0513
11.4200 7.5827 0.0538
11.4400 7.5961 0.0562
11.4600 7.6094 0.0538
11.4800 7.6227 0.0527
11.5000 7.6361 0.0554
11.5200 7.6495 0.0530
11.5400 7.6628 0.0500
11.5600 7.6761 0.0530
11.5800 7.6895 0.0547
11.6000 7.7028 0.0472
11.6200 7.7162 0.0575
11.6400 7.7295 0.0555
11.6600 7.7427 0.0485
11.6800 7.7561 0.0550
11.7000 7.7694 0.0513
11.7200 7.7827 0.0470
11.7400 7.7960 0.0620
11.7600 7.8094 0.0525
11.7800 7.8227 0.0478
11.8000 7.8361 0.0581
11.8200 7.8494 0.0513
11.8400 7.8627 0.0476
11.8600 7.8761 0.0626
11.8800 7.8894 0.0493
11.9000 7.9028 0.0458
11.9200 7.9161 0.0599
11.9400 7.9294 0.0530
11.9600 7.9428 0.0485
11.9800 7.9562 0.0585
12.0000 7.9695 0.0495
12.0200 7.9828 0.0519
12.0400 7.9961 0.0595
12.0600 8.0095 0.0482
12.0800 8.0228 0.0506
12.1000 8.0361 0.0548
12.1200 8.0493 0.0460
12.1400 8.0626 0.0511
12.1600 8.0760 0.0572
12.1800 8.0893 0.0492
12.2000 8.1027 0.0503
12.2200 8.1161 0.0569
12.2400 8.1295 0.0526
12.2600 8.1429 0.0439
12.2800 8.1562 0.0571
12.3000 8.1695 0.0518
12.3200 8.1829 0.0448
12.3400 8.1962 0.0557
12.3600 8.2095 0.0520
12.3800 8.2228 0.0460
12.4000 8.2361 0.0607
12.4200 8.2494 0.0505
12.4400 8.2628 0.0472
12.4600 8.2761 0.0583
12.4800 8.2893 0.0510
12.5000 8.3027 0.0482
12.5200 8.3160 0.0567
12.5400 8.3294 0.0444
12.5600 8.3427 0.0491
12.5800 8.3561 0.0551
12.6000 8.3695 0.0471
12.6200 8.3828 0.0512
12.6400 8.3962 0.0566
12.6600 8.4095 0.0467
12.6800 8.4228 0.0549
12.7000 8.4362 0.0511
12.7200 8.4495 0.0490
12.7400 8.4628 0.0541
12.7600 8.4761 0.0508
12.7800 8.4894 0.0578
12.8000 8.5027 0.0506
12.8200 8.5160 0.0461
12.8400 8.5293 0.0552
12.8600 8.5427 0.0522
12.8800 8.5561 0.0469
12.9000 8.5694 0.0577
12.9200 8.5828 0.0464
12.9400 8.5961 0.0462
12.9600 8.6095 0.0638
12.9800 8.6228 0.0396
13.0000 8.6361 0.0459
13.0200 8.6494 0.0626
13.0400 8.6628 0.0382
13.0600 8.6761 0.0485
13.0800 8.6895 0.0606
13.1000 8.7028 0.0369
13.1200 8.7161 0.0478
13.1400 8.7295 0.0565
13.1600 8.7428 0.0340
13.1800 8.7561 0.0524
13.2000 8.7694 0.0541
13.2200 8.7827 0.0308
13.2400 8.7961 0.0498
13.2600 8.8094 0.0512
13.2800 8.8228 0.0335
13.3000 8.8361 0.0483
13.3200 8.8495 0.0472
13.3400 8.8629 0.0355
13.3600 8.8762 0.0467
13.3800 8.8895 0.0468
13.4000 8.9028 0.0347
13.4200 8.9162 0.0453
13.4400 8.9295 0.0431
13.4600 8.9428 0.0382
13.4800 8.9561 0.0455
13.5000 8.9694 0.0400
13.5200 8.9828 0.0372
13.5400 8.9961 0.0444
13.5600 9.0094 0.0432
13.5800 9.0227 0.0383
13.6000 9.0361 0.0411
13.6200 9.0494 0.0386
13.6400 9.0627 0.0422
13.6600 9.0760 0.0363
13.6800 9.0894 0.0372
13.7000 9.1028 0.0375
13.7200 9.1161 0.0323
13.7400 9.1295 0.0406
13.7600 9.1428 0.0352
13.7800 9.1562 0.0358
13.8000 9.1695 0.0391
13.8200 9.1828 0.0303
13.8400 9.1961 0.0367
13.8600 9.2094 0.0397
13.8800 9.2228 0.0302
13.9000 9.2361 0.0337
13.9200 9.2494 0.0393
13.9400 9.2627 0.0271
13.9600 9.2761 0.0321
13.9800 9.2894 0.0390
14.0000 9.3027 0.0204
14.0200 9.3161 0.0368
14.0400 9.3294 0.0388
14.0600 9.3428 0.0204
14.0800 9.3561 0.0341
14.1000 9.3694 0.0351
14.1200 9.3828 0.0235
14.1400 9.3961 0.0349
14.1600 9.4095 0.0316
14.1800 9.4228 0.0229
14.2000 9.4361 0.0372
14.2200 9.4495 0.0306
14.2400 9.4628 0.0305
14.2600 9.4761 0.0339
14.2800 9.4894 0.0266
14.3000 9.5027 0.0276
14.3200 9.5160 0.0314
14.3400 9.5294 0.0308
14.3600 9.5427 0.0279
14.3800 9.5561 0.0258
14.4000 9.5695 0.0303
14.4200 9.5829 0.0268
14.4400 9.5962 0.0194
14.4600 9.6095 0.0299
14.4800 9.6228 0.0359
14.5000 9.6362 0.0182
14.5200 9.6495 0.0303
14.5400 9.6627 0.0355
14.5600 9.6760 0.0198
14.5800 9.6893 0.0356
14.6000 9.7027 0.0297
14.6200 9.7160 0.0209
14.6400 9.7294 0.0367
14.6600 9.7427 0.0277
14.6800 9.7561 0.0217
14.7000 9.7695 0.0367
14.7200 9.7828 0.0260
14.7400 9.7961 0.0200
14.7600 9.8095 0.0339
14.7800 9.8229 0.0241
14.8000 9.8362 0.0238
14.8200 9.8495 0.0329
14.8400 9.8628 0.0227
14.8600 9.8761 0.0254
14.8800 9.8895 0.0333
14.9000 9.9028 0.0236
14.9200 9.9161 0.0238
14.9400 9.9294 0.0299
14.9600 9.9428 0.0243
14.9800 9.9561 0.0216
15.0000 9.9694 0.0283
15.0200 9.9827 0.0275
15.0400 9.9961 0.0245
15.0600 10.0094 0.0265
15.0800 10.0228 0.0261
15.1000 10.0361 0.0241
15.1200 10.0495 0.0216
15.1400 10.0628 0.0270
15.1600 10.0761 0.0191
15.1800 10.0895 0.0224
15.2000 10.1028 0.0308
15.2200 10.1162 0.0230
15.2400 10.1295 0.0187
15.2600 10.1428 0.0302
15.2800 10.1561 0.0221
15.3000 10.1694 0.0198
15.3200 10.1828 0.0319
15.3400 10.1961 0.0171
15.3600 10.2094 0.0233
15.3800 10.2227 0.0315
15.4000 10.2360 0.0170
15.4200 10.2494 0.0270
15.4400 10.2627 0.0299
15.4600 10.2761 0.0168
15.4800 10.2894 0.0276
15.5000 10.3028 0.0329
15.5200 10.3162 0.0158
15.5400 10.3295 0.0262
15.5600 10.3428 0.0285
15.5800 10.3562 0.0153
15.6000 10.3695 0.0298
15.6200 10.3828 0.0240
15.6400 10.3961 0.0159
15.6600 10.4094 0.0274
15.6800 10.4228 0.0224
15.7000 10.4361 0.0161
15.7200 10.4494 0.0265
15.7400 10.4627 0.0237
15.7600 10.4761 0.0198
15.7800 10.4894 0.0231
15.8000 10.5027 0.0243
15.8200 10.5161 0.0180
15.8400 10.5294 0.0240
15.8600 10.5428 0.0235
15.8800 10.5561 0.0179
15.9000 10.5694 0.0228
15.9200 10.5828 0.0246
15.9400 10.5961 0.0180
15.9600 10.6095 0.0255
15.9800 10.6228 0.0259
16.0000 10.6361 0.0147
16.0200 10.6494 0.0238
16.0400 10.6628 0.0297
16.0600 10.6761 0.0163
16.0800 10.6894 0.0273
16.1000 10.7027 0.0293
16.1200 10.7160 0.0138
16.1400 10.7294 0.0218
16.1600 10.7427 0.0330
16.1800 10.7561 0.0137
16.2000 10.7694 0.0234
16.2200 10.7828 0.0237
16.2400 10.7962 0.0176
16.2600 10.8095 0.0251
16.2800 10.8228 0.0249
16.3000 10.8361 0.0215
16.3200 10.8495 0.0195
16.3400 10.8628 0.0211
16.3600 10.8761 0.0217
16.3800 10.8894 0.0204
16.4000 10.9028 0.0250
16.4200 10.9161 0.0189
16.4400 10.9294 0.0162
16.4600 10.9427 0.0212
16.4800 10.9560 0.0156
16.5000 10.9694 0.0156
16.5200 10.9827 0.0220
16.5400 10.9961 0.0181
16.5600 11.0094 0.0168
16.5800 11.0228 0.0196
16.6000 11.0362 0.0153
16.6200 11.0495 0.0145
16.6400 11.0628 0.0210
16.6600 11.0761 0.0178
16.6800 11.0895 0.0130
16.7000 11.1028 0.0235
16.7200 11.1161 0.0116
16.7400 11.1294 0.0129
16.7600 11.1427 0.0207
16.7800 11.1561 0.0104
16.8000 11.1694 0.0187
16.8200 11.1827 0.0165
16.8400 11.1961 0.0134
16.8600 11.2095 0.0164
16.8800 11.2228 0.0183
16.9000 11.2361 0.0093
16.9200 11.2494 0.0149
16.9400 11.2628 0.0188
16.9600 11.2761 0.0030
16.9800 11.2894 0.0120
17.0000 11.3027 0.0209
17.0200 11.3161 0.0083
17.0400 11.3295 0.0108
17.0600 11.3428 0.0169
17.0800 11.3561 0.0085
17.1000 11.3695 0.0173
17.1200 11.3828 0.0161
17.1400 11.3962 0.0040
17.1600 11.4094 0.0193
17.1800 11.4227 0.0168
17.2000 11.4361 0.0079
17.2200 11.4494 0.0168
17.2400 11.4627 0.0115
17.2600 11.4761 0.0078
17.2800 11.4894 0.0174
17.3000 11.5028 0.0121
17.3200 11.5161 0.0078
17.3400 11.5294 0.0122
17.3600 11.5428 0.0122
17.3800 11.5561 0.0079
17.4000 11.5695 0.0158
17.4200 11.5828 0.0108
17.4400 11.5961 0.0043
17.4600 11.6094 0.0177
17.4800 11.6228 0.0107
17.5000 11.6361 0.0019
17.5200 11.6494 0.0177
17.5400 11.6627 0.0044
17.5600 11.6760 0.0025
17.5800 11.6894 0.0140
17.6000 11.7027 0.0074
17.6200 11.7161 0.0008
17.6400 11.7294 0.0146
17.6600 11.7428 0.0018
17.6800 11.7562 -0.0024
17.7000 11.7695 0.0124
17.7200 11.7828 -0.0036
17.7400 11.7961 0.0038
17.7600 11.8095 0.0135
17.7800 11.8228 -0.0056
17.8000 11.8361 0.0035
17.8200 11.8494 0.0128
17.8400 11.8627 0.0004
17.8600 11.8761 -0.0016
17.8800 11.8894 0.0139
17.9000 11.9027 0.0050
17.9200 11.9161 -0.0032
17.9400 11.9294 0.0069
17.9600 11.9428 0.0017
17.9800 11.9561 0.0023
18.0000 11.9694 0.0087
18.0200 11.9828 0.0016
18.0400 11.9961 0.0029
18.0600 12.0094 0.0086
18.0800 12.0228 0.0016
18.1000 12.0361 0.0063
18.1200 12.0495 0.0129
18.1400 12.0628 -0.0043
18.1600 12.0761 0.0097
18.1800 12.0894 0.0135
18.2000 12.1028 -0.0057
18.2200 12.1161 0.0092
18.2400 12.1294 0.0036
18.2600 12.1427 -0.0020
18.2800 12.1560 0.0119
18.3000 12.1694 0.0058
18.3200 12.1827 -0.0049
18.3400 12.1961 0.0105
18.3600 12.2094 0.0054
18.3800 12.2228 -0.0036
18.4000 12.2362 0.0118
18.4200 12.2495 -0.0007
18.4400 12.2628 0.0000
18.4600 12.2761 0.0137
18.4800 12.2895 -0.0028
18.5000 12.3028 0.0030
18.5200 12.3161 0.0118
18.5400 12.3294 0.0019
18.5600 12.3427 0.0014
18.5800 12.3561 0.0098
18.6000 12.3694 0.0015
18.6200 12.3828 -0.0003
18.6400 12.3961 0.0098
18.6600 12.4094 0.0055
18.6800 12.4227 -0.0011
18.7000 12.4361 0.0083
18.7200 12.4494 0.0048
18.7400 12.4628 -0.0002
18.7600 12.4762 0.0066
18.7800 12.4895 0.0031
18.8000 12.5028 -0.0027
18.8200 12.5161 0.0047
18.8400 12.5295 0.0027
18.8600 12.5428 -0.0043
18.8800 12.5561 0.0080
18.9000 12.5694 0.0038
18.9200 12.5827 -0.0049
18.9400 12.5961 0.0038
18.9600 12.6094 0.0026
18.9800 12.6227 -0.0067
19.0000 12.6360 0.0074
19.0200 12.6494 -0.0019
19.0400 12.6627 -0.0112
19.0600 12.6761 0.0081
19.0800 12.6894 -0.0002
19.1000 12.7028 -0.0124
19.1200 12.7161 0.0061
19.1400 12.7294 -0.0018
19.1600 12.7428 -0.0163
19.1800 12.7561 0.0031
19.2000 12.7695 -0.0001
19.2200 12.7828 -0.0158
19.2400 12.7961 0.0057
19.2600 12.8095 -0.0056
19.2800 12.8228 -0.0158
19.3000 12.8362 0.0053
19.3200 12.8495 -0.0076
19.3400 12.8627 -0.0148
19.3600 12.8760 0.0067
19.3800 12.8893 -0.0078
19.4000 12.9027 -0.0177
19.4200 12.9160 -0.0005
19.4400 12.9294 -0.0064
19.4600 12.9428 -0.0137
19.4800 12.9562 -0.0032
19.5000 12.9695 -0.0094
19.5200 12.9828 -0.0120
19.5400 12.9962 0.0000
19.5600 13.0095 -0.0088
19.5800 13.0229 -0.0110
19.6000 13.0361 -0.0050
19.6200 13.0494 -0.0086
19.6400 13.0627 -0.0078
19.6600 13.0761 -0.0072
19.6800 13.0894 -0.0107
19.7000 13.1027 -0.0087
19.7200 13.1160 -0.0021
19.7400 13.1294 -0.0122
19.7600 13.1427 -0.0081
19.7800 13.1560 -0.0028
19.8000 13.1694 -0.0119
19.8200 13.1828 -0.0070
19.8400 13.1962 -0.0045
19.8600 13.2095 -0.0064
19.8800 13.2228 -0.0083
19.9000 13.2361 -0.0010
19.9200 13.2495 -0.0080
19.9400 13.2628 -0.0088
19.9600 13.2761 0.0001
19.9800 13.2894 -0.0037
20.0000 13.3028 -0.0082
20.0200 13.3161 -0.0037
20.0400 13.3294 -0.0064
20.0600 13.3427 -0.0061
20.0800 13.3560 -0.0020
20.1000 13.3694 -0.0091
20.1200 13.3828 -0.0082
20.1400 13.3961 -0.0019
20.1600 13.4094 -0.0051
20.1800 13.4228 -0.0072
20.2000 13.4362 -0.0057
20.2200 13.4495 -0.0076
20.2400 13.4628 -0.0091
20.2600 13.4761 -0.0057
20.2800 13.4895 -0.0085
20.3000 13.5028 -0.0062
20.3200 13.5161 -0.0035
20.3400 13.5294 -0.0063
20.3600 13.5428 -0.0061
20.3800 13.5561 -0.0004
20.4000 13.5694 -0.0091
20.4200 13.5827 -0.0065
20.4400 13.5960 -0.0032
20.4600 13.6094 -0.0102
20.4800 13.6228 -0.0069
20.5000 13.6361 -0.0078
20.5200 13.6494 -0.0096
20.5400 13.6628 -0.0104
20.5600 13.6762 -0.0103
20.5800 13.6895 -0.0085
20.6000 13.7028 -0.0109
20.6200 13.7161 -0.0052
20.6400 13.7295 -0.0097
20.6600 13.7428 -0.0151
20.6800 13.7561 -0.0080
20.7000 13.7694 -0.0127
20.7200 13.7827 -0.0143
20.7400 13.7961 -0.0065
20.7600 13.8094 -0.0112
20.7800 13.8227 -0.0202
20.8000 13.8361 -0.0079
20.8200 13.8494 -0.0111
20.8400 13.8627 -0.0186
20.8600 13.8761 -0.0072
20.8800 13.8894 -0.0146
20.9000 13.9028 -0.0214
20.9200 13.9161 -0.0056
20.9400 13.9295 -0.0175
20.9600 13.9428 -0.0210
20.9800 13.9561 -0.0056
21.0000 13.9695 -0.0174
21.0200 13.9829 -0.0178
21.0400 13.9962 -0.0090
21.0600 14.0094 -0.0188
21.0800 14.0227 -0.0154
21.1000 14.0361 -0.0119
21.1200 14.0494 -0.0213
21.1400 14.0627 -0.0129
21.1600 14.0760 -0.0136
21.1800 14.0894 -0.0180
21.2000 14.1027 -0.0139
21.2200 14.1160 -0.0127
21.2400 14.1294 -0.0171
21.2600 14.1428 -0.0118
21.2800 14.1561 -0.0140
21.3000 14.1695 -0.0160
21.3200 14.1828 -0.0102
21.3400 14.1961 -0.0178
21.3600 14.2095 -0.0147
21.3800 14.2228 -0.0115
21.4000 14.2361 -0.0132
21.4200 14.2494 -0.0129
21.4400 14.2628 -0.0110
21.4600 14.2761 -0.0130
21.4800 14.2894 -0.0177
21.5000 14.3027 -0.0083
21.5200 14.3160 -0.0125
21.5400 14.3293 -0.0161
21.5600 14.3427 -0.0114
21.5800 14.3560 -0.0101
21.6000 14.3694 -0.0154
21.6200 14.3827 -0.0099
21.6400 14.3962 -0.0118
21.6600 14.4095 -0.0158
21.6800 14.4229 -0.0141
21.7000 14.4362 -0.0121
21.7200 14.4495 -0.0140
21.7400 14.4628 -0.0082
21.7600 14.4761 -0.0160
21.7800 14.4894 -0.0146
21.8000 14.5027 -0.0034
21.8200 14.5160 -0.0141
21.8400 14.5294 -0.0162
21.8600 14.5427 -0.0051
21.8800 14.5560 -0.0156
21.9000 14.5694 -0.0132
21.9200 14.5828 -0.0044
21.9400 14.5961 -0.0173
21.9600 14.6095 -0.0175
21.9800 14.6228 -0.0066
22.0000 14.6362 -0.0200
22.0200 14.6495 -0.0130
22.0400 14.6628 -0.0109
22.0600 14.6761 -0.0224
22.0800 14.6894 -0.0115
22.1000 14.7028 -0.0127
22.1200 14.7161 -0.0221
22.1400 14.7294 -0.0122
22.1600 14.7427 -0.0118
22.1800 14.7561 -0.0237
22.2000 14.7694 -0.0144
22.2200 14.7827 -0.0192
22.2400 14.7960 -0.0234
22.2600 14.8094 -0.0157
22.2800 14.8228 -0.0204
22.3000 14.8361 -0.0245
22.3200 14.8494 -0.0153
22.3400 14.8628 -0.0195
22.3600 14.8762 -0.0276
22.3800 14.8895 -0.0203
22.4000 14.9028 -0.0246
22.4200 14.9161 -0.0254
22.4400 14.9295 -0.0186
22.4600 14.9428 -0.0249
22.4800 14.9562 -0.0225
22.5000 14.9694 -0.0250
22.5200 14.9828 -0.0186
22.5400 14.9961 -0.0251
22.5600 15.0094 -0.0304
22.5800 15.0227 -0.0169
22.6000 15.0360 -0.0252
22.6200 15.0494 -0.0311
22.6400 15.0627 -0.0150
22.6600 15.0761 -0.0274
22.6800 15.0894 -0.0307
22.7000 15.1027 -0.0148
22.7200 15.1161 -0.0323
22.7400 15.1295 -0.0317
22.7600 15.1428 -0.0152
22.7800 15.1562 -0.0354
22.8000 15.1695 -0.0328
22.8200 15.1828 -0.0206
22.8400 15.1961 -0.0383
22.8600 15.2094 -0.0286
22.8800 15.2227 -0.0216
22.9000 15.2361 -0.0365
22.9200 15.2494 -0.0360
22.9400 15.2627 -0.0259
22.9600 15.2761 -0.0368
22.9800 15.2894 -0.0335
23.0000 15.3027 -0.0249
23.0200 15.3161 -0.0386
23.0400 15.3294 -0.0299
23.0600 15.3427 -0.0303
23.0800 15.3561 -0.0351
23.1000 15.3695 -0.0307
23.1200 15.3828 -0.0337
23.1400 15.3961 -0.0361
23.1600 15.4095 -0.0393
23.1800 15.4228 -0.0331
23.2000 15.4362 -0.0383
23.2200 15.4495 -0.0343
23.2400 15.4628 -0.0338
23.2600 15.4761 -0.0378
23.2800 15.4894 -0.0389
23.3000 15.5027 -0.0362
23.3200 15.5160 -0.0324
23.3400 15.5293 -0.0411
23.3600 15.5427 -0.0341
23.3800 15.5561 -0.0330
23.4000 15.5694 -0.0484
23.4200 15.5828 -0.0267
23.4400 15.5962 -0.0390
23.4600 15.6095 -0.0500
23.4800 15.6228 -0.0321
23.5000 15.6361 -0.0365
23.5200 15.6495 -0.0467
23.5400 15.6628 -0.0312
23.5600 15.6762 -0.0376
23.5800 15.6895 -0.0485
23.6000 15.7028 -0.0321
23.6200 15.7161 -0.0421
23.6400 15.7294 -0.0483
23.6600 15.7427 -0.0332
23.6800 15.7560 -0.0417
23.7000 15.7694 -0.0414
23.7200 15.7827 -0.0386
23.7400 15.7960 -0.0453
23.7600 15.8094 -0.0412
23.7800 15.8227 -0.0334
23.8000 15.8361 -0.0459
23.8200 15.8495 -0.0447
23.8400 15.8628 -0.0330
23.8600 15.8761 -0.0461
23.8800 15.8895 -0.0413
23.9000 15.9028 -0.0356
23.9200 15.9161 -0.0434
23.9400 15.9294 -0.0422
23.9600 15.9427 -0.0365
23.9800 15.9561 -0.0388
24.0000 15.9694 -0.0436
24.0200 15.9827 -0.0347
24.0400 15.9961 -0.0409
24.0600 16.0094 -0.0455
24.0800 16.0228 -0.0369
24.1000 16.0361 -0.0400
24.1200 16.0494 -0.0496
24.1400 16.0628 -0.0404
24.1600 16.0761 -0.0375
24.1800 16.0894 -0.0525
24.2000 16.1027 -0.0373
24.2200 16.1160 -0.0378
24.2400 16.1294 -0.0514
24.2600 16.1428 -0.0310
24.2800 16.1561 -0.0408
24.3000 16.1695 -0.0504
24.3200 16.1828 -0.0278
24.3400 16.1961 -0.0434
24.3600 16.2095 -0.0514
24.3800 16.2228 -0.0347
24.4000 16.2361 -0.0379
24.4200 16.2494 -0.0469
24.4400 16.2627 -0.0326
24.4600 16.2761 -0.0452
24.4800 16.2894 -0.0428
24.5000 16.3027 -0.0268
24.5200 16.3161 -0.0430
24.5400 16.3295 -0.0427
24.5600 16.3428 -0.0332
24.5800 16.3561 -0.0391
24.6000 16.3694 -0.0420
24.6200 16.3828 -0.0343
24.6400 16.3962 -0.0371
24.6600 16.4095 -0.0398
24.6800 16.4228 -0.0363
24.7000 16.4361 -0.0379
24.7200 16.4495 -0.0410
24.7400 16.4628 -0.0413
24.7600 16.4761 -0.0349
24.7800 16.4894 -0.0409
24.8000 16.5027 -0.0429
24.8200 16.5161 -0.0341
24.8400 16.5294 -0.0447
24.8600 16.5427 -0.0427
24.8800 16.5561 -0.0319
24.9000 16.5695 -0.0493
24.9200 16.5828 -0.0448
24.9400 16.5961 -0.0337
24.9600 16.6095 -0.0455
24.9800 16.6228 -0.0420
25.0000 16.6362 -0.0363
25.0200 16.6495 -0.0484
25.0400 16.6628 -0.0409
25.0600 16.6761 -0.0344
25.0800 16.6894 -0.0511
25.1000 16.7027 -0.0393
25.1200 16.7160 -0.0388
25.1400 16.7294 -0.0523
25.1600 16.7427 -0.0417
25.1800 16.7561 -0.0380
25.2000 16.7694 -0.0522
25.2200 16.7827 -0.0436
25.2400 16.7961 -0.0402
25.2600 16.8094 -0.0544
25.2800 16.8228 -0.0428
25.3000 16.8361 -0.0396
25.3200 16.8495 -0.0540
25.3400 16.8628 -0.0402
25.3600 16.8762 -0.0395
25.3800 16.8895 -0.0537
25.4000 16.9028 -0.0434
25.4200 16.9161 -0.0409
25.4400 16.9294 -0.0500
25.4600 16.9428 -0.0447
25.4800 16.9560 -0.0461
25.5000 16.9693 -0.0522
25.5200 16.9826 -0.0432
25.5400 16.9960 -0.0498
25.5600 17.0093 -0.0513
25.5800 17.0227 -0.0444
25.6000 17.0361 -0.0549
25.6200 17.0495 -0.0563
25.6400 17.0628 -0.0462
25.6600 17.0761 -0.0532
25.6800 17.0894 -0.0573
25.7000 17.1028 -0.0510
25.7200 17.1161 -0.0541
25.7400 17.1294 -0.0590
25.7600 17.1427 -0.0495
25.7800 17.1561 -0.0602
25.8000 17.1694 -0.0577
25.8200 17.1828 -0.0475
25.8400 17.1961 -0.0609
25.8600 17.2094 -0.0526
25.8800 17.2227 -0.0496
25.9000 17.2361 -0.0652
25.9200 17.2494 -0.0486
25.9400 17.2627 -0.0540
25.9600 17.2761 -0.0596
25.9800 17.2895 -0.0473
26.0000 17.3028 -0.0560
26.0200 17.3161 -0.0576
26.0400 17.3295 -0.0410
26.0600 17.3428 -0.0601
26.0800 17.3562 -0.0592
26.1000 17.3695 -0.0437
26.1200 17.3828 -0.0623
26.1400 17.3961 -0.0542
26.1600 17.4094 -0.0443
26.1800 17.4227 -0.0596
26.2000 17.4361 -0.0562
26.2200 17.4494 -0.0514
26.2400 17.4627 -0.0586
26.2600 17.4761 -0.0529
26.2800 17.4894 -0.0529
26.3000 17.5028 -0.0604
26.3200 17.5161 -0.0500
26.3400 17.5294 -0.0527
26.3600 17.5428 -0.0591
26.3800 17.5561 -0.0477
26.4000 17.5694 -0.0518
26.4200 17.5828 -0.0568
26.4400 17.5961 -0.0503
26.4600 17.6095 -0.0510
26.4800 17.6228 -0.0575
26.5000 17.6361 -0.0503
26.5200 17.6495 -0.0478
26.5400 17.6628 -0.0597
26.5600 17.6761 -0.0548
26.5800 17.6893 -0.0501
26.6000 17.7026 -0.0571
26.6200 17.7160 -0.0548
26.6400 17.7293 -0.0509
26.6600 17.7427 -0.0608
26.6800 17.7561 -0.0617
26.7000 17.7695 -0.0470
26.7200 17.7828 -0.0627
26.7400 17.7962 -0.0613
26.7600 17.8095 -0.0427
26.7800 17.8228 -0.0672
26.8000 17.8362 -0.0615
26.8200 17.8495 -0.0464
26.8400 17.8628 -0.0726
26.8600 17.8761 -0.0532
26.8800 17.8894 -0.0479
26.9000 17.9027 -0.0739
26.9200 17.9160 -0.0542
26.9400 17.9293 -0.0503
26.9600 17.9427 -0.0742
26.9800 17.9560 -0.0514
27.0000 17.9694 -0.0520
27.0200 17.9827 -0.0733
27.0400 17.9961 -0.0542
27.0600 18.0095 -0.0583
27.0800 18.0228 -0.0747
27.1000 18.0362 -0.0506
27.1200 18.0495 -0.0596
27.1400 18.0628 -0.0751
27.1600 18.0762 -0.0486
27.1800 18.0895 -0.0656
27.2000 18.1028 -0.0718
27.2200 18.1161 -0.0473
27.2400 18.1294 -0.0651
27.2600 18.1428 -0.0751
27.2800 18.1561 -0.0534
27.3000 18.1694 -0.0649
27.3200 18.1827 -0.0701
27.3400 18.1961 -0.0579
27.3600 18.2094 -0.0713
27.3800 18.2228 -0.0708
27.4000 18.2361 -0.0566
27.4200 18.2495 -0.0744
27.4400 18.2628 -0.0693
27.4600 18.2761 -0.0603
27.4800 18.2895 -0.0737
27.5000 18.3028 -0.0721
27.5200 18.3161 -0.0613
27.5400 18.3295 -0.0711
27.5600 18.3428 -0.0709
27.5800 18.3561 -0.0685
27.6000 18.3695 -0.0697
27.6200 18.3828 -0.0723
27.6400 18.3961 -0.0727
27.6600 18.4094 -0.0673
27.6800 18.4227 -0.0680
27.7000 18.4361 -0.0748
27.7200 18.4494 -0.0720
27.7400 18.4627 -0.0713
27.7600 18.4761 -0.0717
27.7800 18.4895 -0.0697
27.8000 18.5028 -0.0765
27.8200 18.5162 -0.0714
27.8400 18.5295 -0.0689
27.8600 18.5428 -0.0812
27.8800 18.5561 -0.0750
27.9000 18.5695 -0.0672
27.9200 18.5827 -0.0818
27.9400 18.5961 -0.0729
27.9600 18.6094 -0.0706
27.9800 18.6228 -0.0770
28.0000 18.6361 -0.0716
28.0200 18.6494 -0.0744
28.0400 18.6627 -0.0782
28.0600 18.6761 -0.0720
28.0800 18.6894 -0.0747
28.1000 18.7027 -0.0775
28.1200 18.7161 -0.0672
28.1400 18.7294 -0.0738
28.1600 18.7428 -0.0808
28.1800 18.7561 -0.0700
28.2000 18.7695 -0.0693
28.2200 18.7828 -0.0736
28.2400 18.7962 -0.0714
28.2600 18.8095 -0.0692
28.2800 18.8228 -0.0752
28.3000 18.8361 -0.0654
28.3200 18.8494 -0.0681
28.3400 18.8628 -0.0747
28.3600 18.8761 -0.0666
28.3800 18.8894 -0.0668
28.4000 18.9027 -0.0755
28.4200 18.9160 -0.0647
28.4400 18.9294 -0.0684
28.4600 18.9427 -0.0710
28.4800 18.9561 -0.0611
28.5000 18.9694 -0.0696
28.5200 18.9828 -0.0707
28.5400 18.9961 -0.0619
28.5600 19.0094 -0.0701
28.5800 19.0228 -0.0683
28.6000 19.0361 -0.0628
28.6200 19.0495 -0.0722
28.6400 19.0628 -0.0698
28.6600 19.0761 -0.0649
28.6800 19.0894 -0.0723
28.7000 19.1028 -0.0693
28.7200 19.1161 -0.0675
28.7400 19.1294 -0.0743
28.7600 19.1427 -0.0674
28.7800 19.1560 -0.0725
28.8000 19.1694 -0.0744
28.8200 19.1827 -0.0675
28.8400 19.1961 -0.0719
28.8600 19.2095 -0.0779
28.8800 19.2229 -0.0644
28.9000 19.2362 -0.0790
28.9200 19.2495 -0.0736
28.9400 19.2628 -0.0643
28.9600 19.2762 -0.0810
28.9800 19.2895 -0.0776
29.0000 19.3027 -0.0660
29.0200 19.3160 -0.0832
29.0400 19.3293 -0.0749
29.0600 19.3427 -0.0696
29.0800 19.3560 -0.0834
29.1000 19.3694 -0.0773
29.1200 19.3827 -0.0734
29.1400 19.3961 -0.0861
29.1600 19.4095 -0.0758
29.1800 19.4228 -0.0758
29.2000 19.4361 -0.0878
29.2200 19.4495 -0.0748
29.2400 19.4628 -0.0802
29.2600 19.4762 -0.0909
29.2800 19.4894 -0.0780
29.3000 19.5028 -0.0830
29.3200 19.5161 -0.0903
29.3400 19.5294 -0.0828
29.3600 19.5427 -0.0821
29.3800 19.5561 -0.0884
29.4000 19.5694 -0.0877
29.4200 19.5827 -0.0820
29.4400 19.5961 -0.0881
29.4600 19.6094 -0.0860
29.4800 19.6227 -0.0866
29.5000 19.6361 -0.0905
29.5200 19.6494 -0.0872
29.5400 19.6628 -0.0809
29.5600 19.6761 -0.0851
29.5800 19.6895 -0.0845
29.6000 19.7028 -0.0818
29.6200 19.7161 -0.0891
29.6400 19.7294 -0.0797
29.6600 19.7428 -0.0756
29.6800 19.7561 -0.0894
29.7000 19.7695 -0.0773
29.7200 19.7828 -0.0813
29.7400 19.7961 -0.0843
29.7600 19.8094 -0.0781
29.7800 19.8228 -0.0827
29.8000 19.8361 -0.0903
29.8200 19.8494 -0.0779
29.8400 19.8627 -0.0816
29.8600 19.8760 -0.0850
29.8800 19.8894 -0.0819
29.9000 19.9027 -0.0834
29.9200 19.9161 -0.0829
29.9400 19.9294 -0.0813
29.9600 19.9428 -0.0866
29.9800 19.9562 -0.0876
30.0000 19.9695 -0.0871
30.0200 19.9828 -0.0864
30.0400 19.9961 -0.0873
30.0600 20.0095 -0.0858
30.0800 20.0228 -0.0872
30.1000 20.0361 -0.0860
30.1200 20.0494 -0.0916
30.1400 20.0628 -0.0894
30.1600 20.0761 -0.0845
30.1800 20.0894 -0.0870
30.2000 20.1027 -0.0872
30.2200 20.1161 -0.0835
30.2400 20.1294 -0.0934
30.2600 20.1427 -0.0915
30.2800 20.1561 -0.0850
30.3000 20.1694 -0.0952
30.3200 20.1828 -0.0898
30.3400 20.1961 -0.0865
30.3600 20.2094 -0.0973
30.3800 20.2228 -0.0850
30.4000 20.2361 -0.0904
30.4200 20.2495 -0.1032
30.4400 20.2628 -0.0865
30.4600 20.2761 -0.0943
30.4800 20.2894 -0.1014
30.5000 20.3028 -0.0870
30.5200 20.3161 -0.0946
30.5400 20.3294 -0.1017
30.5600 20.3427 -0.0876
30.5800 20.3560 -0.0941
30.6000 20.3694 -0.0994
30.6200 20.3827 -0.0888
30.6400 20.3961 -0.0927
30.6600 20.4095 -0.0688
30.6800 20.4228 -0.0090
30.7000 20.4362 0.0387
30.7200 20.4495 0.0999
30.7400 20.4628 0.1681
30.7600 20.4761 0.2190
30.7800 20.4895 0.2710
30.8000 20.5028 0.3252
30.8200 20.5161 0.3647
30.8400 20.5294 0.3703
30.8600 20.5428 0.3384
30.8800 20.5561 0.3141
30.9000 20.5694 0.3128
30.9200 20.5827 0.3086
30.9400 20.5960 0.3062
30.9600 20.6094 0.3122
30.9800 20.6227 0.3117
31.0000 20.6360 0.3098
31.0200 20.6494 0.3098
31.0400 20.6628 0.3069
31.0600 20.6762 0.3055
31.0800 20.6895 0.3064
31.1000 20.7028 0.3052
31.1200 20.7161 0.3221
31.1400 20.7295 0.3166
31.1600 20.7428 0.3146
31.1800 20.7561 0.3179
31.2000 20.7694 0.3074
31.2200 20.7827 0.3114
31.2400 20.7961 0.3077
31.2600 20.8094 0.2999
31.2800 20.8227 0.3072
31.3000 20.8361 0.3009
31.3200 20.8495 0.2961
31.3400 20.8628 0.3042
31.3600 20.8761 0.2999
31.3800 20.8895 0.2971
31.4000 20.9028 0.2942
31.4200 20.9161 0.2875
31.4400 20.9294 0.2916
31.4600 20.9427 0.2905
31.4800 20.9561 0.2872
31.5000 20.9694 0.2969
31.5200 20.9828 0.2976
31.5400 20.9961 0.2991
31.5600 21.0094 0.3004
31.5800 21.0228 0.2970
31.6000 21.0362 0.2970
31.6200 21.0495 0.3043
31.6400 21.0627 0.2904
31.6600 21.0761 0.2953
31.6800 21.0894 0.2987
31.7000 21.1027 0.2903
31.7200 21.1161 0.2955
31.7400 21.1294 0.2915
31.7600 21.1428 0.2877
31.7800 21.1561 0.2873
31.8000 21.1695 0.2875
31.8200 21.1828 0.2892
31.8400 21.1961 0.2909
31.8600 21.2095 0.2843
31.8800 21.2228 0.2855
31.9000 21.2361 0.2846
31.9200 21.2494 0.2844
31.9400 21.2628 0.2860
31.9600 21.2761 0.2856
31.9800 21.2894 0.2877
32.0000 21.3027 0.2838
32.0200 21.3160 0.2780
32.0400 21.3294 0.2871
32.0600 21.3427 0.2824
32.0800 21.3560 0.2777
32.1000 21.3694 0.2813
32.1200 21.3828 0.2794
32.1400 21.3962 0.2747
32.1600 21.4095 0.2834
32.1800 21.4228 0.2838
32.2000 21.4361 0.2769
32.2200 21.4495 0.2829
32.2400 21.4628 0.2813
32.2600 21.4761 0.2760
32.2800 21.4894 0.2824
32.3000 21.5027 0.2752
32.3200 21.5161 0.2744
32.3400 21.5294 0.2876
32.3600 21.5427 0.2806
32.3800 21.5560 0.2761
32.4000 21.5694 0.2852
32.4200 21.5828 0.2728
32.4400 21.5961 0.2744
32.4600 21.6094 0.2834
32.4800 21.6227 0.2753
32.5000 21.6361 0.2759
32.5200 21.6495 0.2744
32.5400 21.6628 0.2671
32.5600 21.6761 0.2766
32.5800 21.6895 0.2741
32.6000 21.7028 0.2711
32.6200 21.7161 0.2754
32.6400 21.7294 0.2723
32.6600 21.7428 0.2690
32.6800 21.7561 0.2735
32.7000 21.7694 0.2712
32.7200 21.7827 0.2697
32.7400 21.7960 0.2755
32.7600 21.8094 0.2636
32.7800 21.8227 0.2657
32.8000 21.8361 0.2723
32.8200 21.8494 0.2672
32.8400 21.8628 0.2662
32.8600 21.8762 0.2682
32.8800 21.8895 0.2632
32.9000 21.9028 0.2668
32.9200 21.9161 0.2646
32.9400 21.9295 0.2639
32.9600 21.9428 0.2645
32.9800 21.9561 0.2662
33.0000 21.9694 0.2618
33.0200 21.9828 0.2671
33.0400 21.9961 0.2627
33.0600 22.0095 0.2604
33.0800 22.0228 0.2624
33.1000 22.0361 0.2640
33.1200 22.0494 0.2634
33.1400 22.0627 0.2594
33.1600 22.0761 0.2616
33.1800 22.0894 0.2646
33.2000 22.1028 0.2586
33.2200 22.1161 0.2603
33.2400 22.1295 0.2631
33.2600 22.1428 0.2592
33.2800 22.1561 0.2582
33.3000 22.1695 0.2677
33.3200 22.1828 0.2566
33.3400 22.1961 0.2591
33.3600 22.2094 0.2648
33.3800 22.2227 0.2550
33.4000 22.2361 0.2571
33.4200 22.2494 0.2629
33.4400 22.2627 0.2534
33.4600 22.2760 0.2574
33.4800 22.2894 0.2621
33.5000 22.3027 0.2501
33.5200 22.3161 0.2596
33.5400 22.3294 0.2615
33.5600 22.3428 0.2482
33.5800 22.3561 0.2577
33.6000 22.3694 0.2563
33.6200 22.3828 0.2471
33.6400 22.3961 0.2615
33.6600 22.4095 0.2517
33.6800 22.4228 0.2468
33.7000 22.4361 0.2574
33.7200 22.4495 0.2476
33.7400 22.4628 0.2473
33.7600 22.4762 0.2501
33.7800 22.4895 0.2485
33.8000 22.5027 0.2492
33.8200 22.5160 0.2524
33.8400 22.5293 0.2476
33.8600 22.5427 0.2459
33.8800 22.5560 0.2518
33.9000 22.5694 0.2473
33.9200 22.5828 0.2476
33.9400 22.5962 0.2505
33.9600 22.6095 0.2513
33.9800 22.6228 0.2454
34.0000 22.6362 0.2491
34.0200 22.6495 0.2479
34.0400 22.6629 0.2483
34.0600 22.6762 0.2456
34.0800 22.6894 0.2518
34.1000 22.7027 0.2444
34.1200 22.7161 0.2493
34.1400 22.7294 0.2546
34.1600 22.7427 0.2411
34.1800 22.7560 0.2521
34.2000 22.7694 0.2489
34.2200 22.7827 0.2401
34.2400 22.7960 0.2534
34.2600 22.8094 0.2513
34.2800 22.8228 0.2378
34.3000 22.8361 0.2524
34.3200 22.8495 0.2487
34.3400 22.8628 0.2338
34.3600 22.8762 0.2534
34.3800 22.8895 0.2481
34.4000 22.9029 0.2369
34.4200 22.9161 0.2505
34.4400 22.9294 0.2436
34.4600 22.9427 0.2432
34.4800 22.9561 0.2444
34.5000 22.9694 0.2441
34.5200 22.9827 0.2408
34.5400 22.9960 0.2488
34.5600 23.0094 0.2451
34.5800 23.0227 0.2348
34.6000 23.0361 0.2437
34.6200 23.0494 0.2460
34.6400 23.0627 0.2379
34.6600 23.0761 0.2421
34.6800 23.0895 0.2415
34.7000 23.1028 0.2333
34.7200 23.1161 0.2384
34.7400 23.1295 0.2484
34.7600 23.1428 0.2271
34.7800 23.1561 0.2390
34.8000 23.1694 0.2455
34.8200 23.1828 0.2313
34.8400 23.1961 0.2430
34.8600 23.2094 0.2424
34.8800 23.2227 0.2330
34.9000 23.2360 0.2406
34.9200 23.2494 0.2431
34.9400 23.2627 0.2312
34.9600 23.2761 0.2429
34.9800 23.2894 0.2425
35.0000 23.3028 0.2304
35.0200 23.3161 0.2361
35.0400 23.3295 0.2339
35.0600 23.3428 0.2376
35.0800 23.3561 0.2329
35.1000 23.3695 0.2336
35.1200 23.3828 0.2328
35.1400 23.3961 0.2353
35.1600 23.4094 0.2365
35.1800 23.4227 0.2335
35.2000 23.4361 0.2383
35.2200 23.4494 0.2308
35.2400 23.4627 0.2334
35.2600 23.4760 0.2369
35.2800 23.4894 0.2321
35.3000 23.5027 0.2321
35.3200 23.5161 0.2358
35.3400 23.5294 0.2301
35.3600 23.5427 0.2334
35.3800 23.5561 0.2365
35.4000 23.5695 0.2277
35.4200 23.5828 0.2319
35.4400 23.5961 0.2356
35.4600 23.6095 0.2262
35.4800 23.6229 0.2316
35.5000 23.6362 0.2337
35.5200 23.6495 0.2232
35.5400 23.6628 0.2320
35.5600 23.6761 0.2352
35.5800 23.6894 0.2247
35.6000 23.7027 0.2336
35.6200 23.7161 0.2345
35.6400 23.7294 0.2243
35.6600 23.7427 0.2306
35.6800 23.7561 0.2305
35.7000 23.7694 0.2243
35.7200 23.7827 0.2311
35.7400 23.7961 0.2287
35.7600 23.8095 0.2256
35.7800 23.8228 0.2327
35.8000 23.8361 0.2292
35.8200 23.8495 0.2248
35.8400 23.8628 0.2310
35.8600 23.8761 0.2247
35.8800 23.8894 0.2246
35.9000 23.9028 0.2313
35.9200 23.9161 0.2205
35.9400 23.9294 0.2246
35.9600 23.9427 0.2281
35.9800 23.9560 0.2200
36.0000 23.9693 0.2226
36.0200 23.9827 0.2282
36.0400 23.9960 0.2191
36.0600 24.0094 0.2238
36.0800 24.0228 0.2253
36.1000 24.0362 0.2218
36.1200 24.0495 0.2225
36.1400 24.0629 0.2183
36.1600 24.0762 0.2205
36.1800 24.0895 0.2252
36.2000 24.1028 0.2164
36.2200 24.1161 0.2212
36.2400 24.1294 0.2229
36.2600 24.1427 0.2197
36.2800 24.1560 0.2195
36.3000 24.1694 0.2226
36.3200 24.1827 0.2173
36.3400 24.1960 0.2216
36.3600 24.2094 0.2229
36.3800 24.2228 0.2150
36.4000 24.2361 0.2210
36.4200 24.2495 0.2211
36.4400 24.2628 0.2153
36.4600 24.2762 0.2223
36.4800 24.2895 0.2171
36.5000 24.3028 0.2143
36.5200 24.3161 0.2221
36.5400 24.3295 0.2190
36.5600 24.3428 0.2138
36.5800 24.3561 0.2194
36.6000 24.3694 0.2189
36.6200 24.3827 0.2125
36.6400 24.3961 0.2199
36.6600 24.4094 0.2122
36.6800 24.4227 0.2149
36.7000 24.4360 0.2155
36.7200 24.4494 0.2128
36.7400 24.4627 0.2114
36.7600 24.4761 0.2141
36.7800 24.4894 0.2087
36.8000 24.5028 0.2139
36.8200 24.5161 0.2158
36.8400 24.5295 0.2095
36.8600 24.5428 0.2124
36.8800 24.5561 0.2135
36.9000 24.5695 0.2073
36.9200 24.5828 0.2162
36.9400 24.5962 0.2097
36.9600 24.6095 0.2125
36.9800 24.6228 0.2189
37.0000 24.6361 0.2083
37.0200 24.6495 0.2125
37.0400 24.6628 0.2170
37.0600 24.6760 0.2029
37.0800 24.6894 0.2151
37.1000 24.7027 0.2143
37.1200 24.7161 0.1988
37.1400 24.7294 0.2150
37.1600 24.7427 0.2154
37.1800 24.7561 0.2004
37.2000 24.7695 0.2165
37.2200 24.7828 0.2141
37.2400 24.7961 0.1984
37.2600 24.8095 0.2178
37.2800 24.8228 0.2119
37.3000 24.8361 0.2026
37.3200 24.8494 0.2181
37.3400 24.8627 0.2091
37.3600 24.8761 0.2084
37.3800 24.8894 0.2116
37.4000 24.9028 0.2049
37.4200 24.9161 0.2047
37.4400 24.9294 0.2112
37.4600 24.9427 0.2106
37.4800 24.9561 0.1989
37.5000 24.9694 0.2104
37.5200 24.9827 0.2060
37.5400 24.9961 0.2014
37.5600 25.0095 0.2114
37.5800 25.0228 0.2061
37.6000 25.0361 0.2029
37.6200 25.0494 0.2100
37.6400 25.0628 0.2060
37.6600 25.0762 0.2004
37.6800 25.0895 0.2069
37.7000 25.1028 0.2092
37.7200 25.1161 0.1990
37.7400 25.1294 0.2082
37.7600 25.1427 0.2038
37.7800 25.1560 0.2028
37.8000 25.1693 0.2049
37.8200 25.1827 0.2005
37.8400 25.1960 0.1993
37.8600 25.2094 0.2069
37.8800 25.2228 0.2010
37.9000 25.2362 0.1995
37.9200 25.2495 0.2074
37.9400 25.2628 0.1955
37.9600 25.2761 0.1994
37.9800 25.2895 0.2064
38.0000 25.3028 0.1993
38.0200 25.3162 0.1985
38.0400 25.3295 0.1959
38.0600 25.3428 0.2015
38.0800 25.3561 0.1968
38.1000 25.3695 0.1957
38.1200 25.3828 0.2044
38.1400 25.3960 0.1929
38.1600 25.4094 0.1975
38.1800 25.4227 0.1990
38.2000 25.4360 0.1927
38.2200 25.4494 0.1949
38.2400 25.4627 0.1981
38.2600 25.4760 0.1933
38.2800 25.4894 0.1951
38.3000 25.5028 0.1959
38.3200 25.5161 0.1916
38.3400 25.5295 0.1962
38.3600 25.5428 0.1941
38.3800 25.5562 0.1885
38.4000 25.5694 0.2007
38.4200 25.5827 0.1918
38.4400 25.5961 0.1908
38.4600 25.6094 0.1974
38.4800 25.6227 0.1887
38.5000 25.6361 0.1936
38.5200 25.6494 0.1984
38.5400 25.6628 0.1875
38.5600 25.6761 0.1947
38.5800 25.6895 0.1936
38.6000 25.7028 0.1866
38.6200 25.7161 0.1973
38.6400 25.7294 0.1878
38.6600 25.7427 0.1881
38.6800 25.7560 0.1925
38.7000 25.7694 0.1843
38.7200 25.7827 0.1920
38.7400 25.7961 0.1936
38.7600 25.8095 0.1806
38.7800 25.8228 0.1968
38.8000 25.8361 0.1893
38.8200 25.8495 0.1792
38.8400 25.8628 0.1907
38.8600 25.8761 0.1920
38.8800 25.8894 0.1838
38.9000 25.9027 0.1921
38.9200 25.9161 0.1838
38.9400 25.9294 0.1819
38.9600 25.9427 0.1964
38.9800 25.9561 0.1800
39.0000 25.9694 0.1810
39.0200 25.9828 0.1933
39.0400 25.9961 0.1779
39.0600 26.0094 0.1884
39.0800 26.0228 0.1951
39.1000 26.0361 0.1755
39.1200 26.0494 0.1885
39.1400 26.0628 0.1970
39.1600 26.0761 0.1719
39.1800 26.0895 0.1929
39.2000 26.1028 0.1883
39.2200 26.1161 0.1756
39.2400 26.1294 0.1976
39.2600 26.1427 0.1877
39.2800 26.1560 0.1795
39.3000 26.1694 0.2003
39.3200 26.1827 0.1847
39.3400 26.1961 0.1786
39.3600 26.2095 0.1988
39.3800 26.2228 0.1812
39.4000 26.2362 0.1825
39.4200 26.2495 0.1941
39.4400 26.2628 0.1790
39.4600 26.2762 0.1871
39.4800 26.2894 0.1911
39.5000 26.3027 0.1793
39.5200 26.3161 0.1896
39.5400 26.3294 0.1890
39.5600 26.3427 0.1780
39.5800 26.3560 0.1868
39.6000 26.3694 0.1889
39.6200 26.3827 0.1760
39.6400 26.3961 0.1819
39.6600 26.4094 0.1884
39.6800 26.4228 0.1775
39.7000 26.4361 0.1823
39.7200 26.4494 0.1913
39.7400 26.4628 0.1711
39.7600 26.4761 0.1829
39.7800 26.4895 0.1876
39.8000 26.5028 0.1738
39.8200 26.5162 0.1799
39.8400 26.5295 0.1831
39.8600 26.5428 0.1761
39.8800 26.5561 0.1837
39.9000 26.5694 0.1832
39.9200 26.5827 0.1730
39.9400 26.5960 0.1757
39.9600 26.6094 0.1824
39.9800 26.6227 0.1752
40.0000 26.6360 0.1774
40.0200 26.6494 0.1798
40.0400 26.6627 0.1740
40.0600 26.6761 0.1757
40.0800 26.6895 0.1797
40.1000 26.7028 0.1773
40.1200 26.7161 0.1733
40.1400 26.7294 0.1772
40.1600 26.7428 0.1782
40.1800 26.7561 0.1768
40.2000 26.7694 0.1778
40.2200 26.7827 0.1713
40.2400 26.7961 0.1773
40.2600 26.8094 0.1824
40.2800 26.8228 0.1720
40.3000 26.8361 0.1742
40.3200 26.8494 0.1819
40.3400 26.8627 0.1681
40.3600 26.8761 0.1740
40.3800 26.8894 0.1843
40.4000 26.9027 0.1651
40.4200 26.9161 0.1736
40.4400 26.9295 0.1805
40.4600 26.9428 0.1681
40.4800 26.9561 0.1768
40.5000 26.9694 0.1816
40.5200 26.9828 0.1676
40.5400 26.9961 0.1707
40.5600 27.0095 0.1776
40.5800 27.0228 0.1693
40.6000 27.0361 0.1737
40.6200 27.0494 0.1763
40.6400 27.0628 0.1692
40.6600 27.0761 0.1745
40.6800 27.0894 0.1770
40.7000 27.1027 0.1734
40.7200 27.1161 0.1757
40.7400 27.1294 0.1716
40.7600 27.1428 0.1681
40.7800 27.1561 0.1714
40.8000 27.1694 0.1760
40.8200 27.1828 0.1692
40.8400 27.1961 0.1692
40.8600 27.2094 0.1761
40.8800 27.2228 0.1672
40.9000 27.2361 0.1746
40.9200 27.2495 0.1745
40.9400 27.2628 0.1646
40.9600 27.2761 0.1744
40.9800 27.2895 0.1676
41.0000 27.3028 0.1671
41.0200 27.3161 0.1716
41.0400 27.3294 0.1713
41.0600 27.3427 0.1640
41.0800 27.3560 0.1726
41.1000 27.3693 0.1663
41.1200 27.3827 0.1600
41.1400 27.3960 0.1727
41.1600 27.4095 0.1651
41.1800 27.4229 0.1605
41.2000 27.4362 0.1657
41.2200 27.4495 0.1633
41.2400 27.4628 0.1618
41.2600 27.4762 0.1627
41.2800 27.4895 0.1645
41.3000 27.5028 0.1574
41.3200 27.5161 0.1684
41.3400 27.5294 0.1636
41.3600 27.5428 0.1568
41.3800 27.5561 0.1689
41.4000 27.5694 0.1656
41.4200 27.5827 0.1564
41.4400 27.5961 0.1674
41.4600 27.6094 0.1661
41.4800 27.6227 0.1594
41.5000 27.6361 0.1637
41.5200 27.6494 0.1597
41.5400 27.6628 0.1632
41.5600 27.6762 0.1647
41.5800 27.6895 0.1604
41.6000 27.7028 0.1656
41.6200 27.7161 0.1628
41.6400 27.7295 0.1592
41.6600 27.7428 0.1629
41.6800 27.7561 0.1620
41.7000 27.7694 0.1592
41.7200 27.7828 0.1643
41.7400 27.7961 0.1578
41.7600 27.8094 0.1604
41.7800 27.8227 0.1633
41.8000 27.8361 0.1593
41.8200 27.8494 0.1615
41.8400 27.8628 0.1587
41.8600 27.8761 0.1611
41.8800 27.8895 0.1584
41.9000 27.9028 0.1565
41.9200 27.9162 0.1615
41.9400 27.9295 0.1633
41.9600 27.9428 0.1558
41.9800 27.9562 0.1612
42.0000 27.9695 0.1631
42.0200 27.9828 0.1531
42.0400 27.9961 0.1644
42.0600 28.0094 0.1634
42.0800 28.0228 0.1530
42.1000 28.0361 0.1627
42.1200 28.0494 0.1570
42.1400 28.0627 0.1549
42.1600 28.0761 0.1592
42.1800 28.0894 0.1601
42.2000 28.1027 0.1509
42.2200 28.1161 0.1611
42.2400 28.1295 0.1550
42.2600 28.1428 0.1504
42.2800 28.1562 0.1629
42.3000 28.1695 0.1494
42.3200 28.1828 0.1514
42.3400 28.1961 0.1625
42.3600 28.2094 0.1467
42.3800 28.2227 0.1500
42.4000 28.2360 0.1587
42.4200 28.2494 0.1478
42.4400 28.2628 0.1484
42.4600 28.2761 0.1559
42.4800 28.2894 0.1459
42.5000 28.3027 0.1481
42.5200 28.3161 0.1524
42.5400 28.3294 0.1456
42.5600 28.3427 0.1517
42.5800 28.3560 0.1507
42.6000 28.3694 0.1489
42.6200 28.3828 0.1522
42.6400 28.3961 0.1446
42.6600 28.4095 0.1476
42.6800 28.4228 0.1544
42.7000 28.4362 0.1440
42.7200 28.4495 0.1435
42.7400 28.4628 0.1523
42.7600 28.4761 0.1445
42.7800 28.4894 0.1487
42.8000 28.5028 0.1567
42.8200 28.5161 0.1375
42.8400 28.5294 0.1456
42.8600 28.5427 0.1514
42.8800 28.5560 0.1394
42.9000 28.5694 0.1455
42.9200 28.5827 0.1508
42.9400 28.5961 0.1387
42.9600 28.6094 0.1486
42.9800 28.6228 0.1511
43.0000 28.6361 0.1345
43.0200 28.6494 0.1495
43.0400 28.6628 0.1520
43.0600 28.6761 0.1341
43.0800 28.6895 0.1477
43.1000 28.7028 0.1512
43.1200 28.7161 0.1405
43.1400 28.7294 0.1488
43.1600 28.7428 0.1444
43.1800 28.7561 0.1357
43.2000 28.7694 0.1500
43.2200 28.7827 0.1439
43.2400 28.7960 0.1368
43.2600 28.8094 0.1497
43.2800 28.8227 0.1407
43.3000 28.8360 0.1400
43.3200 28.8494 0.1505
43.3400 28.8628 0.1366
43.3600 28.8762 0.1410
43.3800 28.8895 0.1486
43.4000 28.9029 0.1366
43.4200 28.9162 0.1425
43.4400 28.9295 0.1434
43.4600 28.9428 0.1438
43.4800 28.9560 0.1443
43.5000 28.9693 0.1401
43.5200 28.9827 0.1402
43.5400 28.9960 0.1479
43.5600 29.0094 0.1363
43.5800 29.0227 0.1433
43.6000 29.0361 0.1445
43.6200 29.0494 0.1325
43.6400 29.0628 0.1461
43.6600 29.0761 0.1460
43.6800 29.0895 0.1326
43.7000 29.1028 0.1454
43.7200 29.1162 0.1393
43.7400 29.1295 0.1369
43.7600 29.1428 0.1447
43.7800 29.1561 0.1351
43.8000 29.1695 0.1379
43.8200 29.1828 0.1440
43.8400 29.1961 0.1361
43.8600 29.2094 0.1369
43.8800 29.2227 0.1422
43.9000 29.2361 0.1330
43.9200 29.2494 0.1374
43.9400 29.2627 0.1425
43.9600 29.2760 0.1357
43.9800 29.2894 0.1375
44.0000 29.3027 0.1408
44.0200 29.3161 0.1335
44.0400 29.3294 0.1395
44.0600 29.3428 0.1387
44.0800 29.3561 0.1319
44.1000 29.3694 0.1370
44.1200 29.3828 0.1358
44.1400 29.3961 0.1358
44.1600 29.4095 0.1343
44.1800 29.4228 0.1367
44.2000 29.4361 0.1334
44.2200 29.4494 0.1334
44.2400 29.4628 0.1370
44.2600 29.4761 0.1306
44.2800 29.4894 0.1383
44.3000 29.5027 0.1361
44.3200 29.5160 0.1278
44.3400 29.5294 0.1348
44.3600 29.5427 0.1319
44.3800 29.5561 0.1282
44.4000 29.5694 0.1377
44.4200 29.5828 0.1333
44.4400 29.5961 0.1252
44.4600 29.6095 0.1320
44.4800 29.6228 0.1401
44.5000 29.6361 0.1263
44.5200 29.6495 0.1291
44.5400 29.6628 0.1362
44.5600 29.6761 0.1258
44.5800 29.6894 0.1287
44.6000 29.7028 0.1346
44.6200 29.7161 0.1259
44.6400 29.7294 0.1256
44.6600 29.7427 0.1379
44.6800 29.7560 0.1258
44.7000 29.7694 0.1215
44.7200 29.7827 0.1388
44.7400 29.7961 0.1229
44.7600 29.8094 0.1229
44.7800 29.8228 0.1411
44.8000 29.8361 0.1215
44.8200 29.8495 0.1222
44.8400 29.8628 0.1366
44.8600 29.8761 0.1208
44.8800 29.8895 0.1224
44.9000 29.9028 0.1346
44.9200 29.9161 0.1189
44.9400 29.9294 0.1274
44.9600 29.9427 0.1324
44.9800 29.9561 0.1186
45.0000 29.9694 0.1257
45.0200 29.9827 0.1349
45.0400 29.9960 0.1193
45.0600 30.0094 0.1248
45.0800 30.0227 0.1344
45.1000 30.0361 0.1185
45.1200 30.0495 0.1213
45.1400 30.0628 0.1328
45.1600 30.0762 0.1181
45.1800 30.0895 0.1219
45.2000 30.1028 0.1307
45.2200 30.1161 0.1171
45.2400 30.1295 0.1227
45.2600 30.1428 0.1315
45.2800 30.1561 0.1173
45.3000 30.1694 0.1192
45.3200 30.1827 0.1283
45.3400 30.1961 0.1168
45.3600 30.2094 0.1197
45.3800 30.2227 0.1275
45.4000 30.2360 0.1176
45.4200 30.2494 0.1197
45.4400 30.2627 0.1239
45.4600 30.2761 0.1156
45.4800 30.2894 0.1238
45.5000 30.3028 0.1239
45.5200 30.3162 0.1130
45.5400 30.3295 0.1146
45.5600 30.3428 0.1211
45.5800 30.3561 0.1190
45.6000 30.3695 0.1138
45.6200 30.3828 0.1212
45.6400 30.3961 0.1197
45.6600 30.4094 0.1130
45.6800 30.4227 0.1226
45.7000 30.4360 0.1176
45.7200 30.4494 0.1196
45.7400 30.4627 0.1179
45.7600 30.4761 0.1141
45.7800 30.4895 0.1174
45.8000 30.5028 0.1163
45.8200 30.5161 0.1164
45.8400 30.5294 0.1175
45.8600 30.5428 0.1158
45.8800 30.5561 0.1167
45.9000 30.5694 0.1135
45.9200 30.5827 0.1190
45.9400 30.5961 0.1173
45.9600 30.6094 0.1157
45.9800 30.6228 0.1161
46.0000 30.6361 0.1171
46.0200 30.6495 0.1159
46.0400 30.6628 0.1119
46.0600 30.6762 0.1213
46.0800 30.6895 0.1130
46.1000 30.7027 0.1123
46.1200 30.7161 0.1229
46.1400 30.7294 0.1118
46.1600 30.7428 0.1122
46.1800 30.7561 0.1205
46.2000 30.7694 0.1160
46.2200 30.7827 0.1074
46.2400 30.7961 0.1189
46.2600 30.8094 0.1127
46.2800 30.8228 0.1139
46.3000 30.8361 0.1198
46.3200 30.8495 0.1088
46.3400 30.8628 0.1096
46.3600 30.8761 0.1183
46.3800 30.8894 0.1145
46.4000 30.9028 0.1129
46.4200 30.9161 0.1156
46.4400 30.9295 0.1068
46.4600 30.9427 0.1127
46.4800 30.9560 0.1159
46.5000 30.9694 0.1095
46.5200 30.9827 0.1107
46.5400 30.9960 0.1140
46.5600 31.0094 0.1069
46.5800 31.0228 0.1099
46.6000 31.0362 0.1142
46.6200 31.0495 0.1065
46.6400 31.0628 0.1080
46.6600 31.0761 0.1147
46.6800 31.0895 0.1056
46.7000 31.1028 0.1115
46.7200 31.1161 0.1132
46.7400 31.1294 0.1049
46.7600 31.1428 0.1109
46.7800 31.1561 0.1120
46.8000 31.1694 0.1040
46.8200 31.1827 0.1116
46.8400 31.1960 0.1088
46.8600 31.2094 0.1052
46.8800 31.2228 0.1079
46.9000 31.2361 0.1110
46.9200 31.2494 0.1032
46.9400 31.2628 0.1068
46.9600 31.2761 0.1103
46.9800 31.2895 0.1015
47.0000 31.3028 0.1092
47.0200 31.3161 0.1096
47.0400 31.3295 0.1044
47.0600 31.3428 0.1047
47.0800 31.3561 0.1058
47.1000 31.3694 0.1047
47.1200 31.3828 0.1072
47.1400 31.3961 0.1009
47.1600 31.4094 0.1044
47.1800 31.4227 0.1084
47.2000 31.4360 0.1023
47.2200 31.4494 0.1026
47.2400 31.4627 0.1039
47.2600 31.4761 0.0972
47.2800 31.4894 0.1051
47.3000 31.5028 0.1059
47.3200 31.5161 0.1006
47.3400 31.5295 0.1063
47.3600 31.5428 0.1016
47.3800 31.5561 0.1006
47.4000 31.5695 0.1053
47.4200 31.5828 0.0988
47.4400 31.5961 0.1008
47.4600 31.6094 0.1040
47.4800 31.6227 0.0990
47.5000 31.6361 0.1038
47.5200 31.6494 0.1066
47.5400 31.6627 0.0950
47.5600 31.6761 0.1032
47.5800 31.6894 0.1021
47.6000 31.7027 0.0959
47.6200 31.7161 0.1043
47.6400 31.7294 0.0992
47.6600 31.7428 0.0932
47.6800 31.7562 0.1020
47.7000 31.7695 0.0976
47.7200 31.7828 0.0937
47.7400 31.7961 0.1052
47.7600 31.8095 0.0944
47.7800 31.8228 0.0928
47.8000 31.8361 0.0993
47.8200 31.8494 0.0993
47.8400 31.8627 0.0922
47.8600 31.8761 0.0991
47.8800 31.8894 0.0977
47.9000 31.9027 0.0924
47.9200 31.9160 0.0974
47.9400 31.9294 0.0944
47.9600 31.9427 0.0926
47.9800 31.9561 0.0990
48.0000 31.9694 0.0916
48.0200 31.9827 0.0922
48.0400 31.9961 0.0998
48.0600 32.0094 0.0954
48.0800 32.0228 0.0859
48.1000 32.0361 0.0999
48.1200 32.0494 0.0952
48.1400 32.0628 0.0863
48.1600 32.0761 0.0961
48.1800 32.0895 0.0962
48.2000 32.1028 0.0925
48.2200 32.1162 0.0980
48.2400 32.1295 0.0873
48.2600 32.1427 0.0934
48.2800 32.1560 0.0995
48.3000 32.1693 0.0894
48.3200 32.1827 0.0892
48.3400 32.1960 0.0939
48.3600 32.2093 0.0920
48.3800 32.2227 0.0901
48.4000 32.2361 0.0933
48.4200 32.2495 0.0900
48.4400 32.2628 0.0881
48.4600 32.2762 0.0912
48.4800 32.2895 0.0902
48.5000 32.3029 0.0857
48.5200 32.3162 0.0915
48.5400 32.3294 0.0904
48.5600 32.3427 0.0877
48.5800 32.3561 0.0943
48.6000 32.3694 0.0907
48.6200 32.3827 0.0841
48.6400 32.3960 0.0954
48.6600 32.4094 0.0916
48.6800 32.4227 0.0800
48.7000 32.4361 0.0951
48.7200 32.4494 0.0936
48.7400 32.4627 0.0813
48.7600 32.4761 0.0923
48.7800 32.4895 0.0910
48.8000 32.5028 0.0802
48.8200 32.5162 0.0927
48.8400 32.5295 0.0937
48.8600 32.5428 0.0808
48.8800 32.5561 0.0959
48.9000 32.5694 0.0871
48.9200 32.5827 0.0797
48.9400 32.5961 0.0958
48.9600 32.6094 0.0856
48.9800 32.6227 0.0762
49.0000 32.6361 0.0967
49.0200 32.6494 0.0859
49.0400 32.6628 0.0753
49.0600 32.6761 0.0955
49.0800 32.6894 0.0837
49.1000 32.7028 0.0796
49.1200 32.7161 0.0982
49.1400 32.7295 0.0771
49.1600 32.7428 0.0797
49.1800 32.7561 0.0977
49.2000 32.7694 0.0798
49.2200 32.7828 0.0812
49.2400 32.7961 0.0945
49.2600 32.8095 0.0819
49.2800 32.8228 0.0803
49.3000 32.8361 0.0943
49.3200 32.8494 0.0788
49.3400 32.8627 0.0843
49.3600 32.8760 0.0935
49.3800 32.8894 0.0780
49.4000 32.9027 0.0838
49.4200 32.9161 0.0906
49.4400 32.9294 0.0760
49.4600 32.9428 0.0884
49.4800 32.9562 0.0889
49.5000 32.9695 0.0805
49.5200 32.9828 0.0849
49.5400 32.9961 0.0853
49.5600 33.0095 0.0820
49.5800 33.0228 0.0893
49.6000 33.0361 0.0811
49.6200 33.0494 0.0802
49.6400 33.0627 0.0878
49.6600 33.0761 0.0763
49.6800 33.0894 0.0832
49.7000 33.1027 0.0905
49.7200 33.1160 0.0763
49.7400 33.1294 0.0794
49.7600 33.1427 0.0806
49.7800 33.1561 0.0738
49.8000 33.1694 0.0858
49.8200 33.1827 0.0829
49.8400 33.1961 0.0732
49.8600 33.2095 0.0819
49.8800 33.2228 0.0786
49.9000 33.2361 0.0734
49.9200 33.2495 0.0875
49.9400 33.2628 0.0812
49.9600 33.2762 0.0679
49.9800 33.2895 0.0851
50.0000 33.3028 0.0764
50.0200 33.3161 0.0737
50.0400 33.3294 0.0848
50.0600 33.3428 0.0716
50.0800 33.3561 0.0763
50.1000 33.3694 0.0809
50.1200 33.3827 0.0708
50.1400 33.3961 0.0772
50.1600 33.4094 0.0804
50.1800 33.4228 0.0725
50.2000 33.4361 0.0757
50.2200 33.4495 0.0784
50.2400 33.4628 0.0731
50.2600 33.4761 0.0787
50.2800 33.4894 0.0827
50.3000 33.5028 0.0723
50.3200 33.5161 0.0743
50.3400 33.5295 0.0779
50.3600 33.5428 0.0736
50.3800 33.5561 0.0765
50.4000 33.5695 0.0761
50.4200 33.5828 0.0762
50.4400 33.5961 0.0803
50.4600 33.6094 0.0723
50.4800 33.6227 0.0763
50.5000 33.6361 0.0770
50.5200 33.6494 0.0694
50.5400 33.6627 0.0798
50.5600 33.6761 0.0775
50.5800 33.6895 0.0722
50.6000 33.7029 0.0751
50.6200 33.7162 0.0761
50.6400 33.7295 0.0702
50.6600 33.7428 0.0750
50.6800 33.7561 0.0782
50.7000 33.7694 0.0673
50.7200 33.7827 0.0792
50.7400 33.7960 0.0764
50.7600 33.8094 0.0663
50.7800 33.8227 0.0796
50.8000 33.8360 0.0735
50.8200 33.8494 0.0675
50.8400 33.8628 0.0784
50.8600 33.8761 0.0696
50.8800 33.8895 0.0672
50.9000 33.9028 0.0802
50.9200 33.9161 0.0661
50.9400 33.9295 0.0732
50.9600 33.9428 0.0765
50.9800 33.9561 0.0652
51.0000 33.9694 0.0723
51.0200 33.9827 0.0808
51.0400 33.9961 0.0612
51.0600 34.0094 0.0734
51.0800 34.0227 0.0739
51.1000 34.0361 0.0611
51.1200 34.0494 0.0707
51.1400 34.0627 0.0739
51.1600 34.0760 0.0646
51.1800 34.0894 0.0716
51.2000 34.1027 0.0735
51.2200 34.1161 0.0666
51.2400 34.1294 0.0715
51.2600 34.1428 0.0699
51.2800 34.1561 0.0644
51.3000 34.1695 0.0694
51.3200 34.1828 0.0712
51.3400 34.1961 0.0670
51.3600 34.2094 0.0686
51.3800 34.2228 0.0710
51.4000 34.2362 0.0638
51.4200 34.2495 0.0672
51.4400 34.2628 0.0697
51.4600 34.2761 0.0652
51.4800 34.2895 0.0693
51.5000 34.3028 0.0655
51.5200 34.3161 0.0672
51.5400 34.3294 0.0683
51.5600 34.3427 0.0666
51.5800 34.3561 0.0616
51.6000 34.3694 0.0689
51.6200 34.3828 0.0678
51.6400 34.3961 0.0648
51.6600 34.4095 0.0638
51.6800 34.4228 0.0664
51.7000 34.4362 0.0642
51.7200 34.4495 0.0645
51.7400 34.4628 0.0654
51.7600 34.4761 0.0655
51.7800 34.4894 0.0632
51.8000 34.5027 0.0675
51.8200 34.5161 0.0630
51.8400 34.5294 0.0621
51.8600 34.5427 0.0657
51.8800 34.5560 0.0649
51.9000 34.5694 0.0569
51.9200 34.5828 0.0644
51.9400 34.5961 0.0592
51.9600 34.6094 0.0598
51.9800 34.6227 0.0687
52.0000 34.6361 0.0557
52.0200 34.6494 0.0560
52.0400 34.6628 0.0679
52.0600 34.6761 0.0580
52.0800 34.6894 0.0619
52.1000 34.7028 0.0644
52.1200 34.7162 0.0539
52.1400 34.7295 0.0569
52.1600 34.7428 0.0648
52.1800 34.7561 0.0584
52.2000 34.7694 0.0606
52.2200 34.7827 0.0605
52.2400 34.7960 0.0511
52.2600 34.8093 0.0633
52.2800 34.8227 0.0581
52.3000 34.8361 0.0509
52.3200 34.8494 0.0582
52.3400 34.8627 0.0588
52.3600 34.8761 0.0530
52.3800 34.8895 0.0630
52.4000 34.9029 0.0543
52.4200 34.9161 0.0546
52.4400 34.9294 0.0635
52.4600 34.9428 0.0535
52.4800 34.9562 0.0557
52.5000 34.9695 0.0641
52.5200 34.9828 0.0540
52.5400 34.9961 0.0566
52.5600 35.0094 0.0592
52.5800 35.0228 0.0494
52.6000 35.0361 0.0543
52.6200 35.0494 0.0593
52.6400 35.0627 0.0506
52.6600 35.0760 0.0521
52.6800 35.0894 0.0561
52.7000 35.1027 0.0531
52.7200 35.1161 0.0537
52.7400 35.1295 0.0544
52.7600 35.1428 0.0486
52.7800 35.1561 0.0543
52.8000 35.1695 0.0555
52.8200 35.1828 0.0494
52.8400 35.1961 0.0564
52.8600 35.2094 0.0546
52.8800 35.2227 0.0513
52.9000 35.2360 0.0510
52.9200 35.2494 0.0564
52.9400 35.2627 0.0483
52.9600 35.2761 0.0498
52.9800 35.2894 0.0569
53.0000 35.3028 0.0500
53.0200 35.3161 0.0503
53.0400 35.3295 0.0545
53.0600 35.3428 0.0522
53.0800 35.3561 0.0577
53.1000 35.3695 0.0504
53.1200 35.3828 0.0452
53.1400 35.3961 0.0510
53.1600 35.4094 0.0546
53.1800 35.4227 0.0491
53.2000 35.4361 0.0536
53.2200 35.4495 0.0500
53.2400 35.4628 0.0482
53.2600 35.4761 0.0515
53.2800 35.4895 0.0499
53.3000 35.5028 0.0481
53.3200 35.5161 0.0531
53.3400 35.5294 0.0495
53.3600 35.5427 0.0476
53.3800 35.5561 0.0527
53.4000 35.5694 0.0491
53.4200 35.5827 0.0453
53.4400 35.5961 0.0507
53.4600 35.6094 0.0454
53.4800 35.6228 0.0433
53.5000 35.6361 0.0532
53.5200 35.6494 0.0476
53.5400 35.6628 0.0470
53.5600 35.6761 0.0503
53.5800 35.6895 0.0449
53.6000 35.7028 0.0443
53.6200 35.7161 0.0524
53.6400 35.7295 0.0488
53.6600 35.7428 0.0392
53.6800 35.7561 0.0525
53.7000 35.7694 0.0479
53.7200 35.7827 0.0387
53.7400 35.7960 0.0542
53.7600 35.8094 0.0413
53.7800 35.8227 0.0425
53.8000 35.8361 0.0559
53.8200 35.8495 0.0416
53.8400 35.8628 0.0433
53.8600 35.8761 0.0541
53.8800 35.8895 0.0421
53.9000 35.9028 0.0427
53.9200 35.9162 0.0534
53.9400 35.9295 0.0457
53.9600 35.9428 0.0449
53.9800 35.9561 0.0564
54.0000 35.9694 0.0390
54.0200 35.9828 0.0398
54.0400 35.9961 0.0491
54.0600 36.0094 0.0467
54.0800 36.0227 0.0402
54.1000 36.0361 0.0471
54.1200 36.0494 0.0442
54.1400 36.0628 0.0374
54.1600 36.0761 0.0511
54.1800 36.0894 0.0418
54.2000 36.1028 0.0379
54.2200 36.1161 0.0519
54.2400 36.1295 0.0388
54.2600 36.1428 0.0362
54.2800 36.1562 0.0495
54.3000 36.1695 0.0439
54.3200 36.1828 0.0301
54.3400 36.1961 0.0509
54.3600 36.2094 0.0417
54.3800 36.2228 0.0311
54.4000 36.2361 0.0532
54.4200 36.2494 0.0388
54.4400 36.2627 0.0340
54.4600 36.2761 0.0521
54.4800 36.2894 0.0362
54.5000 36.3027 0.0311
54.5200 36.3161 0.0514
54.5400 36.3295 0.0362
54.5600 36.3429 0.0335
54.5800 36.3562 0.0466
54.6000 36.3695 0.0379
54.6200 36.3828 0.0346
54.6400 36.3961 0.0454
54.6600 36.4095 0.0397
54.6800 36.4228 0.0346
54.7000 36.4361 0.0408
54.7200 36.4494 0.0403
54.7400 36.4628 0.0308
54.7600 36.4761 0.0387
54.7800 36.4894 0.0383
54.8000 36.5027 0.0344
54.8200 36.5161 0.0352
54.8400 36.5294 0.0367
54.8600 36.5427 0.0322
54.8800 36.5561 0.0384
54.9000 36.5694 0.0364
54.9200 36.5828 0.0327
54.9400 36.5961 0.0380
54.9600 36.6094 0.0343
54.9800 36.6228 0.0332
55.0000 36.6361 0.0366
55.0200 36.6495 0.0326
55.0400 36.6628 0.0343
55.0600 36.6761 0.0426
55.0800 36.6894 0.0323
55.1000 36.7027 0.0304
55.1200 36.7160 0.0399
55.1400 36.7294 0.0339
55.1600 36.7427 0.0327
55.1800 36.7560 0.0407
55.2000 36.7694 0.0317
55.2200 36.7827 0.0321
55.2400 36.7961 0.0417
55.2600 36.8094 0.0364
55.2800 36.8228 0.0298
55.3000 36.8361 0.0358
55.3200 36.8494 0.0329
55.3400 36.8628 0.0316
55.3600 36.8761 0.0351
55.3800 36.8895 0.0329
55.4000 36.9028 0.0350
55.4200 36.9161 0.0294
55.4400 36.9295 0.0346
55.4600 36.9428 0.0337
55.4800 36.9561 0.0269
55.5000 36.9694 0.0345
55.5200 36.9827 0.0317
55.5400 36.9960 0.0305
55.5600 37.0093 0.0328
55.5800 37.0227 0.0297
55.6000 37.0360 0.0311
55.6200 37.0494 0.0309
55.6400 37.0629 0.0311
55.6600 37.0762 0.0264
55.6800 37.0895 0.0306
55.7000 37.1028 0.0291
55.7200 37.1162 0.0266
55.7400 37.1295 0.0335
55.7600 37.1428 0.0267
55.7800 37.1561 0.0277
55.8000 37.1694 0.0345
55.8200 37.1828 0.0261
55.8400 37.1961 0.0255
55.8600 37.2094 0.0321
55.8800 37.2227 0.0301
55.9000 37.2360 0.0238
55.9200 37.2494 0.0329
55.9400 37.2627 0.0278
55.9600 37.2761 0.0221
55.9800 37.2894 0.0293
56.0000 37.3028 0.0291
56.0200 37.3161 0.0248
56.0400 37.3295 0.0292
56.0600 37.3428 0.0264
56.0800 37.3562 0.0219
56.1000 37.3695 0.0250
56.1200 37.3828 0.0265
56.1400 37.3961 0.0240
56.1600 37.4094 0.0309
56.1800 37.4228 0.0186
56.2000 37.4361 0.0243
56.2200 37.4494 0.0283
56.2400 37.4627 0.0189
56.2600 37.4761 0.0264
56.2800 37.4894 0.0255
56.3000 37.5027 0.0186
56.3200 37.5161 0.0243
56.3400 37.5294 0.0275
56.3600 37.5428 0.0187
56.3800 37.5561 0.0233
56.4000 37.5694 0.0250
56.4200 37.5828 0.0175
56.4400 37.5961 0.0271
56.4600 37.6095 0.0223
56.4800 37.6228 0.0169
56.5000 37.6361 0.0262
56.5200 37.6494 0.0179
56.5400 37.6628 0.0162
56.5600 37.6761 0.0235
56.5800 37.6894 0.0213
56.6000 37.7027 0.0206
56.6200 37.7160 0.0225
56.6400 37.7294 0.0194
56.6600 37.7427 0.0211
56.6800 37.7561 0.0241
56.7000 37.7694 0.0198
56.7200 37.7828 0.0187
56.7400 37.7962 0.0181
56.7600 37.8095 0.0193
56.7800 37.8228 0.0193
56.8000 37.8361 0.0192
56.8200 37.8495 0.0210
56.8400 37.8628 0.0212
56.8600 37.8761 0.0195
56.8800 37.8894 0.0208
56.9000 37.9028 0.0239
56.9200 37.9161 0.0161
56.9400 37.9294 0.0197
56.9600 37.9427 0.0241
56.9800 37.9561 0.0168
57.0000 37.9694 0.0191
57.0200 37.9827 0.0286
57.0400 37.9961 0.0114
57.0600 38.0094 0.0193
57.0800 38.0228 0.0205
57.1000 38.0362 0.0141
57.1200 38.0495 0.0240
57.1400 38.0628 0.0194
57.1600 38.0762 0.0129
57.1800 38.0895 0.0184
57.2000 38.1028 0.0181
57.2200 38.1161 0.0172
57.2400 38.1294 0.0169
57.2600 38.1428 0.0157
57.2800 38.1561 0.0134
57.3000 38.1694 0.0168
57.3200 38.1827 0.0138
57.3400 38.1960 0.0176
57.3600 38.2094 0.0142
57.3800 38.2227 0.0130
57.4000 38.2361 0.0182
57.4200 38.2494 0.0130
57.4400 38.2628 0.0158
57.4600 38.2761 0.0121
57.4800 38.2895 0.0123
57.5000 38.3028 0.0174
57.5200 38.3161 0.0129
57.5400 38.3295 0.0033
57.5600 38.3428 0.0236
57.5800 38.3561 0.0093
57.6000 38.3694 0.0070
57.6200 38.3828 0.0209
57.6400 38.3961 0.0052
57.6600 38.4094 0.0090
57.6800 38.4227 0.0190
57.7000 38.4360 0.0027
57.7200 38.4494 0.0096
57.7400 38.4627 0.0201
57.7600 38.4761 -0.0004
57.7800 38.4894 0.0098
57.8000 38.5028 0.0166
57.8200 38.5162 -0.0025
57.8400 38.5295 0.0108
57.8600 38.5428 0.0168
57.8800 38.5562 -0.0005
57.9000 38.5695 0.0057
57.9200 38.5828 0.0124
57.9400 38.5960 -0.0017
57.9600 38.6093 0.0123
57.9800 38.6226 0.0142
58.0000 38.6360 -0.0073
58.0200 38.6494 0.0105
58.0400 38.6628 0.0106
58.0600 38.6761 -0.0041
58.0800 38.6895 0.0090
58.1000 38.7028 0.0058
58.1200 38.7161 -0.0005
58.1400 38.7295 0.0076
58.1600 38.7428 0.0054
58.1800 38.7562 -0.0032
58.2000 38.7695 0.0063
58.2200 38.7828 0.0078
58.2400 38.7961 -0.0053
58.2600 38.8095 0.0092
58.2800 38.8228 0.0058
58.3000 38.8361 -0.0018
58.3200 38.8494 0.0076
58.3400 38.8628 0.0047
58.3600 38.8761 -0.0034
58.3800 38.8894 0.0055
58.4000 38.9027 0.0049
58.4200 38.9160 -0.0042
58.4400 38.9294 0.0024
58.4600 38.9428 0.0053
58.4800 38.9561 -0.0066
58.5000 38.9695 0.0095
58.5200 38.9828 0.0002
58.5400 38.9962 -0.0094
58.5600 39.0095 0.0083
58.5800 39.0228 0.0020
58.6000 39.0361 -0.0085
58.6200 39.0495 0.0103
58.6400 39.0628 0.0028
58.6600 39.0761 -0.0110
58.6800 39.0894 0.0097
58.7000 39.1028 0.0018
58.7200 39.1161 -0.0092
58.7400 39.1294 0.0064
58.7600 39.1427 -0.0010
58.7800 39.1560 -0.0074
58.8000 39.1693 0.0021
58.8200 39.1827 -0.0035
58.8400 39.1961 -0.0073
58.8600 39.2095 0.0009
58.8800 39.2228 -0.0069
58.9000 39.2362 -0.0110
58.9200 39.2495 0.0025
58.9400 39.2628 -0.0015
58.9600 39.2761 -0.0100
58.9800 39.2895 -0.0045
59.0000 39.3028 -0.0023
59.0200 39.3161 -0.0082
59.0400 39.3294 -0.0017
59.0600 39.3427 -0.0055
59.0800 39.3561 -0.0081
59.1000 39.3694 -0.0041
59.1200 39.3827 -0.0015
59.1400 39.3960 -0.0150
59.1600 39.4094 -0.0015
59.1800 39.4227 -0.0050
59.2000 39.4360 -0.0185
59.2200 39.4494 0.0001
59.2400 39.4627 -0.0056
59.2600 39.4761 -0.0180
59.2800 39.4895 0.0012
59.3000 39.5028 -0.0068
59.3200 39.5161 -0.0129
59.3400 39.5295 -0.0024
59.3600 39.5428 -0.0082
59.3800 39.5561 -0.0120
59.4000 39.5694 -0.0020
59.4200 39.5828 -0.0097
59.4400 39.5961 -0.0174
59.4600 39.6094 -0.0045
59.4800 39.6227 -0.0105
59.5000 39.6360 -0.0149
59.5200 39.6494 -0.0050
59.5400 39.6627 -0.0107
59.5600 39.6761 -0.0158
59.5800 39.6894 -0.0078
59.6000 39.7028 -0.0123
59.6200 39.7161 -0.0144
59.6400 39.7295 -0.0103
59.6600 39.7428 -0.0105
59.6800 39.7562 -0.0119
59.7000 39.7695 -0.0168
59.7200 39.7829 -0.0127
59.7400 39.7961 -0.0115
59.7600 39.8094 -0.0149
59.7800 39.8228 -0.0126
59.8000 39.8361 -0.0153
59.8200 39.8494 -0.0193
59.8400 39.8627 -0.0143
59.8600 39.8760 -0.0120
59.8800 39.8894 -0.0255
59.9000 39.9027 -0.0127
59.9200 39.9161 -0.0168
59.9400 39.9294 -0.0236
59.9600 39.9428 -0.0076
59.9800 39.9562 -0.0221
60.0000 39.9695 -0.0200
60.0200 39.9827 -0.0087
60.0400 39.9961 -0.0318
60.0470 40.0006 -0.0484
