Raw Data
Time Displacement Force
(s) (mm) (N)
0.0000 0.0000 0.3777
0.0200 0.0001 0.3740
0.0400 0.0011 0.4307
0.0600 0.0049 0.4188
0.0800 0.0105 0.3541
0.1000 0.0163 0.3966
0.1200 0.0224 0.4105
0.1400 0.0293 0.3678
0.1600 0.0367 0.3947
0.1800 0.0441 0.3906
0.2000 0.0512 0.3640
0.2200 0.0580 0.3995
0.2400 0.0646 0.3907
0.2600 0.0712 0.3738
0.2800 0.0779 0.4080
0.3000 0.0847 0.3906
0.3200 0.0914 0.3694
0.3400 0.0981 0.4082
0.3600 0.1048 0.3838
0.3800 0.1115 0.3790
0.4000 0.1181 0.4042
0.4200 0.1247 0.3878
0.4400 0.1314 0.3841
0.4600 0.1381 0.4065
0.4800 0.1448 0.3890
0.5000 0.1514 0.3859
0.5200 0.1581 0.4071
0.5400 0.1648 0.3855
0.5600 0.1715 0.3913
0.5800 0.1782 0.4036
0.6000 0.1848 0.3878
0.6200 0.1914 0.3942
0.6400 0.1980 0.4014
0.6600 0.2047 0.3854
0.6800 0.2115 0.3965
0.7000 0.2182 0.3990
0.7200 0.2248 0.3844
0.7400 0.2315 0.3987
0.7600 0.2381 0.4005
0.7800 0.2447 0.3824
0.8000 0.2513 0.3983
0.8200 0.2580 0.3968
0.8400 0.2647 0.3873
0.8600 0.2714 0.3965
0.8800 0.2781 0.3913
0.9000 0.2848 0.3851
0.9200 0.2915 0.4021
0.9400 0.2981 0.3894
0.9600 0.3047 0.3845
0.9800 0.3114 0.3974
1.0000 0.3180 0.3888
1.0200 0.3247 0.3872
1.0400 0.3314 0.3931
1.0600 0.3381 0.3881
1.0800 0.3448 0.3898
1.1000 0.3515 0.3957
1.1200 0.3582 0.3850
1.1400 0.3648 0.3883
1.1600 0.3714 0.3920
1.1800 0.3780 0.3876
1.2000 0.3847 0.3834
1.2200 0.3915 0.3920
1.2400 0.3982 0.3844
1.2600 0.4049 0.3870
1.2800 0.4115 0.3864
1.3000 0.4182 0.3883
1.3200 0.4248 0.3853
1.3400 0.4314 0.3837
1.3600 0.4381 0.3838
1.3800 0.4448 0.3882
1.4000 0.4515 0.3832
1.4200 0.4582 0.3822
1.4400 0.4648 0.3837
1.4600 0.4715 0.3860
1.4800 0.4782 0.3759
1.5000 0.4848 0.3827
1.5200 0.4914 0.3833
1.5400 0.4980 0.3769
1.5600 0.5047 0.3815
1.5800 0.5114 0.3820
1.6000 0.5181 0.3768
1.6200 0.5248 0.3796
1.6400 0.5315 0.3823
1.6600 0.5381 0.3715
1.6800 0.5447 0.3795
1.7000 0.5513 0.3807
1.7200 0.5579 0.3698
1.7400 0.5646 0.3752
1.7600 0.5714 0.3848
1.7800 0.5781 0.3675
1.8000 0.5848 0.3798
1.8200 0.5914 0.3760
1.8400 0.5981 0.3633
1.8600 0.6048 0.3812
1.8800 0.6114 0.3797
1.9000 0.6180 0.3605
1.9200 0.6247 0.3800
1.9400 0.6314 0.3764
1.9600 0.6381 0.3610
1.9800 0.6448 0.3806
2.0000 0.6515 0.3708
2.0200 0.6582 0.3581
2.0400 0.6648 0.3777
2.0600 0.6714 0.3732
2.0800 0.6780 0.3611
2.1000 0.6847 0.3733
2.1200 0.6914 0.3685
2.1400 0.6981 0.3625
2.1600 0.7048 0.3700
2.1800 0.7115 0.3683
2.2000 0.7181 0.3581
2.2200 0.7248 0.3684
2.2400 0.7314 0.3599
2.2600 0.7380 0.3613
2.2800 0.7447 0.3694
2.3000 0.7514 0.3654
2.3200 0.7581 0.3462
2.3400 0.7648 0.3629
2.3600 0.7715 0.3641
2.3800 0.7781 0.3496
2.4000 0.7848 0.3623
2.4200 0.7914 0.3613
2.4400 0.7980 0.3463
2.4600 0.8047 0.3597
2.4800 0.8114 0.3579
2.5000 0.8181 0.3496
2.5200 0.8248 0.3611
2.5400 0.8314 0.3526
2.5600 0.8381 0.3469
2.5800 0.8448 0.3625
2.6000 0.8514 0.3562
2.6200 0.8580 0.3441
2.6400 0.8647 0.3618
2.6600 0.8714 0.3529
2.6800 0.8781 0.3439
2.7000 0.8848 0.3591
2.7200 0.8915 0.3535
2.7400 0.8982 0.3442
2.7600 0.9048 0.3624
2.7800 0.9114 0.3504
2.8000 0.9180 0.3520
2.8200 0.9247 0.3603
2.8400 0.9315 0.3501
2.8600 0.9382 0.3445
2.8800 0.9448 0.3601
2.9000 0.9515 0.3526
2.9200 0.9582 0.3492
2.9400 0.9648 0.3537
2.9600 0.9714 0.3536
2.9800 0.9780 0.3525
3.0000 0.9847 0.3525
3.0200 0.9914 0.3536
3.0400 0.9981 0.3570
3.0600 1.0048 0.3520
3.0800 1.0115 0.3499
3.1000 1.0181 0.3569
3.1200 1.0248 0.3492
3.1400 1.0314 0.3516
3.1600 1.0380 0.3521
3.1800 1.0447 0.3553
3.2000 1.0514 0.3526
3.2200 1.0581 0.3496
3.2400 1.0648 0.3482
3.2600 1.0715 0.3600
3.2800 1.0781 0.3528
3.3000 1.0848 0.3452
3.3200 1.0914 0.3587
3.3400 1.0980 0.3524
3.3600 1.1047 0.3471
3.3800 1.1115 0.3613
3.4000 1.1182 0.3462
3.4200 1.1249 0.3463
3.4400 1.1315 0.3607
3.4600 1.1382 0.3411
3.4800 1.1448 0.3445
3.5000 1.1514 0.3624
3.5200 1.1580 0.3372
3.5400 1.1647 0.3428
3.5600 1.1714 0.3577
3.5800 1.1781 0.3380
3.6000 1.1848 0.3478
3.6200 1.1915 0.3494
3.6400 1.1982 0.3349
3.6600 1.2048 0.3462
3.6800 1.2114 0.3509
3.7000 1.2180 0.3365
3.7200 1.2247 0.3471
3.7400 1.2314 0.3437
3.7600 1.2381 0.3375
3.7800 1.2448 0.3413
3.8000 1.2515 0.3447
3.8200 1.2582 0.3327
3.8400 1.2648 0.3405
3.8600 1.2714 0.3396
3.8800 1.2780 0.3379
3.9000 1.2847 0.3413
3.9200 1.2914 0.3378
3.9400 1.2981 0.3329
3.9600 1.3048 0.3386
3.9800 1.3114 0.3410
4.0000 1.3181 0.3301
4.0200 1.3248 0.3315
4.0400 1.3314 0.3372
4.0600 1.3380 0.3310
4.0800 1.3447 0.3320
4.1000 1.3514 0.3378
4.1200 1.3581 0.3288
4.1400 1.3648 0.3290
4.1600 1.3715 0.3379
4.1800 1.3782 0.3290
4.2000 1.3849 0.3308
4.2200 1.3915 0.3395
4.2400 1.3981 0.3216
4.2600 1.4047 0.3352
4.2800 1.4114 0.3375
4.3000 1.4182 0.3285
4.3200 1.4248 0.3321
4.3400 1.4315 0.3371
4.3600 1.4381 0.3208
4.3800 1.4448 0.3328
4.4000 1.4514 0.3350
4.4200 1.4580 0.3236
4.4400 1.4647 0.3305
4.4600 1.4714 0.3330
4.4800 1.4781 0.3197
4.5000 1.4848 0.3268
4.5200 1.4914 0.3313
4.5400 1.4981 0.3231
4.5600 1.5048 0.3290
4.5800 1.5114 0.3269
4.6000 1.5180 0.3237
4.6200 1.5247 0.3271
4.6400 1.5314 0.3287
4.6600 1.5381 0.3219
4.6800 1.5448 0.3213
4.7000 1.5515 0.3269
4.7200 1.5582 0.3297
4.7400 1.5649 0.3207
4.7600 1.5715 0.3271
4.7800 1.5780 0.3247
4.8000 1.5847 0.3278
4.8200 1.5914 0.3229
4.8400 1.5981 0.3256
4.8600 1.6048 0.3196
4.8800 1.6115 0.3243
4.9000 1.6182 0.3240
4.9200 1.6248 0.3123
4.9400 1.6314 0.3297
4.9600 1.6380 0.3289
4.9800 1.6447 0.3114
5.0000 1.6514 0.3289
5.0200 1.6581 0.3260
5.0400 1.6648 0.3129
5.0600 1.6715 0.3280
5.0800 1.6782 0.3238
5.1000 1.6848 0.3131
5.1200 1.6915 0.3278
5.1400 1.6981 0.3238
5.1600 1.7047 0.3081
5.1800 1.7114 0.3318
5.2000 1.7181 0.3213
5.2200 1.7248 0.3136
5.2400 1.7315 0.3258
5.2600 1.7382 0.3236
5.2800 1.7448 0.3152
5.3000 1.7514 0.3256
5.3200 1.7580 0.3222
5.3400 1.7647 0.3174
5.3600 1.7714 0.3243
5.3800 1.7781 0.3211
5.4000 1.7848 0.3131
5.4200 1.7915 0.3276
5.4400 1.7981 0.3141
5.4600 1.8048 0.3128
5.4800 1.8114 0.3251
5.5000 1.8180 0.3129
5.5200 1.8247 0.3166
5.5400 1.8314 0.3198
5.5600 1.8381 0.3150
5.5800 1.8448 0.3170
5.6000 1.8515 0.3200
5.6200 1.8582 0.3153
5.6400 1.8648 0.3185
5.6600 1.8715 0.3164
5.6800 1.8781 0.3141
5.7000 1.8847 0.3177
5.7200 1.8914 0.3161
5.7400 1.8981 0.3147
5.7600 1.9048 0.3144
5.7800 1.9115 0.3107
5.8000 1.9182 0.3261
5.8200 1.9248 0.3085
5.8400 1.9314 0.3100
5.8600 1.9380 0.3223
5.8800 1.9447 0.3095
5.9000 1.9514 0.3108
5.9200 1.9582 0.3208
5.9400 1.9648 0.3100
5.9600 1.9715 0.3088
5.9800 1.9781 0.3212
6.0000 1.9848 0.3047
6.0200 1.9914 0.3084
6.0400 1.9980 0.3186
6.0600 2.0047 0.3001
6.0800 2.0114 0.3141
6.1000 2.0181 0.3147
6.1200 2.0247 0.3011
6.1400 2.0314 0.3150
6.1600 2.0381 0.3136
6.1800 2.0448 0.3036
6.2000 2.0515 0.3087
6.2200 2.0581 0.3093
6.2400 2.0647 0.3023
6.2600 2.0714 0.3168
6.2800 2.0781 0.3057
6.3000 2.0848 0.2995
6.3200 2.0915 0.3108
6.3400 2.0982 0.3001
6.3600 2.1049 0.3021
6.3800 2.1115 0.3111
6.4000 2.1181 0.3037
6.4200 2.1247 0.3032
6.4400 2.1314 0.3010
6.4600 2.1382 0.3023
6.4800 2.1449 0.3079
6.5000 2.1515 0.2977
6.5200 2.1581 0.3045
6.5400 2.1648 0.3056
6.5600 2.1714 0.3009
6.5800 2.1781 0.3040
6.6000 2.1847 0.3036
6.6200 2.1914 0.2928
6.6400 2.1981 0.3077
6.6600 2.2048 0.3015
6.6800 2.2115 0.2945
6.7000 2.2181 0.3073
6.7200 2.2248 0.2948
6.7400 2.2315 0.2840
6.7600 2.2380 0.3126
6.7800 2.2447 0.2944
6.8000 2.2513 0.2900
6.8200 2.2581 0.3088
6.8400 2.2648 0.2905
6.8600 2.2715 0.2884
6.8800 2.2782 0.3140
6.9000 2.2848 0.2867
6.9200 2.2914 0.2937
6.9400 2.2980 0.3106
6.9600 2.3047 0.2854
6.9800 2.3114 0.2940
7.0000 2.3181 0.3034
7.0200 2.3248 0.2862
7.0400 2.3315 0.2932
7.0600 2.3382 0.2958
7.0800 2.3448 0.2887
7.1000 2.3515 0.2955
7.1200 2.3581 0.2886
7.1400 2.3647 0.2862
7.1600 2.3714 0.2950
7.1800 2.3781 0.2874
7.2000 2.3848 0.2834
7.2200 2.3915 0.2953
7.2400 2.3982 0.2867
7.2600 2.4049 0.2886
7.2800 2.4115 0.2879
7.3000 2.4181 0.2866
7.3200 2.4247 0.2876
7.3400 2.4314 0.2864
7.3600 2.4381 0.2849
7.3800 2.4448 0.2899
7.4000 2.4515 0.2785
7.4200 2.4581 0.2844
7.4400 2.4648 0.2931
7.4600 2.4714 0.2772
7.4800 2.4780 0.2799
7.5000 2.4847 0.2936
7.5200 2.4913 0.2824
7.5400 2.4981 0.2802
7.5600 2.5047 0.2842
7.5800 2.5114 0.2738
7.6000 2.5181 0.2880
7.6200 2.5248 0.2830
7.6400 2.5314 0.2682
7.6600 2.5381 0.2848
7.6800 2.5447 0.2892
7.7000 2.5514 0.2704
7.7200 2.5581 0.2815
7.7400 2.5648 0.2828
7.7600 2.5715 0.2720
7.7800 2.5782 0.2882
7.8000 2.5849 0.2799
7.8200 2.5915 0.2627
7.8400 2.5981 0.2952
7.8600 2.6047 0.2862
7.8800 2.6114 0.2668
7.9000 2.6181 0.2808
7.9200 2.6248 0.2832
7.9400 2.6315 0.2765
7.9600 2.6382 0.2780
7.9800 2.6448 0.2753
8.0000 2.6515 0.2863
8.0200 2.6581 0.2789
8.0400 2.6647 0.2665
8.0600 2.6714 0.2809
8.0800 2.6781 0.2835
8.1000 2.6848 0.2721
8.1200 2.6914 0.2725
8.1400 2.6981 0.2808
8.1600 2.7048 0.2729
8.1800 2.7115 0.2726
8.2000 2.7181 0.2733
8.2200 2.7247 0.2843
8.2400 2.7314 0.2719
8.2600 2.7381 0.2689
8.2800 2.7447 0.2781
8.3000 2.7514 0.2691
8.3200 2.7581 0.2765
8.3400 2.7648 0.2808
8.3600 2.7714 0.2582
8.3800 2.7780 0.2748
8.4000 2.7847 0.2865
8.4200 2.7914 0.2603
8.4400 2.7981 0.2711
8.4600 2.8048 0.2831
8.4800 2.8115 0.2569
8.5000 2.8182 0.2763
8.5200 2.8248 0.2794
8.5400 2.8315 0.2544
8.5600 2.8381 0.2846
8.5800 2.8447 0.2780
8.6000 2.8514 0.2523
8.6200 2.8581 0.2792
8.6400 2.8648 0.2775
8.6600 2.8715 0.2526
8.6800 2.8782 0.2784
8.7000 2.8848 0.2711
8.7200 2.8915 0.2584
8.7400 2.8981 0.2778
8.7600 2.9047 0.2711
8.7800 2.9114 0.2607
8.8000 2.9181 0.2821
8.8200 2.9248 0.2623
8.8400 2.9314 0.2607
8.8600 2.9381 0.2733
8.8800 2.9448 0.2671
8.9000 2.9515 0.2606
8.9200 2.9581 0.2676
8.9400 2.9647 0.2632
8.9600 2.9713 0.2712
8.9800 2.9780 0.2692
9.0000 2.9848 0.2587
9.0200 2.9915 0.2691
9.0400 2.9981 0.2646
9.0600 3.0048 0.2617
9.0800 3.0115 0.2650
9.1000 3.0181 0.2576
9.1200 3.0247 0.2650
9.1400 3.0314 0.2694
9.1600 3.0381 0.2514
9.1800 3.0448 0.2638
9.2000 3.0514 0.2644
9.2200 3.0581 0.2544
9.2400 3.0648 0.2604
9.2600 3.0715 0.2617
9.2800 3.0781 0.2509
9.3000 3.0847 0.2674
9.3200 3.0914 0.2551
9.3400 3.0981 0.2514
9.3600 3.1048 0.2643
9.3800 3.1115 0.2542
9.4000 3.1182 0.2459
9.4200 3.1249 0.2632
9.4400 3.1315 0.2536
9.4600 3.1381 0.2497
9.4800 3.1447 0.2611
9.5000 3.1514 0.2461
9.5200 3.1581 0.2553
9.5400 3.1648 0.2578
9.5600 3.1715 0.2459
9.5800 3.1782 0.2524
9.6000 3.1848 0.2572
9.6200 3.1915 0.2486
9.6400 3.1981 0.2521
9.6600 3.2047 0.2518
9.6800 3.2113 0.2544
9.7000 3.2180 0.2539
9.7200 3.2247 0.2447
9.7400 3.2314 0.2520
9.7600 3.2381 0.2587
9.7800 3.2448 0.2396
9.8000 3.2515 0.2503
9.8200 3.2581 0.2544
9.8400 3.2647 0.2423
9.8600 3.2714 0.2569
9.8800 3.2781 0.2493
9.9000 3.2848 0.2409
9.9200 3.2915 0.2524
9.9400 3.2982 0.2485
9.9600 3.3049 0.2478
9.9800 3.3115 0.2528
10.0000 3.3181 0.2401
10.0200 3.3247 0.2492
10.0400 3.3314 0.2588
10.0600 3.3381 0.2410
10.0800 3.3448 0.2469
10.1000 3.3515 0.2560
10.1200 3.3582 0.2335
10.1400 3.3648 0.2516
10.1600 3.3715 0.2542
10.1800 3.3781 0.2360
10.2000 3.3847 0.2456
10.2200 3.3914 0.2531
10.2400 3.3981 0.2398
10.2600 3.4048 0.2447
10.2800 3.4114 0.2527
10.3000 3.4181 0.2417
10.3200 3.4248 0.2406
10.3400 3.4315 0.2455
10.3600 3.4381 0.2383
10.3800 3.4447 0.2460
10.4000 3.4513 0.2444
10.4200 3.4580 0.2388
10.4400 3.4647 0.2378
10.4600 3.4714 0.2487
10.4800 3.4781 0.2412
10.5000 3.4848 0.2390
10.5200 3.4915 0.2482
10.5400 3.4981 0.2352
10.5600 3.5047 0.2404
10.5800 3.5114 0.2516
10.6000 3.5181 0.2395
10.6200 3.5248 0.2326
10.6400 3.5315 0.2464
10.6600 3.5382 0.2358
10.6800 3.5448 0.2369
10.7000 3.5515 0.2472
10.7200 3.5581 0.2316
10.7400 3.5648 0.2378
10.7600 3.5714 0.2502
10.7800 3.5781 0.2288
10.8000 3.5848 0.2401
10.8200 3.5915 0.2459
10.8400 3.5982 0.2261
10.8600 3.6049 0.2333
10.8800 3.6115 0.2475
10.9000 3.6181 0.2274
10.9200 3.6247 0.2355
10.9400 3.6313 0.2471
10.9600 3.6380 0.2321
10.9800 3.6448 0.2344
11.0000 3.6515 0.2417
11.0200 3.6581 0.2269
11.0400 3.6648 0.2377
11.0600 3.6715 0.2399
11.0800 3.6781 0.2269
11.1000 3.6847 0.2414
11.1200 3.6913 0.2372
11.1400 3.6980 0.2251
11.1600 3.7048 0.2361
11.1800 3.7114 0.2412
11.2000 3.7181 0.2242
11.2200 3.7248 0.2386
11.2400 3.7315 0.2376
11.2600 3.7381 0.2199
11.2800 3.7447 0.2351
11.3000 3.7514 0.2400
11.3200 3.7581 0.2191
11.3400 3.7648 0.2374
11.3600 3.7715 0.2379
11.3800 3.7782 0.2231
11.4000 3.7849 0.2346
11.4200 3.7915 0.2373
11.4400 3.7982 0.2223
11.4600 3.8047 0.2342
11.4800 3.8114 0.2377
11.5000 3.8181 0.2222
11.5200 3.8248 0.2360
11.5400 3.8315 0.2313
11.5600 3.8382 0.2229
11.5800 3.8448 0.2370
11.6000 3.8515 0.2302
11.6200 3.8581 0.2162
11.6400 3.8647 0.2391
11.6600 3.8714 0.2343
11.6800 3.8781 0.2202
11.7000 3.8848 0.2298
11.7200 3.8915 0.2363
11.7400 3.8981 0.2181
11.7600 3.9048 0.2311
11.7800 3.9115 0.2334
11.8000 3.9181 0.2246
11.8200 3.9247 0.2293
11.8400 3.9313 0.2290
11.8600 3.9380 0.2243
11.8800 3.9447 0.2242
11.9000 3.9514 0.2314
11.9200 3.9581 0.2249
11.9400 3.9648 0.2208
11.9600 3.9715 0.2279
11.9800 3.9781 0.2286
12.0000 3.9847 0.2209
12.0200 3.9913 0.2257
12.0400 3.9980 0.2362
12.0600 4.0048 0.2193
12.0800 4.0115 0.2217
12.1000 4.0182 0.2310
12.1200 4.0249 0.2178
12.1400 4.0315 0.2281
12.1600 4.0381 0.2257
12.1800 4.0448 0.2208
12.2000 4.0514 0.2305
12.2200 4.0581 0.2286
12.2400 4.0648 0.2159
12.2600 4.0715 0.2297
12.2800 4.0781 0.2237
12.3000 4.0848 0.2170
12.3200 4.0915 0.2254
12.3400 4.0981 0.2182
12.3600 4.1047 0.2133
12.3800 4.1114 0.2327
12.4000 4.1180 0.2134
12.4200 4.1247 0.2146
12.4400 4.1314 0.2296
12.4600 4.1381 0.2167
12.4800 4.1448 0.2195
12.5000 4.1515 0.2224
12.5200 4.1581 0.2149
12.5400 4.1647 0.2162
12.5600 4.1713 0.2248
12.5800 4.1780 0.2146
12.6000 4.1847 0.2188
12.6200 4.1914 0.2173
12.6400 4.1981 0.2155
12.6600 4.2048 0.2180
12.6800 4.2114 0.2189
12.7000 4.2181 0.2179
12.7200 4.2247 0.2129
12.7400 4.2314 0.2172
12.7600 4.2380 0.2211
12.7800 4.2448 0.2078
12.8000 4.2515 0.2177
12.8200 4.2582 0.2160
12.8400 4.2648 0.2102
12.8600 4.2715 0.2161
12.8800 4.2782 0.2193
12.9000 4.2848 0.2075
12.9200 4.2914 0.2154
12.9400 4.2981 0.2171
12.9600 4.3048 0.2088
12.9800 4.3115 0.2149
13.0000 4.3182 0.2172
13.0200 4.3249 0.2084
13.0400 4.3315 0.2186
13.0600 4.3382 0.2145
13.0800 4.3448 0.2003
13.1000 4.3514 0.2191
13.1200 4.3580 0.2186
13.1400 4.3647 0.2027
13.1600 4.3714 0.2156
13.1800 4.3781 0.2111
13.2000 4.3848 0.2010
13.2200 4.3915 0.2158
13.2400 4.3981 0.2097
13.2600 4.4047 0.2055
13.2800 4.4114 0.2089
13.3000 4.4180 0.2080
13.3200 4.4247 0.2051
13.3400 4.4314 0.2133
13.3600 4.4381 0.2042
13.3800 4.4448 0.2030
13.4000 4.4514 0.2077
13.4200 4.4581 0.2046
13.4400 4.4648 0.2087
13.4600 4.4714 0.2075
13.4800 4.4780 0.2010
13.5000 4.4847 0.2063
13.5200 4.4915 0.2036
13.5400 4.4982 0.2061
13.5600 4.5048 0.2096
13.5800 4.5115 0.2034
13.6000 4.5182 0.1980
13.6200 4.5247 0.2064
13.6400 4.5314 0.2029
13.6600 4.5380 0.2025
13.6800 4.5448 0.2093
13.7000 4.5515 0.1977
13.7200 4.5582 0.2029
13.7400 4.5648 0.2040
13.7600 4.5715 0.2032
13.7800 4.5781 0.1985
13.8000 4.5848 0.2091
13.8200 4.5914 0.1960
13.8400 4.5981 0.2033
13.8600 4.6047 0.2078
13.8800 4.6114 0.1922
13.9000 4.6181 0.2036
13.9200 4.6248 0.2091
13.9400 4.6315 0.1875
13.9600 4.6381 0.2084
13.9800 4.6448 0.2049
14.0000 4.6513 0.1876
14.0200 4.6580 0.2118
14.0400 4.6647 0.2047
14.0600 4.6714 0.1877
14.0800 4.6781 0.2065
14.1000 4.6848 0.2056
14.1200 4.6914 0.1896
14.1400 4.6981 0.2083
14.1600 4.7047 0.1991
14.1800 4.7113 0.1947
14.2000 4.7180 0.2098
14.2200 4.7247 0.1949
14.2400 4.7315 0.1939
14.2600 4.7382 0.2125
14.2800 4.7448 0.1885
14.3000 4.7515 0.1956
14.3200 4.7582 0.2076
14.3400 4.7648 0.1924
14.3600 4.7714 0.1940
14.3800 4.7781 0.2049
14.4000 4.7848 0.1921
14.4200 4.7915 0.1968
14.4400 4.7982 0.2016
14.4600 4.8048 0.1904
14.4800 4.8115 0.1994
14.5000 4.8182 0.1966
14.5200 4.8248 0.1923
14.5400 4.8314 0.1974
14.5600 4.8380 0.1940
14.5800 4.8447 0.1930
14.6000 4.8514 0.1934
14.6200 4.8581 0.1911
14.6400 4.8648 0.1918
14.6600 4.8715 0.1920
14.6800 4.8781 0.1921
14.7000 4.8847 0.1871
14.7200 4.8913 0.1948
14.7400 4.8980 0.1899
14.7600 4.9047 0.1959
14.7800 4.9115 0.1893
14.8000 4.9182 0.1880
14.8200 4.9248 0.1890
14.8400 4.9315 0.1864
14.8600 4.9381 0.1882
14.8800 4.9448 0.1906
14.9000 4.9514 0.1870
14.9200 4.9581 0.1893
14.9400 4.9648 0.1900
14.9600 4.9715 0.1862
14.9800 4.9781 0.1864
15.0000 4.9848 0.1879
15.0200 4.9915 0.1837
15.0400 4.9982 0.1855
15.0600 5.0048 0.1848
15.0800 5.0114 0.1837
15.1000 5.0180 0.1882
15.1200 5.0247 0.1864
15.1400 5.0315 0.1813
15.1600 5.0382 0.1813
15.1800 5.0448 0.1865
15.2000 5.0515 0.1785
15.2200 5.0581 0.1801
15.2400 5.0647 0.1827
15.2600 5.0714 0.1829
15.2800 5.0780 0.1803
15.3000 5.0847 0.1825
15.3200 5.0914 0.1803
15.3400 5.0981 0.1808
15.3600 5.1048 0.1837
15.3800 5.1115 0.1780
15.4000 5.1181 0.1760
15.4200 5.1248 0.1842
15.4400 5.1314 0.1756
15.4600 5.1380 0.1803
15.4800 5.1447 0.1807
15.5000 5.1514 0.1742
15.5200 5.1581 0.1807
15.5400 5.1648 0.1803
15.5600 5.1715 0.1753
15.5800 5.1782 0.1800
15.6000 5.1848 0.1818
15.6200 5.1914 0.1764
15.6400 5.1980 0.1817
15.6600 5.2047 0.1804
15.6800 5.2115 0.1769
15.7000 5.2182 0.1773
15.7200 5.2248 0.1811
15.7400 5.2315 0.1728
15.7600 5.2382 0.1781
15.7800 5.2448 0.1827
15.8000 5.2514 0.1768
15.8200 5.2580 0.1791
15.8400 5.2648 0.1854
15.8600 5.2715 0.1708
15.8800 5.2782 0.1810
15.9000 5.2848 0.1847
15.9200 5.2915 0.1764
15.9400 5.2982 0.1749
15.9600 5.3048 0.1804
15.9800 5.3114 0.1754
16.0000 5.3180 0.1751
16.0200 5.3247 0.1776
16.0400 5.3314 0.1748
16.0600 5.3381 0.1746
16.0800 5.3448 0.1764
16.1000 5.3515 0.1758
16.1200 5.3582 0.1713
16.1400 5.3648 0.1797
16.1600 5.3713 0.1729
16.1800 5.3780 0.1741
16.2000 5.3847 0.1773
16.2200 5.3914 0.1680
16.2400 5.3981 0.1721
16.2600 5.4048 0.1778
16.2800 5.4115 0.1693
16.3000 5.4181 0.1752
16.3200 5.4248 0.1704
16.3400 5.4314 0.1720
16.3600 5.4380 0.1729
16.3800 5.4447 0.1726
16.4000 5.4515 0.1695
16.4200 5.4581 0.1727
16.4400 5.4648 0.1693
16.4600 5.4715 0.1734
16.4800 5.4782 0.1710
16.5000 5.4848 0.1665
16.5200 5.4914 0.1742
16.5400 5.4981 0.1707
16.5600 5.5047 0.1672
16.5800 5.5114 0.1723
16.6000 5.5181 0.1680
16.6200 5.5248 0.1679
16.6400 5.5315 0.1728
16.6600 5.5382 0.1657
16.6800 5.5448 0.1640
16.7000 5.5514 0.1772
16.7200 5.5580 0.1690
16.7400 5.5647 0.1626
16.7600 5.5714 0.1766
16.7800 5.5781 0.1661
16.8000 5.5848 0.1676
16.8200 5.5915 0.1695
16.8400 5.5981 0.1681
16.8600 5.6048 0.1669
16.8800 5.6114 0.1690
16.9000 5.6180 0.1678
16.9200 5.6247 0.1683
16.9400 5.6314 0.1701
16.9600 5.6381 0.1651
16.9800 5.6448 0.1658
17.0000 5.6514 0.1704
17.0200 5.6581 0.1680
17.0400 5.6648 0.1631
17.0600 5.6714 0.1638
17.0800 5.6781 0.1693
17.1000 5.6847 0.1635
17.1200 5.6914 0.1632
17.1400 5.6981 0.1714
17.1600 5.7048 0.1575
17.1800 5.7115 0.1678
17.2000 5.7182 0.1663
17.2200 5.7248 0.1574
17.2400 5.7314 0.1689
17.2600 5.7380 0.1698
17.2800 5.7447 0.1564
17.3000 5.7515 0.1641
17.3200 5.7582 0.1639
17.3400 5.7648 0.1602
17.3600 5.7715 0.1665
17.3800 5.7782 0.1615
17.4000 5.7848 0.1517
17.4200 5.7914 0.1695
17.4400 5.7980 0.1591
17.4600 5.8047 0.1528
17.4800 5.8114 0.1680
17.5000 5.8181 0.1590
17.5200 5.8248 0.1542
17.5400 5.8314 0.1686
17.5600 5.8381 0.1550
17.5800 5.8448 0.1525
17.6000 5.8514 0.1693
17.6200 5.8580 0.1534
17.6400 5.8647 0.1559
17.6600 5.8714 0.1652
17.6800 5.8781 0.1527
17.7000 5.8848 0.1558
17.7200 5.8915 0.1667
17.7400 5.8981 0.1464
17.7600 5.9048 0.1570
17.7800 5.9114 0.1652
17.8000 5.9181 0.1522
17.8200 5.9247 0.1587
17.8400 5.9315 0.1655
17.8600 5.9382 0.1442
17.8800 5.9448 0.1573
17.9000 5.9515 0.1612
17.9200 5.9582 0.1474
17.9400 5.9648 0.1527
17.9600 5.9714 0.1615
17.9800 5.9780 0.1503
18.0000 5.9847 0.1583
18.0200 5.9914 0.1575
18.0400 5.9981 0.1494
18.0600 6.0048 0.1519
18.0800 6.0115 0.1568
18.1000 6.0182 0.1556
18.1200 6.0248 0.1536
18.1400 6.0314 0.1580
18.1600 6.0380 0.1488
18.1800 6.0447 0.1544
18.2000 6.0514 0.1578
18.2200 6.0581 0.1517
18.2400 6.0648 0.1495
18.2600 6.0715 0.1559
18.2800 6.0782 0.1485
18.3000 6.0848 0.1460
18.3200 6.0914 0.1555
18.3400 6.0980 0.1569
18.3600 6.1047 0.1488
18.3800 6.1114 0.1554
18.4000 6.1181 0.1491
18.4200 6.1248 0.1554
18.4400 6.1314 0.1571
18.4600 6.1381 0.1483
18.4800 6.1448 0.1499
18.5000 6.1514 0.1590
18.5200 6.1580 0.1467
18.5400 6.1647 0.1477
18.5600 6.1714 0.1546
18.5800 6.1781 0.1416
18.6000 6.1848 0.1485
18.6200 6.1915 0.1533
18.6400 6.1982 0.1419
18.6600 6.2049 0.1518
18.6800 6.2115 0.1516
18.7000 6.2181 0.1395
18.7200 6.2247 0.1516
18.7400 6.2314 0.1491
18.7600 6.2381 0.1420
18.7800 6.2448 0.1488
18.8000 6.2515 0.1502
18.8200 6.2582 0.1376
18.8400 6.2648 0.1499
18.8600 6.2714 0.1479
18.8800 6.2780 0.1399
18.9000 6.2847 0.1454
18.9200 6.2914 0.1458
18.9400 6.2981 0.1415
18.9600 6.3048 0.1469
18.9800 6.3114 0.1470
19.0000 6.3181 0.1428
19.0200 6.3248 0.1439
19.0400 6.3314 0.1449
19.0600 6.3380 0.1424
19.0800 6.3447 0.1433
19.1000 6.3514 0.1436
19.1200 6.3581 0.1394
19.1400 6.3648 0.1436
19.1600 6.3715 0.1442
19.1800 6.3782 0.1374
19.2000 6.3848 0.1420
19.2200 6.3915 0.1437
19.2400 6.3981 0.1345
19.2600 6.4047 0.1441
19.2800 6.4114 0.1400
19.3000 6.4181 0.1348
19.3200 6.4248 0.1441
19.3400 6.4315 0.1418
19.3600 6.4382 0.1311
19.3800 6.4448 0.1433
19.4000 6.4515 0.1399
19.4200 6.4581 0.1331
19.4400 6.4647 0.1416
19.4600 6.4714 0.1421
19.4800 6.4781 0.1265
19.5000 6.4848 0.1421
19.5200 6.4915 0.1393
19.5400 6.4982 0.1298
19.5600 6.5048 0.1405
19.5800 6.5115 0.1324
19.6000 6.5181 0.1296
19.6200 6.5247 0.1425
19.6400 6.5314 0.1338
19.6600 6.5381 0.1263
19.6800 6.5448 0.1425
19.7000 6.5515 0.1363
19.7200 6.5582 0.1297
19.7400 6.5648 0.1398
19.7600 6.5715 0.1348
19.7800 6.5780 0.1295
19.8000 6.5847 0.1399
19.8200 6.5914 0.1290
19.8400 6.5981 0.1305
19.8600 6.6048 0.1336
19.8800 6.6115 0.1304
19.9000 6.6181 0.1287
19.9200 6.6248 0.1365
19.9400 6.6314 0.1294
19.9600 6.6380 0.1328
19.9800 6.6447 0.1317
20.0000 6.6514 0.1255
20.0200 6.6581 0.1319
20.0400 6.6648 0.1320
20.0600 6.6715 0.1263
20.0800 6.6781 0.1307
20.1000 6.6848 0.1290
20.1200 6.6915 0.1289
20.1400 6.6981 0.1291
20.1600 6.7047 0.1286
20.1800 6.7114 0.1297
20.2000 6.7181 0.1205
20.2200 6.7248 0.1263
20.2400 6.7315 0.1315
20.2600 6.7382 0.1214
20.2800 6.7449 0.1258
20.3000 6.7515 0.1281
20.3200 6.7581 0.1223
20.3400 6.7647 0.1338
20.3600 6.7714 0.1287
20.3800 6.7781 0.1206
20.4000 6.7848 0.1282
20.4200 6.7915 0.1276
20.4400 6.7981 0.1162
20.4600 6.8048 0.1302
20.4800 6.8114 0.1260
20.5000 6.8180 0.1183
20.5200 6.8247 0.1310
20.5400 6.8314 0.1227
20.5600 6.8381 0.1166
20.5800 6.8448 0.1347
20.6000 6.8514 0.1199
20.6200 6.8581 0.1204
20.6400 6.8648 0.1377
20.6600 6.8714 0.1175
20.6800 6.8781 0.1201
20.7000 6.8847 0.1350
20.7200 6.8914 0.1208
20.7400 6.8981 0.1210
20.7600 6.9048 0.1381
20.7800 6.9115 0.1147
20.8000 6.9182 0.1224
20.8200 6.9249 0.1341
20.8400 6.9315 0.1153
20.8600 6.9381 0.1243
20.8800 6.9447 0.1335
20.9000 6.9514 0.1121
20.9200 6.9581 0.1251
20.9400 6.9648 0.1333
20.9600 6.9715 0.1177
20.9800 6.9782 0.1301
21.0000 6.9848 0.1280
21.0200 6.9914 0.1112
21.0400 6.9981 0.1358
21.0600 7.0047 0.1296
21.0800 7.0114 0.1142
21.1000 7.0181 0.1329
21.1200 7.0248 0.1251
21.1400 7.0314 0.1231
21.1600 7.0381 0.1316
21.1800 7.0448 0.1228
21.2000 7.0515 0.1214
21.2200 7.0581 0.1340
21.2400 7.0647 0.1217
21.2600 7.0713 0.1192
21.2800 7.0781 0.1314
21.3000 7.0848 0.1247
21.3200 7.0915 0.1138
21.3400 7.0982 0.1245
21.3600 7.1048 0.1260
21.3800 7.1115 0.1187
21.4000 7.1180 0.1187
21.4200 7.1247 0.1290
21.4400 7.1314 0.1195
21.4600 7.1381 0.1228
21.4800 7.1448 0.1234
21.5000 7.1515 0.1174
21.5200 7.1581 0.1217
21.5400 7.1648 0.1247
21.5600 7.1715 0.1088
21.5800 7.1781 0.1230
21.6000 7.1847 0.1274
21.6200 7.1914 0.1060
21.6400 7.1981 0.1237
21.6600 7.2048 0.1257
21.6800 7.2115 0.1117
21.7000 7.2182 0.1242
21.7200 7.2249 0.1187
21.7400 7.2315 0.1093
21.7600 7.2381 0.1261
21.7800 7.2447 0.1155
21.8000 7.2514 0.1169
21.8200 7.2581 0.1243
21.8400 7.2648 0.1135
21.8600 7.2715 0.1124
21.8800 7.2782 0.1235
21.9000 7.2848 0.1094
21.9200 7.2914 0.1128
21.9400 7.2980 0.1192
21.9600 7.3046 0.1107
21.9800 7.3113 0.1155
22.0000 7.3180 0.1159
22.0200 7.3248 0.1056
22.0400 7.3314 0.1180
22.0600 7.3381 0.1133
22.0800 7.3448 0.1101
22.1000 7.3514 0.1132
22.1200 7.3581 0.1102
22.1400 7.3647 0.1145
22.1600 7.3714 0.1146
22.1800 7.3781 0.1091
22.2000 7.3848 0.1096
22.2200 7.3915 0.1147
22.2400 7.3982 0.1012
22.2600 7.4049 0.1144
22.2800 7.4115 0.1083
22.3000 7.4181 0.1081
22.3200 7.4247 0.1124
22.3400 7.4314 0.1076
22.3600 7.4381 0.1102
22.3800 7.4448 0.1106
22.4000 7.4515 0.1021
22.4200 7.4582 0.1091
22.4400 7.4649 0.1111
22.4600 7.4715 0.0995
22.4800 7.4781 0.1069
22.5000 7.4847 0.1111
22.5200 7.4914 0.1020
22.5400 7.4981 0.1108
22.5600 7.5048 0.1047
22.5800 7.5115 0.0987
22.6000 7.5181 0.1131
22.6200 7.5248 0.1045
22.6400 7.5315 0.1007
22.6600 7.5381 0.1089
22.6800 7.5447 0.1043
22.7000 7.5514 0.1054
22.7200 7.5581 0.1070
22.7400 7.5648 0.0950
22.7600 7.5714 0.1049
22.7800 7.5781 0.1085
22.8000 7.5848 0.0957
22.8200 7.5914 0.1051
22.8400 7.5981 0.1091
22.8600 7.6047 0.0934
22.8800 7.6114 0.1107
22.9000 7.6181 0.1002
22.9200 7.6248 0.0955
22.9400 7.6315 0.1088
22.9600 7.6382 0.1013
22.9800 7.6449 0.0956
23.0000 7.6515 0.1058
23.0200 7.6581 0.0987
23.0400 7.6647 0.0966
23.0600 7.6714 0.1044
23.0800 7.6781 0.0999
23.1000 7.6848 0.0954
23.1200 7.6915 0.1057
23.1400 7.6982 0.0965
23.1600 7.7048 0.0931
23.1800 7.7115 0.1067
23.2000 7.7181 0.0896
23.2200 7.7247 0.0973
23.2400 7.7314 0.1052
23.2600 7.7381 0.0918
23.2800 7.7448 0.0954
23.3000 7.7514 0.1004
23.3200 7.7581 0.0886
23.3400 7.7648 0.0982
23.3600 7.7715 0.0980
23.3800 7.7781 0.0913
23.4000 7.7847 0.0966
23.4200 7.7913 0.0993
23.4400 7.7980 0.0891
23.4600 7.8048 0.0964
23.4800 7.8115 0.0941
23.5000 7.8181 0.0914
23.5200 7.8248 0.0984
23.5400 7.8315 0.0897
23.5600 7.8381 0.0907
23.5800 7.8447 0.0944
23.6000 7.8514 0.0868
23.6200 7.8581 0.0926
23.6400 7.8648 0.0940
23.6600 7.8715 0.0882
23.6800 7.8781 0.0938
23.7000 7.8848 0.0880
23.7200 7.8915 0.0883
23.7400 7.8981 0.0943
23.7600 7.9047 0.0874
23.7800 7.9114 0.0854
23.8000 7.9180 0.0974
23.8200 7.9248 0.0847
23.8400 7.9315 0.0875
23.8600 7.9382 0.0927
23.8800 7.9449 0.0864
23.9000 7.9515 0.0844
23.9200 7.9581 0.0933
23.9400 7.9647 0.0848
23.9600 7.9714 0.0919
23.9800 7.9781 0.0968
24.0000 7.9848 0.0797
24.0200 7.9915 0.0845
24.0400 7.9982 0.0945
24.0600 8.0048 0.0870
24.0800 8.0115 0.0895
24.1000 8.0181 0.0941
24.1200 8.0247 0.0812
24.1400 8.0313 0.0898
24.1600 8.0380 0.0921
24.1800 8.0447 0.0795
24.2000 8.0514 0.0910
24.2200 8.0581 0.0979
24.2400 8.0648 0.0756
24.2600 8.0714 0.0904
24.2800 8.0781 0.0902
24.3000 8.0847 0.0775
24.3200 8.0913 0.0945
24.3400 8.0980 0.0862
24.3600 8.1048 0.0791
24.3800 8.1115 0.0982
24.4000 8.1182 0.0811
24.4200 8.1249 0.0816
24.4400 8.1316 0.0954
24.4600 8.1382 0.0833
24.4800 8.1447 0.0765
24.5000 8.1514 0.0944
24.5200 8.1581 0.0828
24.5400 8.1648 0.0819
24.5600 8.1715 0.0954
24.5800 8.1782 0.0803
24.6000 8.1848 0.0820
24.6200 8.1915 0.0901
24.6400 8.1981 0.0778
24.6600 8.2047 0.0851
24.6800 8.2114 0.0955
24.7000 8.2180 0.0783
24.7200 8.2247 0.0864
24.7400 8.2314 0.0918
24.7600 8.2381 0.0804
24.7800 8.2448 0.0852
24.8000 8.2515 0.0913
24.8200 8.2581 0.0795
24.8400 8.2647 0.0860
24.8600 8.2713 0.0861
24.8800 8.2780 0.0798
24.9000 8.2847 0.0860
24.9200 8.2914 0.0893
24.9400 8.2981 0.0799
24.9600 8.3048 0.0859
24.9800 8.3115 0.0850
25.0000 8.3181 0.0817
25.0200 8.3247 0.0848
25.0400 8.3314 0.0869
25.0600 8.3381 0.0844
25.0800 8.3448 0.0860
25.1000 8.3515 0.0851
25.1200 8.3582 0.0850
25.1400 8.3648 0.0830
25.1600 8.3715 0.0846
25.1800 8.3781 0.0900
25.2000 8.3848 0.0813
25.2200 8.3914 0.0861
25.2400 8.3981 0.0865
25.2600 8.4048 0.0796
25.2800 8.4115 0.0855
25.3000 8.4182 0.0819
25.3200 8.4248 0.0829
25.3400 8.4315 0.0925
25.3600 8.4381 0.0772
25.3800 8.4447 0.0873
25.4000 8.4513 0.0910
25.4200 8.4580 0.0768
25.4400 8.4648 0.0811
25.4600 8.4715 0.0928
25.4800 8.4781 0.0769
25.5000 8.4848 0.0847
25.5200 8.4915 0.0872
25.5400 8.4981 0.0802
25.5600 8.5047 0.0891
25.5800 8.5113 0.0825
25.6000 8.5180 0.0821
25.6200 8.5248 0.0847
25.6400 8.5315 0.0830
25.6600 8.5381 0.0773
25.6800 8.5448 0.0865
25.7000 8.5515 0.0810
25.7200 8.5581 0.0796
25.7400 8.5648 0.0860
25.7600 8.5714 0.0800
25.7800 8.5781 0.0802
25.8000 8.5848 0.0836
25.8200 8.5915 0.0807
25.8400 8.5981 0.0824
25.8600 8.6048 0.0789
25.8800 8.6115 0.0843
25.9000 8.6182 0.0784
25.9200 8.6248 0.0808
25.9400 8.6314 0.0808
25.9600 8.6381 0.0807
25.9800 8.6448 0.0791
26.0000 8.6515 0.0802
26.0200 8.6582 0.0794
26.0400 8.6648 0.0833
26.0600 8.6715 0.0817
26.0800 8.6781 0.0757
26.1000 8.6848 0.0803
26.1200 8.6914 0.0818
26.1400 8.6981 0.0764
26.1600 8.7048 0.0763
26.1800 8.7115 0.0829
26.2000 8.7181 0.0718
26.2200 8.7248 0.0764
26.2400 8.7315 0.0847
26.2600 8.7381 0.0687
26.2800 8.7447 0.0737
26.3000 8.7513 0.0837
26.3200 8.7580 0.0696
26.3400 8.7647 0.0799
26.3600 8.7714 0.0814
26.3800 8.7781 0.0670
26.4000 8.7848 0.0789
26.4200 8.7915 0.0814
26.4400 8.7981 0.0600
26.4600 8.8047 0.0831
26.4800 8.8114 0.0789
26.5000 8.8180 0.0653
26.5200 8.8248 0.0835
26.5400 8.8315 0.0762
26.5600 8.8382 0.0651
26.5800 8.8449 0.0807
26.6000 8.8515 0.0744
26.6200 8.8582 0.0607
26.6400 8.8648 0.0835
26.6600 8.8714 0.0717
26.6800 8.8781 0.0599
26.7000 8.8848 0.0841
26.7200 8.8915 0.0717
26.7400 8.8981 0.0606
26.7600 8.9048 0.0802
26.7800 8.9115 0.0693
26.8000 8.9181 0.0611
26.8200 8.9248 0.0753
26.8400 8.9314 0.0704
26.8600 8.9380 0.0601
26.8800 8.9447 0.0811
26.9000 8.9514 0.0667
26.9200 8.9581 0.0597
26.9400 8.9648 0.0758
26.9600 8.9715 0.0687
26.9800 8.9781 0.0565
27.0000 8.9847 0.0754
27.0200 8.9914 0.0705
27.0400 8.9980 0.0595
27.0600 9.0047 0.0746
27.0800 9.0114 0.0666
27.1000 9.0181 0.0593
27.1200 9.0248 0.0721
27.1400 9.0315 0.0654
27.1600 9.0381 0.0588
27.1800 9.0447 0.0669
27.2000 9.0514 0.0671
27.2200 9.0580 0.0619
27.2400 9.0648 0.0643
27.2600 9.0715 0.0673
27.2800 9.0782 0.0560
27.3000 9.0848 0.0677
27.3200 9.0915 0.0617
27.3400 9.0982 0.0579
27.3600 9.1048 0.0646
27.3800 9.1114 0.0630
27.4000 9.1181 0.0552
27.4200 9.1248 0.0654
27.4400 9.1315 0.0629
27.4600 9.1382 0.0564
27.4800 9.1449 0.0610
27.5000 9.1515 0.0587
27.5200 9.1582 0.0531
27.5400 9.1648 0.0644
27.5600 9.1714 0.0584
27.5800 9.1780 0.0554
27.6000 9.1847 0.0621
27.6200 9.1914 0.0568
27.6400 9.1981 0.0529
27.6600 9.2048 0.0598
27.6800 9.2115 0.0598
27.7000 9.2181 0.0514
27.7200 9.2248 0.0627
27.7400 9.2314 0.0583
27.7600 9.2380 0.0559
27.7800 9.2447 0.0595
27.8000 9.2514 0.0541
27.8200 9.2581 0.0482
27.8400 9.2648 0.0666
27.8600 9.2714 0.0533
27.8800 9.2781 0.0483
27.9000 9.2848 0.0607
27.9200 9.2914 0.0535
27.9400 9.2980 0.0461
27.9600 9.3047 0.0617
27.9800 9.3114 0.0487
28.0000 9.3181 0.0505
28.0200 9.3248 0.0566
28.0400 9.3315 0.0485
28.0600 9.3382 0.0491
28.0800 9.3448 0.0608
28.1000 9.3514 0.0493
28.1200 9.3580 0.0449
28.1400 9.3647 0.0554
28.1600 9.3715 0.0512
28.1800 9.3782 0.0456
28.2000 9.3848 0.0521
28.2200 9.3915 0.0539
28.2400 9.3982 0.0454
28.2600 9.4048 0.0506
28.2800 9.4114 0.0509
28.3000 9.4180 0.0477
28.3200 9.4247 0.0480
28.3400 9.4314 0.0473
28.3600 9.4381 0.0429
28.3800 9.4448 0.0532
28.4000 9.4515 0.0483
28.4200 9.4582 0.0469
28.4400 9.4648 0.0468
28.4600 9.4713 0.0481
28.4800 9.4780 0.0470
28.5000 9.4847 0.0510
28.5200 9.4914 0.0475
28.5400 9.4981 0.0431
28.5600 9.5048 0.0428
28.5800 9.5115 0.0447
28.6000 9.5181 0.0466
28.6200 9.5247 0.0451
28.6400 9.5313 0.0453
28.6600 9.5380 0.0497
28.6800 9.5447 0.0427
28.7000 9.5515 0.0456
28.7200 9.5582 0.0493
28.7400 9.5648 0.0411
28.7600 9.5715 0.0423
28.7800 9.5782 0.0455
28.8000 9.5848 0.0414
28.8200 9.5914 0.0432
28.8400 9.5981 0.0537
28.8600 9.6048 0.0351
28.8800 9.6115 0.0493
28.9000 9.6181 0.0494
28.9200 9.6248 0.0394
28.9400 9.6315 0.0496
28.9600 9.6382 0.0467
28.9800 9.6448 0.0370
29.0000 9.6514 0.0509
29.0200 9.6580 0.0420
29.0400 9.6647 0.0405
29.0600 9.6714 0.0494
29.0800 9.6781 0.0400
29.1000 9.6848 0.0394
29.1200 9.6915 0.0535
29.1400 9.6981 0.0375
29.1600 9.7047 0.0392
29.1800 9.7114 0.0476
29.2000 9.7180 0.0376
29.2200 9.7247 0.0423
29.2400 9.7315 0.0457
29.2600 9.7381 0.0365
29.2800 9.7448 0.0464
29.3000 9.7515 0.0451
29.3200 9.7581 0.0334
29.3400 9.7648 0.0456
29.3600 9.7714 0.0406
29.3800 9.7781 0.0363
29.4000 9.7848 0.0421
29.4200 9.7915 0.0427
29.4400 9.7981 0.0322
29.4600 9.8048 0.0414
29.4800 9.8115 0.0393
29.5000 9.8182 0.0364
29.5200 9.8248 0.0421
29.5400 9.8314 0.0363
29.5600 9.8380 0.0381
29.5800 9.8447 0.0453
29.6000 9.8515 0.0339
29.6200 9.8582 0.0358
29.6400 9.8648 0.0429
29.6600 9.8715 0.0341
29.6800 9.8781 0.0345
29.7000 9.8848 0.0410
29.7200 9.8914 0.0308
29.7400 9.8980 0.0404
29.7600 9.9047 0.0395
29.7800 9.9114 0.0301
29.8000 9.9181 0.0421
29.8200 9.9248 0.0376
29.8400 9.9314 0.0273
29.8600 9.9381 0.0394
29.8800 9.9448 0.0369
29.9000 9.9514 0.0266
29.9200 9.9580 0.0453
29.9400 9.9647 0.0294
29.9600 9.9714 0.0269
29.9800 9.9781 0.0435
30.0000 9.9848 0.0268
30.0200 9.9915 0.0262
30.0400 9.9981 0.0462
30.0600 10.0048 0.0240
30.0800 10.0114 0.0258
30.1000 10.0180 0.0448
30.1200 10.0247 0.0269
30.1400 10.0315 0.0283
30.1600 10.0382 0.0392
30.1800 10.0449 0.0213
30.2000 10.0515 0.0290
30.2200 10.0582 0.0387
30.2400 10.0648 0.0195
30.2600 10.0714 0.0307
30.2800 10.0780 0.0342
30.3000 10.0847 0.0232
30.3200 10.0914 0.0250
30.3400 10.0982 0.0354
30.3600 10.1048 0.0228
30.3800 10.1115 0.0270
30.4000 10.1182 0.0316
30.4200 10.1248 0.0210
30.4400 10.1314 0.0263
30.4600 10.1380 0.0348
30.4800 10.1447 0.0230
30.5000 10.1514 0.0248
30.5200 10.1581 0.0295
30.5400 10.1648 0.0251
30.5600 10.1715 0.0202
30.5800 10.1782 0.0333
30.6000 10.1848 0.0281
30.6200 10.1914 0.0177
30.6400 10.1980 0.0361
30.6600 10.2046 0.0248
30.6800 10.2114 0.0202
30.7000 10.2181 0.0348
30.7200 10.2248 0.0213
30.7400 10.2314 0.0218
30.7600 10.2381 0.0355
30.7800 10.2448 0.0228
30.8000 10.2514 0.0246
30.8200 10.2580 0.0335
30.8400 10.2647 0.0224
30.8600 10.2714 0.0203
30.8800 10.2781 0.0348
30.9000 10.2848 0.0201
30.9200 10.2915 0.0268
30.9400 10.2982 0.0336
30.9600 10.3049 0.0215
30.9800 10.3115 0.0243
31.0000 10.3181 0.0309
31.0200 10.3247 0.0207
31.0400 10.3314 0.0278
31.0600 10.3381 0.0291
31.0800 10.3448 0.0223
31.1000 10.3515 0.0281
31.1200 10.3582 0.0261
31.1400 10.3648 0.0268
31.1600 10.3714 0.0232
31.1800 10.3780 0.0292
31.2000 10.3847 0.0296
31.2200 10.3914 0.0194
31.2400 10.3981 0.0298
31.2600 10.4048 0.0312
31.2800 10.4115 0.0202
31.3000 10.4181 0.0326
31.3200 10.4248 0.0237
31.3400 10.4314 0.0199
31.3600 10.4380 0.0349
31.3800 10.4447 0.0269
31.4000 10.4514 0.0169
31.4200 10.4581 0.0345
31.4400 10.4648 0.0253
31.4600 10.4714 0.0208
31.4800 10.4781 0.0325
31.5000 10.4848 0.0242
31.5200 10.4914 0.0187
31.5400 10.4980 0.0367
31.5600 10.5047 0.0212
31.5800 10.5114 0.0159
31.6000 10.5181 0.0343
31.6200 10.5248 0.0180
31.6400 10.5315 0.0195
31.6600 10.5382 0.0370
31.6800 10.5448 0.0168
31.7000 10.5514 0.0194
31.7200 10.5580 0.0372
31.7400 10.5647 0.0157
31.7600 10.5714 0.0207
31.7800 10.5782 0.0356
31.8000 10.5848 0.0179
31.8200 10.5915 0.0186
31.8400 10.5982 0.0334
31.8600 10.6048 0.0152
31.8800 10.6114 0.0271
31.9000 10.6181 0.0271
31.9200 10.6247 0.0192
31.9400 10.6314 0.0232
31.9600 10.6381 0.0282
31.9800 10.6448 0.0151
32.0000 10.6514 0.0278
32.0200 10.6581 0.0253
32.0400 10.6648 0.0156
32.0600 10.6714 0.0230
32.0800 10.6780 0.0246
32.1000 10.6847 0.0219
32.1200 10.6914 0.0230
32.1400 10.6981 0.0210
32.1600 10.7048 0.0223
32.1800 10.7115 0.0220
32.2000 10.7181 0.0196
32.2200 10.7248 0.0227
32.2400 10.7314 0.0206
32.2600 10.7380 0.0205
32.2800 10.7447 0.0192
32.3000 10.7514 0.0228
32.3200 10.7582 0.0192
32.3400 10.7649 0.0213
32.3600 10.7715 0.0167
32.3800 10.7782 0.0226
32.4000 10.7848 0.0171
32.4200 10.7914 0.0194
32.4400 10.7981 0.0188
32.4600 10.8047 0.0173
32.4800 10.8114 0.0177
32.5000 10.8181 0.0157
32.5200 10.8248 0.0160
32.5400 10.8315 0.0195
32.5600 10.8382 0.0136
32.5800 10.8448 0.0116
32.6000 10.8515 0.0187
32.6200 10.8581 0.0176
32.6400 10.8647 0.0114
32.6600 10.8714 0.0189
32.6800 10.8781 0.0130
32.7000 10.8848 0.0121
32.7200 10.8915 0.0203
32.7400 10.8982 0.0089
32.7600 10.9048 0.0115
32.7800 10.9114 0.0175
32.8000 10.9180 0.0123
32.8200 10.9247 0.0117
32.8400 10.9314 0.0182
32.8600 10.9381 0.0083
32.8800 10.9448 0.0123
32.9000 10.9514 0.0130
32.9200 10.9581 0.0047
32.9400 10.9648 0.0113
32.9600 10.9714 0.0153
32.9800 10.9780 0.0018
33.0000 10.9847 0.0177
33.0200 10.9914 0.0090
33.0400 10.9981 0.0013
33.0600 11.0048 0.0142
33.0800 11.0115 0.0113
33.1000 11.0182 0.0029
33.1200 11.0249 0.0159
33.1400 11.0315 0.0063
33.1600 11.0381 0.0045
33.1800 11.0447 0.0165
33.2000 11.0514 0.0062
33.2200 11.0581 0.0080
33.2400 11.0648 0.0124
33.2600 11.0715 0.0021
33.2800 11.0782 0.0110
33.3000 11.0848 0.0147
33.3200 11.0914 -0.0014
33.3400 11.0980 0.0133
33.3600 11.1047 0.0110
33.3800 11.1114 0.0013
33.4000 11.1181 0.0096
33.4200 11.1248 0.0110
33.4400 11.1314 0.0055
33.4600 11.1381 0.0158
33.4800 11.1448 0.0046
33.5000 11.1514 0.0054
33.5200 11.1580 0.0127
33.5400 11.1647 0.0034
33.5600 11.1714 0.0020
33.5800 11.1781 0.0123
33.6000 11.1848 0.0039
33.6200 11.1915 0.0055
33.6400 11.1982 0.0123
33.6600 11.2048 0.0000
33.6800 11.2115 0.0075
33.7000 11.2181 0.0113
33.7200 11.2247 0.0074
33.7400 11.2314 0.0074
33.7600 11.2381 0.0067
33.7800 11.2448 0.0015
33.8000 11.2515 0.0069
33.8200 11.2582 0.0071
33.8400 11.2648 0.0066
33.8600 11.2715 0.0092
33.8800 11.2781 0.0052
33.9000 11.2847 0.0045
33.9200 11.2914 0.0115
33.9400 11.2981 0.0025
33.9600 11.3048 0.0072
33.9800 11.3115 0.0123
34.0000 11.3182 0.0022
34.0200 11.3249 0.0008
34.0400 11.3315 0.0139
34.0600 11.3381 -0.0047
34.0800 11.3447 0.0102
34.1000 11.3514 0.0090
34.1200 11.3581 -0.0017
34.1400 11.3648 0.0092
34.1600 11.3715 0.0083
34.1800 11.3781 0.0027
34.2000 11.3848 0.0082
34.2200 11.3915 0.0069
34.2400 11.3980 -0.0031
34.2600 11.4047 0.0084
34.2800 11.4114 0.0119
34.3000 11.4181 0.0018
34.3200 11.4248 0.0096
34.3400 11.4315 0.0099
34.3600 11.4381 -0.0027
34.3800 11.4448 0.0092
34.4000 11.4514 0.0050
34.4200 11.4581 -0.0002
34.4400 11.4647 0.0042
34.4600 11.4714 0.0112
34.4800 11.4781 0.0012
34.5000 11.4848 0.0046
34.5200 11.4915 0.0068
34.5400 11.4982 0.0001
34.5600 11.5048 0.0035
34.5800 11.5115 0.0125
34.6000 11.5181 0.0003
34.6200 11.5247 -0.0032
34.6400 11.5314 0.0084
34.6600 11.5381 0.0012
34.6800 11.5448 -0.0023
34.7000 11.5515 0.0121
34.7200 11.5582 -0.0003
34.7400 11.5649 -0.0018
34.7600 11.5715 0.0083
34.7800 11.5781 -0.0028
34.8000 11.5847 0.0068
34.8200 11.5914 0.0068
34.8400 11.5981 -0.0046
34.8600 11.6048 -0.0018
34.8800 11.6115 0.0070
34.9000 11.6182 -0.0082
34.9200 11.6248 0.0003
34.9400 11.6314 0.0093
34.9600 11.6380 -0.0090
34.9800 11.6447 -0.0036
35.0000 11.6513 0.0095
35.0200 11.6580 -0.0132
35.0400 11.6647 0.0023
35.0600 11.6714 0.0086
35.0800 11.6781 -0.0173
35.1000 11.6848 -0.0019
35.1200 11.6915 0.0029
35.1400 11.6981 -0.0189
35.1600 11.7047 0.0010
35.1800 11.7114 0.0053
35.2000 11.7181 -0.0210
35.2200 11.7248 0.0009
35.2400 11.7315 -0.0008
35.2600 11.7382 -0.0193
35.2800 11.7449 -0.0042
35.3000 11.7515 -0.0085
35.3200 11.7581 -0.0163
35.3400 11.7647 -0.0032
35.3600 11.7714 -0.0051
35.3800 11.7781 -0.0170
35.4000 11.7848 -0.0087
35.4200 11.7915 -0.0047
35.4400 11.7982 -0.0179
35.4600 11.8048 -0.0021
35.4800 11.8115 -0.0104
35.5000 11.8181 -0.0189
35.5200 11.8247 -0.0088
35.5400 11.8314 -0.0066
35.5600 11.8381 -0.0168
35.5800 11.8448 -0.0112
35.6000 11.8514 -0.0108
35.6200 11.8581 -0.0170
35.6400 11.8648 -0.0106
35.6600 11.8715 -0.0064
35.6800 11.8781 -0.0188
35.7000 11.8847 -0.0141
35.7200 11.8913 -0.0061
35.7400 11.8980 -0.0180
35.7600 11.9048 -0.0090
35.7800 11.9115 -0.0127
35.8000 11.9182 -0.0178
35.8200 11.9248 -0.0123
35.8400 11.9315 -0.0158
35.8600 11.9381 -0.0219
35.8800 11.9447 -0.0093
35.9000 11.9514 -0.0130
35.9200 11.9581 -0.0218
35.9400 11.9648 -0.0150
35.9600 11.9715 -0.0105
35.9800 11.9781 -0.0229
36.0000 11.9848 -0.0133
36.0200 11.9915 -0.0170
36.0400 11.9981 -0.0182
36.0600 12.0047 -0.0155
36.0800 12.0114 -0.0147
36.1000 12.0181 -0.0184
36.1200 12.0248 -0.0144
36.1400 12.0315 -0.0193
36.1600 12.0382 -0.0189
36.1800 12.0449 -0.0188
36.2000 12.0515 -0.0159
36.2200 12.0581 -0.0191
36.2400 12.0647 -0.0159
36.2600 12.0713 -0.0090
36.2800 12.0781 -0.0171
36.3000 12.0848 -0.0247
36.3200 12.0915 -0.0148
36.3400 12.0982 -0.0125
36.3600 12.1048 -0.0239
36.3800 12.1115 -0.0102
36.4000 12.1181 -0.0175
36.4200 12.1247 -0.0204
36.4400 12.1313 -0.0142
36.4600 12.1380 -0.0160
36.4800 12.1448 -0.0201
36.5000 12.1514 -0.0131
36.5200 12.1581 -0.0193
36.5400 12.1648 -0.0189
36.5600 12.1714 -0.0162
36.5800 12.1781 -0.0184
36.6000 12.1847 -0.0192
36.6200 12.1914 -0.0116
36.6400 12.1981 -0.0175
36.6600 12.2048 -0.0199
36.6800 12.2115 -0.0191
36.7000 12.2182 -0.0110
36.7200 12.2249 -0.0197
36.7400 12.2315 -0.0212
36.7600 12.2381 -0.0132
36.7800 12.2447 -0.0224
36.8000 12.2513 -0.0193
36.8200 12.2581 -0.0166
36.8400 12.2648 -0.0199
36.8600 12.2715 -0.0218
36.8800 12.2782 -0.0106
36.9000 12.2849 -0.0230
36.9200 12.2915 -0.0196
36.9400 12.2981 -0.0120
36.9600 12.3047 -0.0226
36.9800 12.3114 -0.0245
37.0000 12.3181 -0.0106
37.0200 12.3248 -0.0282
37.0400 12.3315 -0.0245
37.0600 12.3381 -0.0128
37.0800 12.3448 -0.0250
37.1000 12.3515 -0.0199
37.1200 12.3581 -0.0148
37.1400 12.3647 -0.0261
37.1600 12.3714 -0.0194
37.1800 12.3780 -0.0162
37.2000 12.3847 -0.0260
37.2200 12.3914 -0.0175
37.2400 12.3981 -0.0218
37.2600 12.4048 -0.0245
37.2800 12.4115 -0.0201
37.3000 12.4181 -0.0230
37.3200 12.4247 -0.0193
37.3400 12.4314 -0.0206
37.3600 12.4381 -0.0261
37.3800 12.4448 -0.0210
37.4000 12.4515 -0.0216
37.4200 12.4582 -0.0228
37.4400 12.4648 -0.0251
37.4600 12.4715 -0.0199
37.4800 12.4781 -0.0266
37.5000 12.4847 -0.0237
37.5200 12.4914 -0.0225
37.5400 12.4981 -0.0183
37.5600 12.5048 -0.0288
37.5800 12.5115 -0.0298
37.6000 12.5182 -0.0182
37.6200 12.5248 -0.0252
37.6400 12.5315 -0.0293
37.6600 12.5381 -0.0177
37.6800 12.5447 -0.0279
37.7000 12.5514 -0.0312
37.7200 12.5580 -0.0178
37.7400 12.5647 -0.0283
37.7600 12.5714 -0.0284
37.7800 12.5781 -0.0187
37.8000 12.5848 -0.0338
37.8200 12.5915 -0.0342
37.8400 12.5981 -0.0156
37.8600 12.6047 -0.0329
37.8800 12.6113 -0.0328
37.9000 12.6180 -0.0170
37.9200 12.6247 -0.0299
37.9400 12.6315 -0.0306
37.9600 12.6381 -0.0158
37.9800 12.6448 -0.0396
38.0000 12.6515 -0.0325
38.0200 12.6581 -0.0160
38.0400 12.6647 -0.0340
38.0600 12.6714 -0.0309
38.0800 12.6781 -0.0219
38.1000 12.6848 -0.0381
38.1200 12.6915 -0.0276
38.1400 12.6981 -0.0254
38.1600 12.7048 -0.0334
38.1800 12.7115 -0.0293
38.2000 12.7181 -0.0237
38.2200 12.7247 -0.0360
38.2400 12.7314 -0.0296
38.2600 12.7380 -0.0182
38.2800 12.7448 -0.0391
38.3000 12.7515 -0.0352
38.3200 12.7581 -0.0201
38.3400 12.7648 -0.0358
38.3600 12.7715 -0.0374
38.3800 12.7781 -0.0207
38.4000 12.7847 -0.0416
38.4200 12.7914 -0.0312
38.4400 12.7981 -0.0243
38.4600 12.8048 -0.0434
38.4800 12.8115 -0.0330
38.5000 12.8182 -0.0240
38.5200 12.8248 -0.0466
38.5400 12.8315 -0.0290
38.5600 12.8381 -0.0245
38.5800 12.8447 -0.0468
38.6000 12.8513 -0.0317
38.6200 12.8580 -0.0251
38.6400 12.8647 -0.0480
38.6600 12.8714 -0.0337
38.6800 12.8781 -0.0302
38.7000 12.8848 -0.0481
38.7200 12.8914 -0.0318
38.7400 12.8981 -0.0357
38.7600 12.9047 -0.0525
38.7800 12.9114 -0.0297
38.8000 12.9180 -0.0383
38.8200 12.9248 -0.0508
38.8400 12.9315 -0.0304
38.8600 12.9382 -0.0422
38.8800 12.9449 -0.0482
38.9000 12.9516 -0.0312
38.9200 12.9582 -0.0410
38.9400 12.9647 -0.0485
38.9600 12.9714 -0.0295
38.9800 12.9781 -0.0486
39.0000 12.9848 -0.0434
39.0200 12.9915 -0.0396
39.0400 12.9982 -0.0453
39.0600 13.0049 -0.0427
39.0800 13.0115 -0.0394
39.1000 13.0181 -0.0446
39.1200 13.0248 -0.0455
39.1400 13.0314 -0.0428
39.1600 13.0381 -0.0417
39.1800 13.0448 -0.0453
39.2000 13.0514 -0.0473
39.2200 13.0581 -0.0436
39.2400 13.0648 -0.0441
39.2600 13.0715 -0.0473
39.2800 13.0781 -0.0401
39.3000 13.0847 -0.0433
39.3200 13.0913 -0.0557
39.3400 13.0980 -0.0428
39.3600 13.1047 -0.0427
39.3800 13.1114 -0.0509
39.4000 13.1181 -0.0431
39.4200 13.1248 -0.0442
39.4400 13.1315 -0.0533
39.4600 13.1381 -0.0393
39.4800 13.1447 -0.0446
39.5000 13.1513 -0.0536
39.5200 13.1580 -0.0443
39.5400 13.1648 -0.0458
39.5600 13.1715 -0.0587
39.5800 13.1782 -0.0409
39.6000 13.1848 -0.0482
39.6200 13.1915 -0.0569
39.6400 13.1981 -0.0435
39.6600 13.2047 -0.0412
39.6800 13.2114 -0.0513
39.7000 13.2181 -0.0404
39.7200 13.2248 -0.0474
39.7400 13.2315 -0.0554
39.7600 13.2382 -0.0420
39.7800 13.2449 -0.0471
39.8000 13.2515 -0.0499
39.8200 13.2582 -0.0465
39.8400 13.2648 -0.0460
39.8600 13.2713 -0.0475
39.8800 13.2780 -0.0459
39.9000 13.2847 -0.0448
39.9200 13.2915 -0.0449
39.9400 13.2981 -0.0492
39.9600 13.3048 -0.0476
39.9800 13.3115 -0.0488
40.0000 13.3181 -0.0460
40.0200 13.3247 -0.0478
40.0400 13.3313 -0.0458
40.0600 13.3380 -0.0487
40.0800 13.3447 -0.0439
40.1000 13.3514 -0.0472
40.1200 13.3581 -0.0484
40.1400 13.3648 -0.0426
40.1600 13.3715 -0.0429
40.1800 13.3781 -0.0554
40.2000 13.3848 -0.0456
40.2200 13.3914 -0.0435
40.2400 13.3981 -0.0584
40.2600 13.4048 -0.0412
40.2800 13.4115 -0.0458
40.3000 13.4181 -0.0587
40.3200 13.4248 -0.0409
40.3400 13.4315 -0.0470
40.3600 13.4382 -0.0587
40.3800 13.4448 -0.0380
40.4000 13.4514 -0.0485
40.4200 13.4581 -0.0624
40.4400 13.4648 -0.0427
40.4600 13.4715 -0.0447
40.4800 13.4782 -0.0583
40.5000 13.4848 -0.0441
40.5200 13.4915 -0.0500
40.5400 13.4981 -0.0552
40.5600 13.5048 -0.0437
40.5800 13.5114 -0.0524
40.6000 13.5181 -0.0554
40.6200 13.5248 -0.0413
40.6400 13.5315 -0.0541
40.6600 13.5381 -0.0559
40.6800 13.5448 -0.0470
40.7000 13.5515 -0.0530
40.7200 13.5581 -0.0557
40.7400 13.5647 -0.0487
40.7600 13.5713 -0.0533
40.7800 13.5780 -0.0578
40.8000 13.5847 -0.0471
40.8200 13.5914 -0.0535
40.8400 13.5981 -0.0575
40.8600 13.6048 -0.0457
40.8800 13.6115 -0.0493
40.9000 13.6181 -0.0648
40.9200 13.6248 -0.0510
40.9400 13.6314 -0.0490
40.9600 13.6380 -0.0596
40.9800 13.6448 -0.0525
41.0000 13.6515 -0.0495
41.0200 13.6582 -0.0593
41.0400 13.6649 -0.0510
41.0600 13.6715 -0.0537
41.0800 13.6782 -0.0611
41.1000 13.6848 -0.0509
41.1200 13.6914 -0.0508
41.1400 13.6981 -0.0664
41.1600 13.7048 -0.0484
41.1800 13.7115 -0.0587
41.2000 13.7182 -0.0607
41.2200 13.7248 -0.0529
41.2400 13.7315 -0.0589
41.2600 13.7382 -0.0636
41.2800 13.7448 -0.0528
41.3000 13.7514 -0.0535
41.3200 13.7580 -0.0618
41.3400 13.7647 -0.0505
41.3600 13.7714 -0.0584
41.3800 13.7781 -0.0677
41.4000 13.7848 -0.0573
41.4200 13.7915 -0.0553
41.4400 13.7982 -0.0666
41.4600 13.8048 -0.0565
41.4800 13.8114 -0.0614
41.5000 13.8180 -0.0612
41.5200 13.8247 -0.0581
41.5400 13.8314 -0.0584
41.5600 13.8381 -0.0657
41.5800 13.8448 -0.0592
41.6000 13.8515 -0.0629
41.6200 13.8581 -0.0657
41.6400 13.8648 -0.0586
41.6600 13.8714 -0.0578
41.6800 13.8781 -0.0729
41.7000 13.8848 -0.0620
41.7200 13.8915 -0.0558
41.7400 13.8982 -0.0687
41.7600 13.9048 -0.0589
41.7800 13.9115 -0.0591
41.8000 13.9182 -0.0700
41.8200 13.9248 -0.0590
41.8400 13.9314 -0.0558
41.8600 13.9381 -0.0713
41.8800 13.9448 -0.0619
41.9000 13.9515 -0.0605
41.9200 13.9582 -0.0772
41.9400 13.9649 -0.0592
41.9600 13.9715 -0.0558
41.9800 13.9782 -0.0804
42.0000 13.9848 -0.0621
42.0200 13.9914 -0.0555
42.0400 13.9980 -0.0720
42.0600 14.0047 -0.0656
42.0800 14.0114 -0.0605
42.1000 14.0181 -0.0788
42.1200 14.0248 -0.0644
42.1400 14.0315 -0.0613
42.1600 14.0382 -0.0740
42.1800 14.0448 -0.0641
42.2000 14.0514 -0.0642
42.2200 14.0580 -0.0720
42.2400 14.0647 -0.0655
42.2600 14.0714 -0.0626
42.2800 14.0781 -0.0723
42.3000 14.0847 -0.0676
42.3200 14.0914 -0.0626
42.3400 14.0981 -0.0712
42.3600 14.1048 -0.0739
42.3800 14.1114 -0.0587
42.4000 14.1180 -0.0702
42.4200 14.1247 -0.0721
42.4400 14.1314 -0.0618
42.4600 14.1381 -0.0699
42.4800 14.1448 -0.0769
42.5000 14.1515 -0.0612
42.5200 14.1582 -0.0744
42.5400 14.1648 -0.0753
42.5600 14.1714 -0.0627
42.5800 14.1780 -0.0704
42.6000 14.1847 -0.0789
42.6200 14.1915 -0.0625
42.6400 14.1982 -0.0737
42.6600 14.2048 -0.0783
42.6800 14.2115 -0.0625
42.7000 14.2181 -0.0743
42.7200 14.2248 -0.0751
42.7400 14.2314 -0.0592
42.7600 14.2380 -0.0771
42.7800 14.2447 -0.0763
42.8000 14.2514 -0.0665
42.8200 14.2581 -0.0772
42.8400 14.2648 -0.0700
42.8600 14.2715 -0.0653
42.8800 14.2782 -0.0800
42.9000 14.2848 -0.0790
42.9200 14.2914 -0.0606
42.9400 14.2980 -0.0787
42.9600 14.3047 -0.0803
42.9800 14.3114 -0.0647
43.0000 14.3181 -0.0658
43.0200 14.3248 -0.0790
43.0400 14.3314 -0.0719
43.0600 14.3381 -0.0724
43.0800 14.3447 -0.0685
43.1000 14.3513 -0.0791
43.1200 14.3580 -0.0755
43.1400 14.3647 -0.0648
43.1600 14.3714 -0.0738
43.1800 14.3782 -0.0811
43.2000 14.3848 -0.0742
43.2200 14.3915 -0.0752
43.2400 14.3982 -0.0699
43.2600 14.4048 -0.0744
43.2800 14.4114 -0.0798
43.3000 14.4181 -0.0668
43.3200 14.4248 -0.0693
43.3400 14.4315 -0.0843
43.3600 14.4382 -0.0742
43.3800 14.4448 -0.0656
43.4000 14.4515 -0.0786
43.4200 14.4582 -0.0819
43.4400 14.4648 -0.0747
43.4600 14.4714 -0.0750
43.4800 14.4780 -0.0747
43.5000 14.4847 -0.0766
43.5200 14.4914 -0.0866
43.5400 14.4981 -0.0755
43.5600 14.5048 -0.0777
43.5800 14.5115 -0.0773
43.6000 14.5181 -0.0794
43.6200 14.5247 -0.0737
43.6400 14.5314 -0.0802
43.6600 14.5380 -0.0832
43.6800 14.5447 -0.0753
43.7000 14.5514 -0.0798
43.7200 14.5581 -0.0784
43.7400 14.5648 -0.0780
43.7600 14.5714 -0.0835
43.7800 14.5781 -0.0792
43.8000 14.5848 -0.0795
43.8200 14.5914 -0.0837
43.8400 14.5981 -0.0783
43.8600 14.6047 -0.0810
43.8800 14.6114 -0.0867
43.9000 14.6181 -0.0823
43.9200 14.6248 -0.0780
43.9400 14.6315 -0.0853
43.9600 14.6382 -0.0821
43.9800 14.6448 -0.0870
44.0000 14.6514 -0.0838
44.0200 14.6580 -0.0791
44.0400 14.6647 -0.0835
44.0600 14.6714 -0.0891
44.0800 14.6781 -0.0833
44.1000 14.6848 -0.0851
44.1200 14.6915 -0.0853
44.1400 14.6982 -0.0836
44.1600 14.7048 -0.0849
44.1800 14.7114 -0.0916
44.2000 14.7180 -0.0826
44.2200 14.7247 -0.0891
44.2400 14.7314 -0.0906
44.2600 14.7381 -0.0818
44.2800 14.7448 -0.0938
44.3000 14.7515 -0.0944
44.3200 14.7581 -0.0850
44.3400 14.7648 -0.0869
44.3600 14.7714 -0.0939
44.3800 14.7780 -0.0852
44.4000 14.7847 -0.0889
44.4200 14.7914 -0.0937
44.4400 14.7981 -0.0907
44.4600 14.8048 -0.0872
44.4800 14.8115 -0.0888
44.5000 14.8182 -0.0825
44.5200 14.8248 -0.0966
44.5400 14.8314 -0.0926
44.5600 14.8380 -0.0857
44.5800 14.8447 -0.0898
44.6000 14.8515 -0.0933
44.6200 14.8582 -0.0828
44.6400 14.8649 -0.0916
44.6600 14.8715 -0.0975
44.6800 14.8782 -0.0887
44.7000 14.8848 -0.0875
44.7200 14.8914 -0.0921
44.7400 14.8980 -0.0887
44.7600 14.9047 -0.0910
44.7800 14.9115 -0.0926
44.8000 14.9182 -0.0861
44.8200 14.9248 -0.0894
44.8400 14.9315 -0.0928
44.8600 14.9382 -0.0858
44.8800 14.9448 -0.0924
44.9000 14.9514 -0.0987
44.9200 14.9580 -0.0806
44.9400 14.9647 -0.0825
44.9600 14.9714 -0.1016
44.9800 14.9781 -0.0861
45.0000 14.9848 -0.0834
45.0200 14.9915 -0.1018
45.0400 14.9982 -0.0824
45.0600 15.0048 -0.0902
45.0800 15.0114 -0.0995
45.1000 15.0180 -0.0823
45.1200 15.0246 -0.0893
45.1400 15.0314 -0.1006
45.1600 15.0381 -0.0814
45.1800 15.0448 -0.0935
45.2000 15.0515 -0.1005
45.2200 15.0581 -0.0791
45.2400 15.0648 -0.0998
45.2600 15.0714 -0.1007
45.2800 15.0780 -0.0747
45.3000 15.0847 -0.0982
45.3200 15.0914 -0.1016
45.3400 15.0981 -0.0772
45.3600 15.1048 -0.0964
45.3800 15.1115 -0.1006
45.4000 15.1182 -0.0843
45.4200 15.1249 -0.0963
45.4400 15.1315 -0.0976
45.4600 15.1381 -0.0842
45.4800 15.1447 -0.1010
45.5000 15.1514 -0.0980
45.5200 15.1581 -0.0889
45.5400 15.1648 -0.0936
45.5600 15.1715 -0.1044
45.5800 15.1781 -0.0876
45.6000 15.1848 -0.0961
45.6200 15.1914 -0.1007
45.6400 15.1980 -0.0863
45.6600 15.2047 -0.0952
45.6800 15.2114 -0.0989
45.7000 15.2181 -0.0897
45.7200 15.2248 -0.0991
45.7400 15.2315 -0.1017
45.7600 15.2381 -0.0893
45.7800 15.2448 -0.0960
45.8000 15.2514 -0.1051
45.8200 15.2580 -0.0916
45.8400 15.2647 -0.0918
45.8600 15.2714 -0.1015
45.8800 15.2781 -0.0928
45.9000 15.2847 -0.0984
45.9200 15.2914 -0.1022
45.9400 15.2981 -0.0950
45.9600 15.3048 -0.0961
45.9800 15.3115 -0.1054
46.0000 15.3181 -0.0931
46.0200 15.3247 -0.0959
46.0400 15.3314 -0.1034
46.0600 15.3381 -0.0970
46.0800 15.3448 -0.0895
46.1000 15.3515 -0.1088
46.1200 15.3582 -0.0974
46.1400 15.3648 -0.0916
46.1600 15.3714 -0.1020
46.1800 15.3780 -0.0958
46.2000 15.3847 -0.0931
46.2200 15.3914 -0.1066
46.2400 15.3981 -0.0952
46.2600 15.4048 -0.0942
46.2800 15.4115 -0.1084
46.3000 15.4182 -0.0942
46.3200 15.4249 -0.0949
46.3400 15.4315 -0.1109
46.3600 15.4381 -0.0930
46.3800 15.4447 -0.0915
46.4000 15.4514 -0.1118
46.4200 15.4581 -0.0925
46.4400 15.4648 -0.0978
46.4600 15.4714 -0.1098
46.4800 15.4781 -0.0871
46.5000 15.4848 -0.0990
46.5200 15.4914 -0.1159
46.5400 15.4980 -0.0822
46.5600 15.5047 -0.0942
46.5800 15.5113 -0.1093
46.6000 15.5181 -0.0934
46.6200 15.5248 -0.0910
46.6400 15.5315 -0.1100
46.6600 15.5381 -0.0930
46.6800 15.5448 -0.1012
46.7000 15.5514 -0.1086
46.7200 15.5580 -0.0901
46.7400 15.5647 -0.1013
46.7600 15.5714 -0.1058
46.7800 15.5782 -0.0917
46.8000 15.5849 -0.1030
46.8200 15.5915 -0.1084
46.8400 15.5982 -0.0944
46.8600 15.6048 -0.1036
46.8800 15.6115 -0.1018
46.9000 15.6181 -0.0916
46.9200 15.6247 -0.1067
46.9400 15.6314 -0.1056
46.9600 15.6381 -0.0902
46.9800 15.6448 -0.1088
47.0000 15.6515 -0.1069
47.0200 15.6582 -0.0947
47.0400 15.6649 -0.1068
47.0600 15.6715 -0.1088
47.0800 15.6781 -0.0962
47.1000 15.6847 -0.1030
47.1200 15.6914 -0.1063
47.1400 15.6981 -0.1086
47.1600 15.7048 -0.1057
47.1800 15.7115 -0.1057
47.2000 15.7182 -0.1041
47.2200 15.7248 -0.1079
47.2400 15.7314 -0.1106
47.2600 15.7380 -0.1029
47.2800 15.7446 -0.1032
47.3000 15.7514 -0.1077
47.3200 15.7581 -0.1071
47.3400 15.7648 -0.1047
47.3600 15.7714 -0.1121
47.3800 15.7781 -0.1077
47.4000 15.7848 -0.1061
47.4200 15.7914 -0.1136
47.4400 15.7980 -0.1091
47.4600 15.8047 -0.1074
47.4800 15.8114 -0.1129
47.5000 15.8181 -0.1039
47.5200 15.8248 -0.1154
47.5400 15.8315 -0.1096
47.5600 15.8382 -0.1097
47.5800 15.8449 -0.1172
47.6000 15.8515 -0.1117
47.6200 15.8581 -0.1064
47.6400 15.8647 -0.1176
47.6600 15.8714 -0.1109
47.6800 15.8781 -0.1074
47.7000 15.8848 -0.1165
47.7200 15.8915 -0.1107
47.7400 15.8982 -0.1097
47.7600 15.9048 -0.1223
47.7800 15.9114 -0.1087
47.8000 15.9180 -0.1143
47.8200 15.9247 -0.1166
47.8400 15.9314 -0.1089
47.8600 15.9381 -0.1177
47.8800 15.9448 -0.1182
47.9000 15.9514 -0.1087
47.9200 15.9581 -0.1177
47.9400 15.9648 -0.1186
47.9600 15.9714 -0.1089
47.9800 15.9780 -0.1193
48.0000 15.9847 -0.1148
48.0200 15.9914 -0.1128
48.0400 15.9981 -0.1236
48.0600 16.0048 -0.1127
48.0800 16.0115 -0.1057
48.1000 16.0181 -0.1230
48.1200 16.0248 -0.1192
48.1400 16.0315 -0.1149
48.1600 16.0381 -0.1190
48.1800 16.0447 -0.1190
48.2000 16.0514 -0.1108
48.2200 16.0581 -0.1272
48.2400 16.0648 -0.1177
48.2600 16.0715 -0.1088
48.2800 16.0782 -0.1237
48.3000 16.0848 -0.1151
48.3200 16.0915 -0.1147
48.3400 16.0981 -0.1239
48.3600 16.1047 -0.1135
48.3800 16.1114 -0.1103
48.4000 16.1181 -0.1254
48.4200 16.1248 -0.1215
48.4400 16.1315 -0.1069
48.4600 16.1382 -0.1214
48.4800 16.1449 -0.1160
48.5000 16.1515 -0.1122
48.5200 16.1581 -0.1243
48.5400 16.1647 -0.1097
48.5600 16.1714 -0.1139
48.5800 16.1781 -0.1266
48.6000 16.1848 -0.1207
48.6200 16.1915 -0.1036
48.6400 16.1982 -0.1275
48.6600 16.2048 -0.1162
48.6800 16.2115 -0.1078
48.7000 16.2181 -0.1239
48.7200 16.2247 -0.1123
48.7400 16.2313 -0.1066
48.7600 16.2381 -0.1221
48.7800 16.2448 -0.1158
48.8000 16.2515 -0.1085
48.8200 16.2581 -0.1252
48.8400 16.2648 -0.1085
48.8600 16.2714 -0.1074
48.8800 16.2781 -0.1268
48.9000 16.2847 -0.1145
48.9200 16.2914 -0.1108
48.9400 16.2981 -0.1232
48.9600 16.3048 -0.1126
48.9800 16.3115 -0.1157
49.0000 16.3182 -0.1230
49.0200 16.3249 -0.1168
49.0400 16.3315 -0.1095
49.0600 16.3381 -0.1236
49.0800 16.3447 -0.1206
49.1000 16.3514 -0.1139
49.1200 16.3581 -0.1174
49.1400 16.3648 -0.1188
49.1600 16.3715 -0.1103
49.1800 16.3782 -0.1249
49.2000 16.3849 -0.1213
49.2200 16.3915 -0.1049
49.2400 16.3981 -0.1264
49.2600 16.4047 -0.1337
49.2800 16.4114 -0.1018
49.3000 16.4181 -0.1220
49.3200 16.4248 -0.1323
49.3400 16.4315 -0.1102
49.3600 16.4382 -0.1272
49.3800 16.4448 -0.1267
49.4000 16.4514 -0.1084
49.4200 16.4580 -0.1275
49.4400 16.4647 -0.1315
49.4600 16.4713 -0.1087
49.4800 16.4781 -0.1263
49.5000 16.4847 -0.1218
49.5200 16.4914 -0.1209
49.5400 16.4981 -0.1304
49.5600 16.5048 -0.1157
49.5800 16.5115 -0.1267
49.6000 16.5181 -0.1429
49.6200 16.5247 -0.1103
49.6400 16.5314 -0.1197
49.6600 16.5381 -0.1378
49.6800 16.5448 -0.1207
49.7000 16.5515 -0.1219
49.7200 16.5582 -0.1323
49.7400 16.5649 -0.1235
49.7600 16.5715 -0.1305
49.7800 16.5781 -0.1337
49.8000 16.5847 -0.1193
49.8200 16.5914 -0.1274
49.8400 16.5981 -0.1351
49.8600 16.6048 -0.1226
49.8800 16.6115 -0.1328
49.9000 16.6182 -0.1298
49.9200 16.6248 -0.1228
49.9400 16.6315 -0.1357
49.9600 16.6381 -0.1261
49.9800 16.6447 -0.1297
50.0000 16.6514 -0.1323
50.0200 16.6581 -0.1256
50.0400 16.6648 -0.1266
50.0600 16.6714 -0.1360
50.0800 16.6781 -0.1308
50.1000 16.6848 -0.1321
50.1200 16.6915 -0.1314
50.1400 16.6981 -0.1281
50.1600 16.7047 -0.1332
50.1800 16.7113 -0.1328
50.2000 16.7180 -0.1244
50.2200 16.7248 -0.1381
50.2400 16.7315 -0.1307
50.2600 16.7382 -0.1306
50.2800 16.7448 -0.1396
50.3000 16.7515 -0.1323
50.3200 16.7581 -0.1299
50.3400 16.7647 -0.1391
50.3600 16.7713 -0.1239
50.3800 16.7781 -0.1391
50.4000 16.7848 -0.1478
50.4200 16.7915 -0.1175
50.4400 16.7981 -0.1387
50.4600 16.8048 -0.1512
50.4800 16.8115 -0.1218
50.5000 16.8181 -0.1418
50.5200 16.8247 -0.1462
50.5400 16.8314 -0.1215
50.5600 16.8381 -0.1470
50.5800 16.8448 -0.1395
50.6000 16.8515 -0.1314
50.6200 16.8582 -0.1491
50.6400 16.8649 -0.1403
50.6600 16.8715 -0.1306
50.6800 16.8781 -0.1474
50.7000 16.8847 -0.1360
50.7200 16.8914 -0.1367
50.7400 16.8980 -0.1481
50.7600 16.9048 -0.1362
50.7800 16.9115 -0.1406
50.8000 16.9181 -0.1468
50.8200 16.9248 -0.1375
50.8400 16.9315 -0.1438
50.8600 16.9381 -0.1449
50.8800 16.9447 -0.1433
50.9000 16.9513 -0.1420
50.9200 16.9580 -0.1387
50.9400 16.9647 -0.1501
50.9600 16.9714 -0.1469
50.9800 16.9781 -0.1372
51.0000 16.9848 -0.1505
51.0200 16.9914 -0.1500
51.0400 16.9981 -0.1348
51.0600 17.0047 -0.1551
51.0800 17.0114 -0.1457
51.1000 17.0181 -0.1406
51.1200 17.0248 -0.1516
51.1400 17.0315 -0.1448
51.1600 17.0382 -0.1408
51.1800 17.0448 -0.1564
51.2000 17.0515 -0.1392
51.2200 17.0581 -0.1431
51.2400 17.0647 -0.1582
51.2600 17.0714 -0.1406
51.2800 17.0781 -0.1451
51.3000 17.0848 -0.1559
51.3200 17.0915 -0.1413
51.3400 17.0982 -0.1484
51.3600 17.1049 -0.1566
51.3800 17.1115 -0.1470
51.4000 17.1181 -0.1477
51.4200 17.1247 -0.1508
51.4400 17.1313 -0.1465
51.4600 17.1381 -0.1505
51.4800 17.1448 -0.1549
51.5000 17.1514 -0.1437
51.5200 17.1581 -0.1484
51.5400 17.1648 -0.1502
51.5600 17.1715 -0.1558
51.5800 17.1782 -0.1477
51.6000 17.1848 -0.1462
51.6200 17.1914 -0.1489
51.6400 17.1980 -0.1504
51.6600 17.2047 -0.1482
51.6800 17.2114 -0.1518
51.7000 17.2181 -0.1462
51.7200 17.2248 -0.1473
51.7400 17.2314 -0.1505
51.7600 17.2381 -0.1511
51.7800 17.2447 -0.1550
51.8000 17.2514 -0.1448
51.8200 17.2581 -0.1405
51.8400 17.2648 -0.1539
51.8600 17.2715 -0.1493
51.8800 17.2782 -0.1477
51.9000 17.2849 -0.1473
51.9200 17.2915 -0.1472
51.9400 17.2981 -0.1432
51.9600 17.3047 -0.1507
51.9800 17.3114 -0.1514
52.0000 17.3181 -0.1423
52.0200 17.3248 -0.1494
52.0400 17.3315 -0.1454
52.0600 17.3382 -0.1535
52.0800 17.3448 -0.1458
52.1000 17.3515 -0.1448
52.1200 17.3581 -0.1475
52.1400 17.3647 -0.1530
52.1600 17.3714 -0.1441
52.1800 17.3780 -0.1459
52.2000 17.3847 -0.1475
52.2200 17.3914 -0.1444
52.2400 17.3981 -0.1477
52.2600 17.4048 -0.1512
52.2800 17.4115 -0.1484
52.3000 17.4181 -0.1441
52.3200 17.4247 -0.1497
52.3400 17.4313 -0.1527
52.3600 17.4380 -0.1468
52.3800 17.4447 -0.1472
52.4000 17.4515 -0.1515
52.4200 17.4581 -0.1498
52.4400 17.4648 -0.1503
52.4600 17.4715 -0.1530
52.4800 17.4781 -0.1511
52.5000 17.4847 -0.1474
52.5200 17.4914 -0.1541
52.5400 17.4981 -0.1531
52.5600 17.5048 -0.1525
52.5800 17.5115 -0.1547
52.6000 17.5181 -0.1516
52.6200 17.5248 -0.1514
52.6400 17.5315 -0.1625
52.6600 17.5381 -0.1471
52.6800 17.5447 -0.1516
52.7000 17.5514 -0.1622
52.7200 17.5580 -0.1485
52.7400 17.5647 -0.1483
52.7600 17.5715 -0.1659
52.7800 17.5782 -0.1415
52.8000 17.5848 -0.1550
52.8200 17.5915 -0.1666
52.8400 17.5981 -0.1405
52.8600 17.6047 -0.1550
52.8800 17.6114 -0.1651
52.9000 17.6181 -0.1434
52.9200 17.6248 -0.1560
52.9400 17.6315 -0.1685
52.9600 17.6382 -0.1433
52.9800 17.6448 -0.1602
53.0000 17.6515 -0.1619
53.0200 17.6581 -0.1499
53.0400 17.6647 -0.1574
53.0600 17.6713 -0.1574
53.0800 17.6780 -0.1496
53.1000 17.6847 -0.1566
53.1200 17.6914 -0.1534
53.1400 17.6981 -0.1571
53.1600 17.7048 -0.1532
53.1800 17.7114 -0.1633
53.2000 17.7181 -0.1543
53.2200 17.7247 -0.1486
53.2400 17.7313 -0.1596
53.2600 17.7380 -0.1556
53.2800 17.7448 -0.1521
53.3000 17.7515 -0.1632
53.3200 17.7582 -0.1471
53.3400 17.7649 -0.1571
53.3600 17.7715 -0.1693
53.3800 17.7782 -0.1480
53.4000 17.7848 -0.1531
53.4200 17.7914 -0.1707
53.4400 17.7981 -0.1417
53.4600 17.8048 -0.1618
53.4800 17.8115 -0.1774
53.5000 17.8182 -0.1369
53.5200 17.8248 -0.1562
53.5400 17.8315 -0.1743
53.5600 17.8381 -0.1498
53.5800 17.8447 -0.1476
53.6000 17.8514 -0.1726
53.6200 17.8580 -0.1522
53.6400 17.8647 -0.1504
53.6600 17.8714 -0.1734
53.6800 17.8781 -0.1565
53.7000 17.8848 -0.1464
53.7200 17.8915 -0.1792
53.7400 17.8981 -0.1572
53.7600 17.9047 -0.1413
53.7800 17.9113 -0.1828
53.8000 17.9180 -0.1586
53.8200 17.9247 -0.1356
53.8400 17.9314 -0.1843
53.8600 17.9381 -0.1605
53.8800 17.9448 -0.1428
53.9000 17.9515 -0.1867
53.9200 17.9581 -0.1553
53.9400 17.9647 -0.1454
53.9600 17.9713 -0.1866
53.9800 17.9780 -0.1576
54.0000 17.9848 -0.1501
54.0200 17.9915 -0.1876
54.0400 17.9982 -0.1556
54.0600 18.0048 -0.1545
54.0800 18.0115 -0.1879
54.1000 18.0182 -0.1565
54.1200 18.0248 -0.1594
54.1400 18.0314 -0.1858
54.1600 18.0381 -0.1562
54.1800 18.0448 -0.1658
54.2000 18.0515 -0.1826
54.2200 18.0581 -0.1591
54.2400 18.0648 -0.1602
54.2600 18.0715 -0.1873
54.2800 18.0782 -0.1682
54.3000 18.0848 -0.1646
54.3200 18.0913 -0.1798
54.3400 18.0980 -0.1703
54.3600 18.1047 -0.1700
54.3800 18.1114 -0.1778
54.4000 18.1181 -0.1693
54.4200 18.1248 -0.1754
54.4400 18.1315 -0.1801
54.4600 18.1381 -0.1723
54.4800 18.1447 -0.1729
54.5000 18.1513 -0.1775
54.5200 18.1580 -0.1772
54.5400 18.1647 -0.1745
54.5600 18.1714 -0.1781
54.5800 18.1781 -0.1702
54.6000 18.1848 -0.1738
54.6200 18.1915 -0.1831
54.6400 18.1981 -0.1785
54.6600 18.2048 -0.1713
54.6800 18.2114 -0.1851
54.7000 18.2181 -0.1745
54.7200 18.2247 -0.1798
54.7400 18.2314 -0.1889
54.7600 18.2381 -0.1811
54.7800 18.2448 -0.1787
54.8000 18.2516 -0.1869
54.8200 18.2582 -0.1778
54.8400 18.2648 -0.1898
54.8600 18.2714 -0.1863
54.8800 18.2780 -0.1753
54.9000 18.2848 -0.1870
54.9200 18.2915 -0.1848
54.9400 18.2982 -0.1811
54.9600 18.3048 -0.1892
54.9800 18.3115 -0.1829
55.0000 18.3182 -0.1821
55.0200 18.3248 -0.1909
55.0400 18.3314 -0.1826
55.0600 18.3381 -0.1840
55.0800 18.3448 -0.1906
55.1000 18.3515 -0.1818
55.1200 18.3581 -0.1834
55.1400 18.3648 -0.1960
55.1600 18.3715 -0.1820
55.1800 18.3781 -0.1871
55.2000 18.3848 -0.1897
55.2200 18.3914 -0.1837
55.2400 18.3980 -0.1914
55.2600 18.4047 -0.1891
55.2800 18.4114 -0.1861
55.3000 18.4181 -0.1976
55.3200 18.4248 -0.1828
55.3400 18.4315 -0.1888
55.3600 18.4382 -0.1983
55.3800 18.4448 -0.1902
55.4000 18.4513 -0.1809
55.4200 18.4580 -0.1952
55.4400 18.4647 -0.1883
55.4600 18.4715 -0.1831
55.4800 18.4782 -0.1988
55.5000 18.4849 -0.1898
55.5200 18.4915 -0.1829
55.5400 18.4982 -0.1974
55.5600 18.5048 -0.1914
55.5800 18.5114 -0.1831
55.6000 18.5181 -0.2055
55.6200 18.5248 -0.1891
55.6400 18.5315 -0.1866
55.6600 18.5382 -0.2063
55.6800 18.5448 -0.1857
55.7000 18.5515 -0.1806
55.7200 18.5582 -0.2116
55.7400 18.5648 -0.1896
55.7600 18.5714 -0.1878
55.7800 18.5780 -0.2066
55.8000 18.5847 -0.1878
55.8200 18.5914 -0.1910
55.8400 18.5981 -0.2154
55.8600 18.6048 -0.1829
55.8800 18.6115 -0.1956
55.9000 18.6182 -0.2194
55.9200 18.6248 -0.1811
55.9400 18.6314 -0.1916
55.9600 18.6380 -0.2163
55.9800 18.6447 -0.1861
56.0000 18.6514 -0.1906
56.0200 18.6581 -0.2108
56.0400 18.6648 -0.1932
56.0600 18.6715 -0.2039
56.0800 18.6781 -0.1968
56.1000 18.6848 -0.1898
56.1200 18.6914 -0.2128
56.1400 18.6980 -0.2053
56.1600 18.7047 -0.1785
56.1800 18.7115 -0.2108
56.2000 18.7181 -0.2050
56.2200 18.7248 -0.1934
56.2400 18.7315 -0.2041
56.2600 18.7382 -0.1983
56.2800 18.7448 -0.2026
56.3000 18.7514 -0.2023
56.3200 18.7580 -0.1910
56.3400 18.7647 -0.2072
56.3600 18.7714 -0.2121
56.3800 18.7781 -0.1907
56.4000 18.7848 -0.1990
56.4200 18.7915 -0.2059
56.4400 18.7982 -0.1987
56.4600 18.8048 -0.2087
56.4800 18.8114 -0.1938
56.5000 18.8180 -0.1991
56.5200 18.8247 -0.2120
56.5400 18.8314 -0.1886
56.5600 18.8381 -0.2065
56.5800 18.8448 -0.2146
56.6000 18.8515 -0.1895
56.6200 18.8581 -0.2068
56.6400 18.8648 -0.2067
56.6600 18.8714 -0.1903
56.6800 18.8780 -0.2134
56.7000 18.8847 -0.2051
56.7200 18.8914 -0.1895
56.7400 18.8981 -0.2120
56.7600 18.9047 -0.2048
56.7800 18.9114 -0.1899
56.8000 18.9181 -0.2157
56.8200 18.9248 -0.2008
56.8400 18.9314 -0.1990
56.8600 18.9381 -0.2090
56.8800 18.9447 -0.1981
56.9000 18.9514 -0.2021
56.9200 18.9581 -0.2121
56.9400 18.9648 -0.2008
56.9600 18.9715 -0.1982
56.9800 18.9782 -0.2056
57.0000 18.9848 -0.2051
57.0200 18.9914 -0.2003
57.0400 18.9980 -0.1998
57.0600 19.0047 -0.2060
57.0800 19.0114 -0.1992
57.1000 19.0182 -0.1980
57.1200 19.0248 -0.2114
57.1400 19.0315 -0.2055
57.1600 19.0382 -0.1912
57.1800 19.0448 -0.2126
57.2000 19.0514 -0.2079
57.2200 19.0580 -0.1938
57.2400 19.0647 -0.2051
57.2600 19.0714 -0.2074
57.2800 19.0781 -0.1966
57.3000 19.0848 -0.2067
57.3200 19.0915 -0.2053
57.3400 19.0982 -0.2012
57.3600 19.1048 -0.2078
57.3800 19.1114 -0.1989
57.4000 19.1180 -0.2015
57.4200 19.1246 -0.2164
57.4400 19.1314 -0.1977
57.4600 19.1381 -0.2052
57.4800 19.1448 -0.2117
57.5000 19.1514 -0.1925
57.5200 19.1581 -0.2102
57.5400 19.1648 -0.2218
57.5600 19.1714 -0.1922
57.5800 19.1780 -0.1965
57.6000 19.1847 -0.2197
57.6200 19.1914 -0.1979
57.6400 19.1981 -0.2071
57.6600 19.2048 -0.2130
57.6800 19.2115 -0.2002
57.7000 19.2182 -0.2112
57.7200 19.2248 -0.2166
57.7400 19.2315 -0.2027
57.7600 19.2381 -0.2145
57.7800 19.2448 -0.2128
57.8000 19.2515 -0.2063
57.8200 19.2582 -0.2127
57.8400 19.2648 -0.2130
57.8600 19.2715 -0.2132
57.8800 19.2782 -0.2133
57.9000 19.2848 -0.2081
57.9200 19.2914 -0.2176
57.9400 19.2980 -0.2175
57.9600 19.3047 -0.2022
57.9800 19.3114 -0.2162
58.0000 19.3181 -0.2287
58.0200 19.3248 -0.2075
58.0400 19.3315 -0.2138
58.0600 19.3381 -0.2208
58.0800 19.3448 -0.2151
58.1000 19.3514 -0.2248
58.1200 19.3580 -0.2151
58.1400 19.3647 -0.2119
58.1600 19.3714 -0.2229
58.1800 19.3781 -0.2197
58.2000 19.3848 -0.2110
58.2200 19.3914 -0.2300
58.2400 19.3981 -0.2255
58.2600 19.4048 -0.2181
58.2800 19.4114 -0.2226
58.3000 19.4181 -0.2233
58.3200 19.4248 -0.2189
58.3400 19.4314 -0.2355
58.3600 19.4381 -0.2169
58.3800 19.4448 -0.2149
58.4000 19.4515 -0.2331
58.4200 19.4582 -0.2257
58.4400 19.4648 -0.2181
58.4600 19.4714 -0.2325
58.4800 19.4780 -0.2251
58.5000 19.4847 -0.2172
58.5200 19.4914 -0.2254
58.5400 19.4981 -0.2299
58.5600 19.5048 -0.2295
58.5800 19.5115 -0.2213
58.6000 19.5182 -0.2321
58.6200 19.5248 -0.2272
58.6400 19.5314 -0.2223
58.6600 19.5380 -0.2305
58.6800 19.5447 -0.2306
58.7000 19.5514 -0.2203
58.7200 19.5581 -0.2367
58.7400 19.5648 -0.2335
58.7600 19.5715 -0.2227
58.7800 19.5781 -0.2367
58.8000 19.5848 -0.2314
58.8200 19.5914 -0.2248
58.8400 19.5980 -0.2429
58.8600 19.6047 -0.2277
58.8800 19.6114 -0.2276
58.9000 19.6181 -0.2385
58.9200 19.6248 -0.2293
58.9400 19.6315 -0.2343
58.9600 19.6382 -0.2426
58.9800 19.6448 -0.2273
59.0000 19.6514 -0.2288
59.0200 19.6580 -0.2381
59.0400 19.6647 -0.2273
59.0600 19.6714 -0.2311
59.0800 19.6782 -0.2364
59.1000 19.6848 -0.2271
59.1200 19.6915 -0.2359
59.1400 19.6982 -0.2323
59.1600 19.7048 -0.2238
59.1800 19.7114 -0.2353
59.2000 19.7180 -0.2318
59.2200 19.7247 -0.2272
59.2400 19.7314 -0.2322
59.2600 19.7381 -0.2364
59.2800 19.7448 -0.2234
59.3000 19.7515 -0.2377
59.3200 19.7582 -0.2340
59.3400 19.7648 -0.2198
59.3600 19.7715 -0.2339
59.3800 19.7781 -0.2316
59.4000 19.7847 -0.2246
59.4200 19.7914 -0.2329
59.4400 19.7981 -0.2287
59.4600 19.8048 -0.2313
59.4800 19.8115 -0.2292
59.5000 19.8182 -0.2276
59.5200 19.8248 -0.2304
59.5400 19.8314 -0.2326
59.5600 19.8380 -0.2265
59.5800 19.8446 -0.2281
59.6000 19.8514 -0.2326
59.6200 19.8581 -0.2311
59.6400 19.8648 -0.2341
59.6600 19.8714 -0.2245
59.6800 19.8781 -0.2338
59.7000 19.8848 -0.2354
59.7200 19.8914 -0.2283
59.7400 19.8980 -0.2319
59.7600 19.9047 -0.2361
59.7800 19.9114 -0.2338
59.8000 19.9182 -0.2320
59.8200 19.9248 -0.2290
59.8400 19.9315 -0.2378
59.8600 19.9382 -0.2403
59.8800 19.9449 -0.2330
59.9000 19.9515 -0.2356
59.9200 19.9581 -0.2428
59.9400 19.9647 -0.2330
59.9600 19.9714 -0.2387
59.9800 19.9781 -0.2388
60.0000 19.9848 -0.2412
60.0200 19.9915 -0.2440
60.0400 19.9982 -0.2346
60.0600 20.0048 -0.2397
60.0800 20.0114 -0.2479
60.1000 20.0180 -0.2363
60.1200 20.0247 -0.2371
60.1400 20.0314 -0.2497
60.1600 20.0381 -0.2426
60.1800 20.0448 -0.2453
60.2000 20.0515 -0.2433
60.2200 20.0581 -0.2391
60.2400 20.0648 -0.2461
60.2600 20.0714 -0.2557
60.2800 20.0780 -0.2349
60.3000 20.0847 -0.2455
60.3200 20.0914 -0.2545
60.3400 20.0981 -0.2471
60.3600 20.1048 -0.2384
60.3800 20.1114 -0.2480
60.4000 20.1181 -0.2545
60.4200 20.1248 -0.2476
60.4400 20.1314 -0.2453
60.4600 20.1380 -0.2522
60.4800 20.1447 -0.2597
60.5000 20.1514 -0.2439
60.5200 20.1581 -0.2429
60.5400 20.1648 -0.2640
60.5600 20.1715 -0.2628
60.5800 20.1782 -0.2382
60.6000 20.1848 -0.2457
60.6200 20.1915 -0.2711
60.6400 20.1981 -0.2530
60.6600 20.2047 -0.2347
60.6800 20.2114 -0.2652
60.7000 20.2181 -0.2663
60.7200 20.2248 -0.2385
60.7400 20.2315 -0.2516
60.7600 20.2382 -0.2689
60.7800 20.2448 -0.2583
60.8000 20.2515 -0.2541
60.8200 20.2581 -0.2514
60.8400 20.2647 -0.2619
60.8600 20.2714 -0.2631
60.8800 20.2781 -0.2482
60.9000 20.2848 -0.2602
60.9200 20.2914 -0.2760
60.9400 20.2981 -0.2445
60.9600 20.3048 -0.2542
60.9800 20.3114 -0.2755
61.0000 20.3180 -0.2545
61.0200 20.3247 -0.2574
61.0400 20.3314 -0.2619
61.0600 20.3381 -0.2472
61.0800 20.3448 -0.2400
61.1000 20.3514 -0.1761
61.1200 20.3581 -0.1031
61.1400 20.3648 -0.1013
61.1600 20.3714 -0.0572
61.1800 20.3781 -0.0118
61.2000 20.3847 -0.0188
61.2200 20.3914 -0.0044
61.2400 20.3982 0.0382
61.2600 20.4049 0.0437
61.2800 20.4115 0.0540
61.3000 20.4182 0.1018
61.3200 20.4248 0.1491
61.3400 20.4315 0.1508
61.3600 20.4381 0.1787
61.3800 20.4447 0.2241
61.4000 20.4514 0.2431
61.4200 20.4581 0.2696
61.4400 20.4648 0.3039
61.4600 20.4715 0.3109
61.4800 20.4782 0.3485
61.5000 20.4848 0.3861
61.5200 20.4915 0.3843
61.5400 20.4981 0.4302
61.5600 20.5047 0.4701
61.5800 20.5114 0.4408
61.6000 20.5181 0.4791
61.6200 20.5248 0.5036
61.6400 20.5315 0.4567
61.6600 20.5382 0.4599
61.6800 20.5448 0.4640
61.7000 20.5515 0.4465
61.7200 20.5580 0.4713
61.7400 20.5647 0.4704
61.7600 20.5713 0.4334
61.7800 20.5781 0.4593
61.8000 20.5848 0.4664
61.8200 20.5914 0.4486
61.8400 20.5981 0.4660
61.8600 20.6048 0.4637
61.8800 20.6114 0.4535
61.9000 20.6180 0.4654
61.9200 20.6247 0.4567
61.9400 20.6314 0.4728
61.9600 20.6381 0.4690
61.9800 20.6448 0.4562
62.0000 20.6515 0.4617
62.0200 20.6582 0.4649
62.0400 20.6649 0.4731
62.0600 20.6715 0.4792
62.0800 20.6781 0.4455
62.1000 20.6847 0.4567
62.1200 20.6914 0.4944
62.1400 20.6981 0.4715
62.1600 20.7048 0.4681
62.1800 20.7115 0.4614
62.2000 20.7182 0.4622
62.2200 20.7248 0.4842
62.2400 20.7314 0.4696
62.2600 20.7381 0.4569
62.2800 20.7447 0.4795
62.3000 20.7514 0.4587
62.3200 20.7581 0.4519
62.3400 20.7648 0.4913
62.3600 20.7714 0.4764
62.3800 20.7781 0.4493
62.4000 20.7848 0.4668
62.4200 20.7914 0.4565
62.4400 20.7981 0.4804
62.4600 20.8047 0.4804
62.4800 20.8114 0.4363
62.5000 20.8181 0.4599
62.5200 20.8248 0.4829
62.5400 20.8315 0.4560
62.5600 20.8382 0.4578
62.5800 20.8449 0.4577
62.6000 20.8515 0.4506
62.6200 20.8581 0.4629
62.6400 20.8647 0.4550
62.6600 20.8714 0.4534
62.6800 20.8781 0.4585
62.7000 20.8848 0.4472
62.7200 20.8915 0.4559
62.7400 20.8982 0.4729
62.7600 20.9048 0.4541
62.7800 20.9115 0.4455
62.8000 20.9181 0.4460
62.8200 20.9247 0.4581
62.8400 20.9314 0.4657
62.8600 20.9381 0.4470
62.8800 20.9448 0.4300
62.9000 20.9515 0.4507
62.9200 20.9581 0.4599
62.9400 20.9648 0.4391
62.9600 20.9715 0.4396
62.9800 20.9781 0.4488
63.0000 20.9847 0.4422
63.0200 20.9914 0.4454
63.0400 20.9981 0.4543
63.0600 21.0048 0.4487
63.0800 21.0115 0.4353
63.1000 21.0181 0.4446
63.1200 21.0248 0.4501
63.1400 21.0315 0.4375
63.1600 21.0381 0.4452
63.1800 21.0447 0.4422
63.2000 21.0513 0.4389
63.2200 21.0581 0.4448
63.2400 21.0648 0.4457
63.2600 21.0715 0.4346
63.2800 21.0781 0.4431
63.3000 21.0848 0.4410
63.3200 21.0915 0.4390
63.3400 21.0981 0.4385
63.3600 21.1047 0.4400
63.3800 21.1114 0.4390
63.4000 21.1181 0.4422
63.4200 21.1248 0.4303
63.4400 21.1315 0.4449
63.4600 21.1382 0.4478
63.4800 21.1448 0.4238
63.5000 21.1515 0.4392
63.5200 21.1581 0.4512
63.5400 21.1647 0.4354
63.5600 21.1714 0.4380
63.5800 21.1781 0.4409
63.6000 21.1848 0.4339
63.6200 21.1915 0.4439
63.6400 21.1982 0.4374
63.6600 21.2049 0.4295
63.6800 21.2115 0.4485
63.7000 21.2181 0.4328
63.7200 21.2247 0.4226
63.7400 21.2313 0.4567
63.7600 21.2381 0.4358
63.7800 21.2448 0.4227
63.8000 21.2515 0.4439
63.8200 21.2581 0.4377
63.8400 21.2648 0.4286
63.8600 21.2715 0.4430
63.8800 21.2781 0.4306
63.9000 21.2847 0.4249
63.9200 21.2914 0.4428
63.9400 21.2980 0.4324
63.9600 21.3047 0.4166
63.9800 21.3114 0.4351
64.0000 21.3181 0.4272
64.0200 21.3248 0.4211
64.0400 21.3315 0.4339
64.0600 21.3381 0.4325
64.0800 21.3447 0.4175
64.1000 21.3514 0.4351
64.1200 21.3581 0.4324
64.1400 21.3648 0.4102
64.1600 21.3715 0.4389
64.1800 21.3782 0.4303
64.2000 21.3849 0.4066
64.2200 21.3915 0.4357
64.2400 21.3981 0.4286
64.2600 21.4047 0.4092
64.2800 21.4114 0.4456
64.3000 21.4181 0.4245
64.3200 21.4248 0.4019
64.3400 21.4315 0.4412
64.3600 21.4381 0.4264
64.3800 21.4448 0.4037
64.4000 21.4515 0.4469
64.4200 21.4581 0.4184
64.4400 21.4647 0.4130
64.4600 21.4714 0.4428
64.4800 21.4781 0.4113
64.5000 21.4848 0.4100
64.5200 21.4914 0.4445
64.5400 21.4981 0.4206
64.5600 21.5048 0.4055
64.5800 21.5115 0.4299
64.6000 21.5181 0.4198
64.6200 21.5247 0.4109
64.6400 21.5313 0.4280
64.6600 21.5380 0.4181
64.6800 21.5447 0.4156
64.7000 21.5515 0.4279
64.7200 21.5582 0.4175
64.7400 21.5648 0.4149
64.7600 21.5715 0.4201
64.7800 21.5781 0.4186
64.8000 21.5847 0.4124
64.8200 21.5914 0.4251
64.8400 21.5981 0.4198
64.8600 21.6048 0.4128
64.8800 21.6115 0.4122
64.9000 21.6181 0.4208
64.9200 21.6248 0.4249
64.9400 21.6315 0.4059
64.9600 21.6381 0.4100
64.9800 21.6448 0.4251
65.0000 21.6514 0.4121
65.0200 21.6581 0.4166
65.0400 21.6648 0.4179
65.0600 21.6715 0.4061
65.0800 21.6782 0.4121
65.1000 21.6848 0.4220
65.1200 21.6915 0.4120
65.1400 21.6981 0.4140
65.1600 21.7047 0.4126
65.1800 21.7114 0.4095
65.2000 21.7180 0.4298
65.2200 21.7248 0.4024
65.2400 21.7315 0.4064
65.2600 21.7381 0.4303
65.2800 21.7448 0.4025
65.3000 21.7515 0.4054
65.3200 21.7581 0.4258
65.3400 21.7647 0.4028
65.3600 21.7713 0.4067
65.3800 21.7780 0.4221
65.4000 21.7847 0.4111
65.4200 21.7914 0.3962
65.4400 21.7981 0.4135
65.4600 21.8048 0.4137
65.4800 21.8114 0.4116
65.5000 21.8181 0.4031
65.5200 21.8247 0.4058
65.5400 21.8314 0.4116
65.5600 21.8381 0.4030
65.5800 21.8448 0.4160
65.6000 21.8515 0.4118
65.6200 21.8582 0.3908
65.6400 21.8649 0.4065
65.6600 21.8715 0.4099
65.6800 21.8782 0.3964
65.7000 21.8847 0.4117
65.7200 21.8914 0.4089
65.7400 21.8981 0.3939
65.7600 21.9048 0.4013
65.7800 21.9115 0.4123
65.8000 21.9182 0.3964
65.8200 21.9249 0.4098
65.8400 21.9315 0.3988
65.8600 21.9381 0.3874
65.8800 21.9447 0.4122
65.9000 21.9514 0.4059
65.9200 21.9581 0.3913
65.9400 21.9648 0.4078
65.9600 21.9715 0.4003
65.9800 21.9781 0.3966
66.0000 21.9848 0.4035
66.0200 21.9915 0.3973
66.0400 21.9981 0.3939
66.0600 22.0048 0.4049
66.0800 22.0114 0.3994
66.1000 22.0180 0.4021
66.1200 22.0247 0.3940
66.1400 22.0314 0.3942
66.1600 22.0381 0.4136
66.1800 22.0448 0.3923
66.2000 22.0515 0.3848
66.2200 22.0581 0.4054
66.2400 22.0647 0.3998
66.2600 22.0714 0.3976
66.2800 22.0780 0.4040
66.3000 22.0848 0.3883
66.3200 22.0915 0.3985
66.3400 22.0982 0.3946
66.3600 22.1049 0.3894
66.3800 22.1115 0.4122
66.4000 22.1181 0.3985
66.4200 22.1247 0.3711
66.4400 22.1314 0.4111
66.4600 22.1381 0.4014
66.4800 22.1448 0.3853
66.5000 22.1515 0.4020
66.5200 22.1582 0.3904
66.5400 22.1648 0.3901
66.5600 22.1715 0.4102
66.5800 22.1781 0.3916
66.6000 22.1847 0.3820
66.6200 22.1914 0.4003
66.6400 22.1980 0.3895
66.6600 22.2047 0.3881
66.6800 22.2114 0.4014
66.7000 22.2181 0.3886
66.7200 22.2248 0.3866
66.7400 22.2315 0.3996
66.7600 22.2381 0.3867
66.7800 22.2447 0.3924
66.8000 22.2513 0.3984
66.8200 22.2580 0.3842
66.8400 22.2647 0.3862
66.8600 22.2714 0.4026
66.8800 22.2781 0.3829
66.9000 22.2848 0.3813
66.9200 22.2915 0.4005
66.9400 22.2981 0.3883
66.9600 22.3048 0.3833
66.9800 22.3114 0.3962
67.0000 22.3181 0.3860
67.0200 22.3248 0.3889
67.0400 22.3314 0.3947
67.0600 22.3381 0.3833
67.0800 22.3448 0.3811
67.1000 22.3515 0.3952
67.1200 22.3582 0.3847
67.1400 22.3648 0.3794
67.1600 22.3714 0.4011
67.1800 22.3780 0.3783
67.2000 22.3847 0.3780
67.2200 22.3915 0.3993
67.2400 22.3982 0.3819
67.2600 22.4048 0.3802
67.2800 22.4115 0.4006
67.3000 22.4182 0.3735
67.3200 22.4248 0.3801
67.3400 22.4314 0.3992
67.3600 22.4381 0.3815
67.3800 22.4448 0.3743
67.4000 22.4515 0.4018
67.4200 22.4582 0.3722
67.4400 22.4648 0.3720
67.4600 22.4715 0.3981
67.4800 22.4781 0.3733
67.5000 22.4847 0.3734
67.5200 22.4913 0.3916
67.5400 22.4980 0.3729
67.5600 22.5047 0.3787
67.5800 22.5114 0.3884
67.6000 22.5181 0.3736
67.6200 22.5248 0.3741
67.6400 22.5315 0.3850
67.6600 22.5381 0.3756
67.6800 22.5447 0.3751
67.7000 22.5514 0.3837
67.7200 22.5580 0.3785
67.7400 22.5647 0.3718
67.7600 22.5715 0.3741
67.7800 22.5782 0.3838
67.8000 22.5849 0.3721
67.8200 22.5916 0.3751
67.8400 22.5982 0.3725
67.8600 22.6048 0.3703
67.8800 22.6114 0.3815
67.9000 22.6181 0.3774
67.9200 22.6248 0.3617
67.9400 22.6315 0.3764
67.9600 22.6382 0.3768
67.9800 22.6448 0.3632
68.0000 22.6515 0.3774
68.0200 22.6582 0.3756
68.0400 22.6648 0.3591
68.0600 22.6714 0.3765
68.0800 22.6781 0.3717
68.1000 22.6848 0.3631
68.1200 22.6914 0.3783
68.1400 22.6981 0.3657
68.1600 22.7048 0.3621
68.1800 22.7115 0.3759
68.2000 22.7181 0.3686
68.2200 22.7247 0.3612
68.2400 22.7313 0.3715
68.2600 22.7380 0.3658
68.2800 22.7447 0.3645
68.3000 22.7514 0.3729
68.3200 22.7581 0.3653
68.3400 22.7648 0.3629
68.3600 22.7715 0.3733
68.3800 22.7781 0.3606
68.4000 22.7847 0.3651
68.4200 22.7914 0.3731
68.4400 22.7980 0.3638
68.4600 22.8048 0.3599
68.4800 22.8115 0.3694
68.5000 22.8182 0.3634
68.5200 22.8248 0.3654
68.5400 22.8315 0.3671
68.5600 22.8382 0.3611
68.5800 22.8448 0.3680
68.6000 22.8514 0.3610
68.6200 22.8581 0.3613
68.6400 22.8648 0.3736
68.6600 22.8715 0.3583
68.6800 22.8781 0.3577
68.7000 22.8848 0.3752
68.7200 22.8915 0.3561
68.7400 22.8982 0.3587
68.7600 22.9048 0.3757
68.7800 22.9114 0.3577
68.8000 22.9180 0.3592
68.8200 22.9247 0.3712
68.8400 22.9314 0.3539
68.8600 22.9381 0.3650
68.8800 22.9448 0.3685
68.9000 22.9515 0.3534
68.9200 22.9582 0.3611
68.9400 22.9648 0.3675
68.9600 22.9714 0.3574
68.9800 22.9780 0.3691
69.0000 22.9847 0.3596
69.0200 22.9914 0.3500
69.0400 22.9981 0.3687
69.0600 23.0048 0.3582
69.0800 23.0114 0.3533
69.1000 23.0181 0.3648
69.1200 23.0247 0.3599
69.1400 23.0314 0.3526
69.1600 23.0380 0.3576
69.1800 23.0447 0.3616
69.2000 23.0514 0.3548
69.2200 23.0581 0.3597
69.2400 23.0648 0.3625
69.2600 23.0715 0.3515
69.2800 23.0782 0.3520
69.3000 23.0848 0.3565
69.3200 23.0914 0.3599
69.3400 23.0980 0.3573
69.3600 23.1047 0.3575
69.3800 23.1115 0.3517
69.4000 23.1182 0.3505
69.4200 23.1248 0.3580
69.4400 23.1315 0.3555
69.4600 23.1382 0.3521
69.4800 23.1448 0.3635
69.5000 23.1514 0.3495
69.5200 23.1581 0.3498
69.5400 23.1648 0.3596
69.5600 23.1715 0.3535
69.5800 23.1781 0.3491
69.6000 23.1848 0.3556
69.6200 23.1915 0.3449
69.6400 23.1982 0.3510
69.6600 23.2048 0.3650
69.6800 23.2114 0.3431
69.7000 23.2180 0.3521
69.7200 23.2247 0.3592
69.7400 23.2314 0.3411
69.7600 23.2381 0.3561
69.7800 23.2448 0.3598
69.8000 23.2515 0.3349
69.8200 23.2582 0.3492
69.8400 23.2648 0.3556
69.8600 23.2714 0.3472
69.8800 23.2780 0.3484
69.9000 23.2847 0.3516
69.9200 23.2915 0.3416
69.9400 23.2982 0.3527
69.9600 23.3049 0.3457
69.9800 23.3115 0.3392
70.0000 23.3182 0.3590
70.0200 23.3248 0.3446
70.0400 23.3314 0.3321
70.0600 23.3381 0.3589
70.0800 23.3448 0.3471
70.1000 23.3515 0.3387
70.1200 23.3582 0.3480
70.1400 23.3648 0.3441
70.1600 23.3715 0.3415
70.1800 23.3782 0.3464
70.2000 23.3848 0.3411
70.2200 23.3914 0.3473
70.2400 23.3980 0.3544
70.2600 23.4047 0.3319
70.2800 23.4114 0.3460
70.3000 23.4181 0.3513
70.3200 23.4248 0.3418
70.3400 23.4315 0.3442
70.3600 23.4382 0.3410
70.3800 23.4448 0.3363
70.4000 23.4514 0.3526
70.4200 23.4580 0.3466
70.4400 23.4647 0.3351
70.4600 23.4714 0.3434
70.4800 23.4781 0.3436
70.5000 23.4848 0.3406
70.5200 23.4915 0.3474
70.5400 23.4981 0.3355
70.5600 23.5048 0.3371
70.5800 23.5114 0.3463
70.6000 23.5180 0.3422
70.6200 23.5247 0.3403
70.6400 23.5315 0.3425
70.6600 23.5382 0.3377
70.6800 23.5448 0.3383
70.7000 23.5515 0.3431
70.7200 23.5582 0.3383
70.7400 23.5648 0.3359
70.7600 23.5714 0.3390
70.7800 23.5781 0.3362
70.8000 23.5847 0.3398
70.8200 23.5914 0.3398
70.8400 23.5981 0.3339
70.8600 23.6048 0.3376
70.8800 23.6115 0.3367
70.9000 23.6182 0.3405
70.9200 23.6248 0.3302
70.9400 23.6314 0.3371
70.9600 23.6380 0.3415
70.9800 23.6447 0.3309
71.0000 23.6514 0.3291
71.0200 23.6581 0.3380
71.0400 23.6648 0.3383
71.0600 23.6715 0.3381
71.0800 23.6782 0.3328
71.1000 23.6848 0.3319
71.1200 23.6914 0.3398
71.1400 23.6980 0.3327
71.1600 23.7047 0.3333
71.1800 23.7114 0.3363
71.2000 23.7181 0.3348
71.2200 23.7248 0.3277
71.2400 23.7314 0.3355
71.2600 23.7381 0.3345
71.2800 23.7448 0.3331
71.3000 23.7514 0.3291
71.3200 23.7581 0.3265
71.3400 23.7647 0.3340
71.3600 23.7714 0.3374
71.3800 23.7781 0.3238
71.4000 23.7848 0.3418
71.4200 23.7915 0.3296
71.4400 23.7982 0.3206
71.4600 23.8048 0.3345
71.4800 23.8114 0.3359
71.5000 23.8180 0.3235
71.5200 23.8247 0.3349
71.5400 23.8314 0.3302
71.5600 23.8382 0.3222
71.5800 23.8448 0.3366
71.6000 23.8515 0.3263
71.6200 23.8582 0.3230
71.6400 23.8648 0.3371
71.6600 23.8714 0.3280
71.6800 23.8781 0.3234
71.7000 23.8847 0.3317
71.7200 23.8914 0.3274
71.7400 23.8981 0.3281
71.7600 23.9048 0.3307
71.7800 23.9115 0.3241
71.8000 23.9182 0.3208
71.8200 23.9248 0.3348
71.8400 23.9314 0.3171
71.8600 23.9380 0.3276
71.8800 23.9447 0.3371
71.9000 23.9514 0.3207
71.9200 23.9581 0.3221
71.9400 23.9648 0.3302
71.9600 23.9714 0.3205
71.9800 23.9781 0.3236
72.0000 23.9847 0.3194
72.0200 23.9914 0.3201
72.0400 23.9980 0.3248
72.0600 24.0047 0.3281
72.0800 24.0114 0.3175
72.1000 24.0182 0.3165
72.1200 24.0248 0.3247
72.1400 24.0315 0.3238
72.1600 24.0382 0.3160
72.1800 24.0449 0.3218
72.2000 24.0515 0.3259
72.2200 24.0581 0.3167
72.2400 24.0648 0.3194
72.2600 24.0715 0.3225
72.2800 24.0781 0.3142
72.3000 24.0848 0.3194
72.3200 24.0915 0.3229
72.3400 24.0982 0.3109
72.3600 24.1048 0.3229
72.3800 24.1114 0.3181
72.4000 24.1180 0.3150
72.4200 24.1247 0.3225
72.4400 24.1314 0.3164
72.4600 24.1381 0.3121
72.4800 24.1448 0.3227
72.5000 24.1515 0.3156
72.5200 24.1581 0.3180
72.5400 24.1648 0.3223
72.5600 24.1714 0.3098
72.5800 24.1780 0.3193
72.6000 24.1847 0.3276
72.6200 24.1914 0.3102
72.6400 24.1981 0.3123
72.6600 24.2048 0.3200
72.6800 24.2114 0.3155
72.7000 24.2181 0.3186
72.7200 24.2248 0.3134
72.7400 24.2314 0.3129
72.7600 24.2381 0.3146
72.7800 24.2447 0.3153
72.8000 24.2514 0.3076
72.8200 24.2581 0.3208
72.8400 24.2648 0.3141
72.8600 24.2715 0.3107
72.8800 24.2782 0.3163
72.9000 24.2849 0.3163
72.9200 24.2915 0.3100
72.9400 24.2981 0.3177
72.9600 24.3047 0.3171
72.9800 24.3114 0.3132
73.0000 24.3181 0.3129
73.0200 24.3248 0.3135
73.0400 24.3315 0.3141
73.0600 24.3382 0.3128
73.0800 24.3448 0.3098
73.1000 24.3514 0.3138
73.1200 24.3580 0.3137
73.1400 24.3647 0.3067
73.1600 24.3714 0.3137
73.1800 24.3781 0.3125
73.2000 24.3848 0.3087
73.2200 24.3914 0.3159
73.2400 24.3981 0.3129
73.2600 24.4048 0.3064
73.2800 24.4114 0.3126
73.3000 24.4180 0.3117
73.3200 24.4247 0.3120
73.3400 24.4314 0.3087
73.3600 24.4381 0.3128
73.3800 24.4448 0.3045
73.4000 24.4515 0.3143
73.4200 24.4581 0.3062
73.4400 24.4648 0.3061
73.4600 24.4715 0.3095
73.4800 24.4780 0.3080
73.5000 24.4847 0.3060
73.5200 24.4914 0.3090
73.5400 24.4981 0.3062
73.5600 24.5048 0.3050
73.5800 24.5115 0.3074
73.6000 24.5182 0.3056
73.6200 24.5248 0.3022
73.6400 24.5314 0.3084
73.6600 24.5380 0.3048
73.6800 24.5447 0.3018
73.7000 24.5514 0.3044
73.7200 24.5581 0.3045
73.7400 24.5648 0.3006
73.7600 24.5715 0.2990
73.7800 24.5782 0.3047
73.8000 24.5848 0.2949
73.8200 24.5915 0.3003
73.8400 24.5981 0.3064
73.8600 24.6047 0.2928
73.8800 24.6114 0.2994
73.9000 24.6181 0.3059
73.9200 24.6248 0.2924
73.9400 24.6315 0.2957
73.9600 24.6382 0.3040
73.9800 24.6448 0.2982
74.0000 24.6514 0.2886
74.0200 24.6580 0.3018
74.0400 24.6646 0.2957
74.0600 24.6714 0.2921
74.0800 24.6781 0.2991
74.1000 24.6848 0.2912
74.1200 24.6915 0.2931
74.1400 24.6981 0.3014
74.1600 24.7048 0.2857
74.1800 24.7114 0.2932
74.2000 24.7181 0.3018
74.2200 24.7247 0.2869
74.2400 24.7314 0.2913
74.2600 24.7381 0.2965
74.2800 24.7448 0.2869
74.3000 24.7515 0.2907
74.3200 24.7582 0.2992
74.3400 24.7649 0.2799
74.3600 24.7715 0.2964
74.3800 24.7781 0.2951
74.4000 24.7847 0.2889
74.4200 24.7914 0.2950
74.4400 24.7981 0.2932
74.4600 24.8048 0.2901
74.4800 24.8115 0.2972
74.5000 24.8182 0.2915
74.5200 24.8248 0.2864
74.5400 24.8314 0.2984
74.5600 24.8380 0.2918
74.5800 24.8447 0.2834
74.6000 24.8514 0.3009
74.6200 24.8581 0.2867
74.6400 24.8648 0.2842
74.6600 24.8715 0.2989
74.6800 24.8781 0.2889
74.7000 24.8848 0.2882
74.7200 24.8914 0.2911
74.7400 24.8981 0.2884
74.7600 24.9047 0.2892
74.7800 24.9114 0.2990
74.8000 24.9181 0.2824
74.8200 24.9248 0.2903
74.8400 24.9314 0.2958
74.8600 24.9381 0.2859
74.8800 24.9448 0.2919
74.9000 24.9515 0.2976
74.9200 24.9581 0.2824
74.9400 24.9647 0.2914
74.9600 24.9714 0.2933
74.9800 24.9781 0.2861
75.0000 24.9848 0.2859
75.0200 24.9915 0.2962
75.0400 24.9982 0.2850
75.0600 25.0048 0.2900
75.0800 25.0115 0.2893
75.1000 25.0181 0.2841
75.1200 25.0247 0.2906
75.1400 25.0314 0.2921
75.1600 25.0381 0.2860
75.1800 25.0448 0.2902
75.2000 25.0515 0.2893
75.2200 25.0582 0.2847
75.2400 25.0648 0.2905
75.2600 25.0715 0.2917
75.2800 25.0781 0.2874
75.3000 25.0847 0.2868
75.3200 25.0914 0.2917
75.3400 25.0981 0.2847
75.3600 25.1048 0.2920
75.3800 25.1115 0.2876
75.4000 25.1181 0.2844
75.4200 25.1248 0.2887
75.4400 25.1314 0.2866
75.4600 25.1381 0.2801
75.4800 25.1447 0.2861
75.5000 25.1513 0.2855
75.5200 25.1580 0.2817
75.5400 25.1647 0.2834
75.5600 25.1714 0.2865
75.5800 25.1781 0.2791
75.6000 25.1848 0.2863
75.6200 25.1914 0.2849
75.6400 25.1981 0.2790
75.6600 25.2047 0.2878
75.6800 25.2114 0.2838
75.7000 25.2181 0.2806
75.7200 25.2249 0.2841
75.7400 25.2315 0.2815
75.7600 25.2382 0.2795
75.7800 25.2448 0.2817
75.8000 25.2515 0.2821
75.8200 25.2581 0.2801
75.8400 25.2647 0.2831
75.8600 25.2714 0.2805
75.8800 25.2781 0.2751
75.9000 25.2848 0.2868
75.9200 25.2915 0.2770
75.9400 25.2982 0.2794
75.9600 25.3049 0.2766
75.9800 25.3115 0.2815
76.0000 25.3181 0.2814
76.0200 25.3247 0.2775
76.0400 25.3314 0.2785
76.0600 25.3381 0.2785
76.0800 25.3448 0.2735
76.1000 25.3515 0.2777
76.1200 25.3582 0.2804
76.1400 25.3648 0.2721
76.1600 25.3715 0.2729
76.1800 25.3781 0.2783
76.2000 25.3846 0.2737
76.2200 25.3913 0.2754
76.2400 25.3980 0.2789
76.2600 25.4048 0.2716
76.2800 25.4115 0.2765
76.3000 25.4181 0.2768
76.3200 25.4248 0.2728
76.3400 25.4314 0.2768
76.3600 25.4381 0.2793
76.3800 25.4447 0.2700
76.4000 25.4514 0.2784
76.4200 25.4581 0.2720
76.4400 25.4648 0.2704
76.4600 25.4715 0.2748
76.4800 25.4782 0.2732
76.5000 25.4849 0.2679
76.5200 25.4915 0.2710
76.5400 25.4981 0.2707
76.5600 25.5047 0.2700
76.5800 25.5114 0.2716
76.6000 25.5181 0.2695
76.6200 25.5248 0.2695
76.6400 25.5315 0.2698
76.6600 25.5382 0.2732
76.6800 25.5448 0.2674
76.7000 25.5515 0.2700
76.7200 25.5581 0.2711
76.7400 25.5647 0.2648
76.7600 25.5714 0.2713
76.7800 25.5781 0.2716
76.8000 25.5848 0.2639
76.8200 25.5914 0.2674
76.8400 25.5981 0.2674
76.8600 25.6048 0.2633
76.8800 25.6114 0.2669
76.9000 25.6181 0.2709
76.9200 25.6247 0.2621
76.9400 25.6313 0.2673
76.9600 25.6381 0.2684
76.9800 25.6448 0.2680
77.0000 25.6515 0.2604
77.0200 25.6581 0.2662
77.0400 25.6648 0.2659
77.0600 25.6715 0.2651
77.0800 25.6781 0.2657
77.1000 25.6847 0.2676
77.1200 25.6914 0.2618
77.1400 25.6981 0.2662
77.1600 25.7048 0.2656
77.1800 25.7115 0.2613
77.2000 25.7182 0.2648
77.2200 25.7249 0.2640
77.2400 25.7315 0.2553
77.2600 25.7381 0.2618
77.2800 25.7447 0.2692
77.3000 25.7514 0.2567
77.3200 25.7581 0.2608
77.3400 25.7648 0.2634
77.3600 25.7715 0.2558
77.3800 25.7782 0.2588
77.4000 25.7848 0.2622
77.4200 25.7915 0.2564
77.4400 25.7981 0.2615
77.4600 25.8048 0.2552
77.4800 25.8114 0.2541
77.5000 25.8181 0.2589
77.5200 25.8248 0.2655
77.5400 25.8314 0.2491
77.5600 25.8381 0.2559
77.5800 25.8448 0.2625
77.6000 25.8515 0.2510
77.6200 25.8581 0.2558
77.6400 25.8647 0.2637
77.6600 25.8713 0.2543
77.6800 25.8780 0.2556
77.7000 25.8848 0.2564
77.7200 25.8915 0.2513
77.7400 25.8981 0.2559
77.7600 25.9048 0.2570
77.7800 25.9114 0.2495
77.8000 25.9181 0.2521
77.8200 25.9247 0.2596
77.8400 25.9314 0.2444
77.8600 25.9381 0.2572
77.8800 25.9448 0.2557
77.9000 25.9515 0.2449
77.9200 25.9581 0.2543
77.9400 25.9648 0.2564
77.9600 25.9715 0.2416
77.9800 25.9781 0.2563
78.0000 25.9847 0.2559
78.0200 25.9914 0.2453
78.0400 25.9981 0.2534
78.0600 26.0048 0.2566
78.0800 26.0114 0.2434
78.1000 26.0181 0.2529
78.1200 26.0249 0.2509
78.1400 26.0315 0.2420
78.1600 26.0381 0.2515
78.1800 26.0447 0.2514
78.2000 26.0514 0.2423
78.2200 26.0581 0.2534
78.2400 26.0648 0.2501
78.2600 26.0715 0.2354
78.2800 26.0782 0.2517
78.3000 26.0848 0.2495
78.3200 26.0915 0.2417
78.3400 26.0981 0.2470
78.3600 26.1047 0.2462
78.3800 26.1113 0.2413
78.4000 26.1180 0.2489
78.4200 26.1247 0.2449
78.4400 26.1314 0.2410
78.4600 26.1381 0.2428
78.4800 26.1448 0.2468
78.5000 26.1515 0.2395
78.5200 26.1581 0.2452
78.5400 26.1647 0.2463
78.5600 26.1714 0.2394
78.5800 26.1781 0.2420
78.6000 26.1848 0.2462
78.6200 26.1915 0.2405
78.6400 26.1982 0.2419
78.6600 26.2049 0.2453
78.6800 26.2115 0.2378
78.7000 26.2181 0.2423
78.7200 26.2248 0.2448
78.7400 26.2314 0.2365
78.7600 26.2381 0.2408
78.7800 26.2448 0.2450
78.8000 26.2515 0.2296
78.8200 26.2582 0.2399
78.8400 26.2648 0.2479
78.8600 26.2715 0.2318
78.8800 26.2781 0.2377
78.9000 26.2847 0.2456
78.9200 26.2914 0.2311
78.9400 26.2981 0.2426
78.9600 26.3048 0.2401
78.9800 26.3114 0.2273
79.0000 26.3181 0.2422
79.0200 26.3248 0.2461
79.0400 26.3315 0.2246
79.0600 26.3381 0.2436
79.0800 26.3447 0.2467
79.1000 26.3513 0.2298
79.1200 26.3580 0.2416
79.1400 26.3647 0.2391
79.1600 26.3715 0.2317
79.1800 26.3781 0.2408
79.2000 26.3848 0.2388
79.2200 26.3915 0.2291
79.2400 26.3981 0.2405
79.2600 26.4047 0.2385
79.2800 26.4114 0.2297
79.3000 26.4181 0.2408
79.3200 26.4248 0.2349
79.3400 26.4315 0.2278
79.3600 26.4381 0.2412
79.3800 26.4448 0.2362
79.4000 26.4515 0.2343
79.4200 26.4582 0.2345
79.4400 26.4648 0.2359
79.4600 26.4714 0.2298
79.4800 26.4781 0.2340
79.5000 26.4848 0.2324
79.5200 26.4915 0.2308
79.5400 26.4981 0.2367
79.5600 26.5048 0.2356
79.5800 26.5115 0.2287
79.6000 26.5182 0.2338
79.6200 26.5248 0.2328
79.6400 26.5314 0.2356
79.6600 26.5380 0.2339
79.6800 26.5447 0.2308
79.7000 26.5515 0.2363
79.7200 26.5581 0.2308
79.7400 26.5648 0.2324
79.7600 26.5715 0.2312
79.7800 26.5781 0.2342
79.8000 26.5847 0.2325
79.8200 26.5913 0.2368
79.8400 26.5980 0.2326
79.8600 26.6047 0.2335
79.8800 26.6114 0.2317
79.9000 26.6181 0.2329
79.9200 26.6248 0.2345
79.9400 26.6314 0.2340
79.9600 26.6381 0.2337
79.9800 26.6447 0.2335
80.0000 26.6514 0.2290
80.0200 26.6581 0.2367
80.0400 26.6648 0.2361
80.0600 26.6715 0.2307
80.0800 26.6782 0.2323
80.1000 26.6848 0.2340
80.1200 26.6915 0.2298
80.1400 26.6982 0.2406
80.1600 26.7048 0.2300
80.1800 26.7114 0.2311
80.2000 26.7180 0.2420
80.2200 26.7248 0.2231
80.2400 26.7315 0.2319
80.2600 26.7382 0.2455
80.2800 26.7448 0.2193
80.3000 26.7515 0.2276
80.3200 26.7581 0.2487
80.3400 26.7647 0.2241
80.3600 26.7713 0.2341
80.3800 26.7780 0.2434
80.4000 26.7848 0.2211
80.4200 26.7915 0.2337
80.4400 26.7981 0.2466
80.4600 26.8048 0.2195
80.4800 26.8115 0.2324
80.5000 26.8181 0.2419
80.5200 26.8248 0.2209
80.5400 26.8314 0.2263
80.5600 26.8380 0.2435
80.5800 26.8447 0.2242
80.6000 26.8514 0.2275
80.6200 26.8581 0.2277
80.6400 26.8648 0.2251
80.6600 26.8714 0.2352
80.6800 26.8781 0.2199
80.7000 26.8847 0.2202
80.7200 26.8914 0.2346
80.7400 26.8980 0.2302
80.7600 26.9048 0.2127
80.7800 26.9115 0.2283
80.8000 26.9182 0.2332
80.8200 26.9248 0.2204
80.8400 26.9315 0.2179
80.8600 26.9381 0.2283
80.8800 26.9447 0.2188
80.9000 26.9514 0.2238
80.9200 26.9581 0.2263
80.9400 26.9648 0.2220
80.9600 26.9715 0.2200
80.9800 26.9782 0.2220
81.0000 26.9848 0.2135
81.0200 26.9915 0.2286
81.0400 26.9981 0.2215
81.0600 27.0048 0.2069
81.0800 27.0114 0.2234
81.1000 27.0180 0.2251
81.1200 27.0247 0.2113
81.1400 27.0314 0.2229
81.1600 27.0381 0.2137
81.1800 27.0448 0.2110
81.2000 27.0515 0.2279
81.2200 27.0581 0.2092
81.2400 27.0647 0.2072
81.2600 27.0713 0.2334
81.2800 27.0780 0.2126
81.3000 27.0847 0.2042
81.3200 27.0914 0.2307
81.3400 27.0981 0.2141
81.3600 27.1048 0.2077
81.3800 27.1115 0.2247
81.4000 27.1182 0.2137
81.4200 27.1248 0.2092
81.4400 27.1314 0.2284
81.4600 27.1381 0.2073
81.4800 27.1448 0.2091
81.5000 27.1515 0.2259
81.5200 27.1581 0.2056
81.5400 27.1648 0.2036
81.5600 27.1715 0.2305
81.5800 27.1782 0.2020
81.6000 27.1848 0.2070
81.6200 27.1914 0.2255
81.6400 27.1980 0.2026
81.6600 27.2047 0.2085
81.6800 27.2114 0.2208
81.7000 27.2181 0.2034
81.7200 27.2248 0.2106
81.7400 27.2315 0.2167
81.7600 27.2382 0.2076
81.7800 27.2448 0.2103
81.8000 27.2514 0.2128
81.8200 27.2580 0.2098
81.8400 27.2648 0.2065
81.8600 27.2715 0.2161
81.8800 27.2782 0.2084
81.9000 27.2848 0.2075
81.9200 27.2915 0.2143
81.9400 27.2982 0.2140
81.9600 27.3048 0.2027
81.9800 27.3114 0.2166
82.0000 27.3180 0.2145
82.0200 27.3247 0.2005
82.0400 27.3314 0.2148
82.0600 27.3381 0.2150
82.0800 27.3448 0.1942
82.1000 27.3515 0.2181
82.1200 27.3581 0.2091
82.1400 27.3648 0.2004
82.1600 27.3714 0.2212
82.1800 27.3780 0.2110
82.2000 27.3847 0.2016
82.2200 27.3915 0.2171
82.2400 27.3982 0.2132
82.2600 27.4049 0.2025
82.2800 27.4116 0.2180
82.3000 27.4182 0.2059
82.3200 27.4248 0.2011
82.3400 27.4314 0.2237
82.3600 27.4380 0.2038
82.3800 27.4448 0.2002
82.4000 27.4515 0.2274
82.4200 27.4582 0.2002
82.4400 27.4649 0.1999
82.4600 27.4715 0.2221
82.4800 27.4782 0.2054
82.5000 27.4848 0.1985
82.5200 27.4914 0.2201
82.5400 27.4980 0.2012
82.5600 27.5047 0.2059
82.5800 27.5114 0.2147
82.6000 27.5181 0.1980
82.6200 27.5248 0.2025
82.6400 27.5315 0.2147
82.6600 27.5381 0.1946
82.6800 27.5448 0.2057
82.7000 27.5513 0.2119
82.7200 27.5580 0.2014
82.7400 27.5647 0.2025
82.7600 27.5714 0.2074
82.7800 27.5781 0.2035
82.8000 27.5848 0.2027
82.8200 27.5915 0.2067
82.8400 27.5981 0.1992
82.8600 27.6047 0.2035
82.8800 27.6114 0.2082
82.9000 27.6180 0.1990
82.9200 27.6247 0.1984
82.9400 27.6315 0.2092
82.9600 27.6382 0.1995
82.9800 27.6448 0.2015
83.0000 27.6515 0.2089
83.0200 27.6582 0.1995
83.0400 27.6648 0.1960
83.0600 27.6714 0.2096
83.0800 27.6781 0.1998
83.1000 27.6848 0.2000
83.1200 27.6914 0.2045
83.1400 27.6981 0.2010
83.1600 27.7048 0.1967
83.1800 27.7115 0.2014
83.2000 27.7182 0.1999
83.2200 27.7248 0.1954
83.2400 27.7314 0.2027
83.2600 27.7380 0.2014
83.2800 27.7447 0.1957
83.3000 27.7514 0.2028
83.3200 27.7581 0.1963
83.3400 27.7648 0.1962
83.3600 27.7715 0.2027
83.3800 27.7782 0.1953
83.4000 27.7848 0.1981
83.4200 27.7914 0.1969
83.4400 27.7980 0.1990
83.4600 27.8047 0.1967
83.4800 27.8114 0.1997
83.5000 27.8181 0.1912
83.5200 27.8248 0.1977
83.5400 27.8315 0.1976
83.5600 27.8382 0.1925
83.5800 27.8448 0.1996
83.6000 27.8514 0.1920
83.6200 27.8581 0.1954
83.6400 27.8647 0.2022
83.6600 27.8714 0.1936
83.6800 27.8781 0.1938
83.7000 27.8848 0.1956
83.7200 27.8915 0.1932
83.7400 27.8982 0.1968
83.7600 27.9048 0.1958
83.7800 27.9114 0.1919
83.8000 27.9180 0.1979
83.8200 27.9247 0.1991
83.8400 27.9315 0.1873
83.8600 27.9382 0.1970
83.8800 27.9449 0.1976
83.9000 27.9515 0.1877
83.9200 27.9582 0.1945
83.9400 27.9648 0.1996
83.9600 27.9714 0.1855
83.9800 27.9780 0.2009
84.0000 27.9847 0.2006
84.0200 27.9914 0.1840
84.0400 27.9981 0.1910
84.0600 28.0048 0.2007
84.0800 28.0115 0.1857
84.1000 28.0182 0.1936
84.1200 28.0248 0.1923
84.1400 28.0314 0.1824
84.1600 28.0380 0.1931
84.1800 28.0447 0.1949
84.2000 28.0514 0.1876
84.2200 28.0581 0.1900
84.2400 28.0648 0.1921
84.2600 28.0715 0.1829
84.2800 28.0781 0.1898
84.3000 28.0848 0.1956
84.3200 28.0914 0.1822
84.3400 28.0980 0.1851
84.3600 28.1047 0.1971
84.3800 28.1114 0.1828
84.4000 28.1182 0.1877
84.4200 28.1249 0.1891
84.4400 28.1315 0.1844
84.4600 28.1382 0.1851
84.4800 28.1448 0.1941
84.5000 28.1514 0.1809
84.5200 28.1581 0.1838
84.5400 28.1648 0.1913
84.5600 28.1715 0.1796
84.5800 28.1782 0.1852
84.6000 28.1848 0.1945
84.6200 28.1915 0.1773
84.6400 28.1981 0.1852
84.6600 28.2048 0.1899
84.6800 28.2114 0.1835
84.7000 28.2180 0.1873
84.7200 28.2247 0.1889
84.7400 28.2314 0.1772
84.7600 28.2381 0.1878
84.7800 28.2448 0.1883
84.8000 28.2515 0.1784
84.8200 28.2582 0.1869
84.8400 28.2648 0.1888
84.8600 28.2714 0.1779
84.8800 28.2780 0.1870
84.9000 28.2847 0.1905
84.9200 28.2914 0.1748
84.9400 28.2981 0.1859
84.9600 28.3048 0.1869
84.9800 28.3115 0.1755
85.0000 28.3181 0.1833
85.0200 28.3248 0.1863
85.0400 28.3314 0.1775
85.0600 28.3380 0.1826
85.0800 28.3447 0.1780
85.1000 28.3514 0.1793
85.1200 28.3581 0.1812
85.1400 28.3648 0.1847
85.1600 28.3715 0.1775
85.1800 28.3782 0.1836
85.2000 28.3848 0.1835
85.2200 28.3914 0.1755
85.2400 28.3981 0.1772
85.2600 28.4047 0.1885
85.2800 28.4114 0.1794
85.3000 28.4182 0.1751
85.3200 28.4248 0.1854
85.3400 28.4315 0.1747
85.3600 28.4382 0.1807
85.3800 28.4448 0.1875
85.4000 28.4514 0.1730
85.4200 28.4580 0.1784
85.4400 28.4647 0.1900
85.4600 28.4714 0.1707
85.4800 28.4781 0.1785
85.5000 28.4848 0.1890
85.5200 28.4915 0.1757
85.5400 28.4981 0.1718
85.5600 28.5048 0.1916
85.5800 28.5114 0.1706
85.6000 28.5180 0.1773
85.6200 28.5247 0.1916
85.6400 28.5314 0.1717
85.6600 28.5381 0.1747
85.6800 28.5448 0.1913
85.7000 28.5514 0.1732
85.7200 28.5581 0.1711
85.7400 28.5648 0.1878
85.7600 28.5714 0.1676
85.7800 28.5781 0.1675
85.8000 28.5847 0.1897
85.8200 28.5914 0.1683
85.8400 28.5981 0.1707
85.8600 28.6048 0.1871
85.8800 28.6115 0.1618
85.9000 28.6182 0.1742
85.9200 28.6248 0.1845
85.9400 28.6314 0.1653
85.9600 28.6380 0.1689
85.9800 28.6447 0.1851
86.0000 28.6514 0.1656
86.0200 28.6581 0.1729
86.0400 28.6648 0.1807
86.0600 28.6715 0.1631
86.0800 28.6782 0.1721
86.1000 28.6848 0.1778
86.1200 28.6914 0.1657
86.1400 28.6981 0.1762
86.1600 28.7047 0.1713
86.1800 28.7114 0.1692
86.2000 28.7181 0.1705
86.2200 28.7248 0.1744
86.2400 28.7315 0.1691
86.2600 28.7382 0.1740
86.2800 28.7448 0.1724
86.3000 28.7514 0.1615
86.3200 28.7580 0.1768
86.3400 28.7646 0.1712
86.3600 28.7714 0.1649
86.3800 28.7781 0.1712
86.4000 28.7848 0.1679
86.4200 28.7914 0.1673
86.4400 28.7981 0.1716
86.4600 28.8048 0.1646
86.4800 28.8114 0.1708
86.5000 28.8180 0.1722
86.5200 28.8247 0.1650
86.5400 28.8314 0.1648
86.5600 28.8381 0.1758
86.5800 28.8448 0.1620
86.6000 28.8515 0.1685
86.6200 28.8582 0.1714
86.6400 28.8649 0.1607
86.6600 28.8715 0.1683
86.6800 28.8781 0.1704
86.7000 28.8848 0.1617
86.7200 28.8914 0.1686
86.7400 28.8981 0.1658
86.7600 28.9048 0.1645
86.7800 28.9115 0.1712
86.8000 28.9182 0.1634
86.8200 28.9249 0.1589
86.8400 28.9315 0.1686
86.8600 28.9380 0.1594
86.8800 28.9447 0.1618
86.9000 28.9514 0.1681
86.9200 28.9581 0.1571
86.9400 28.9648 0.1684
86.9600 28.9714 0.1614
86.9800 28.9781 0.1609
87.0000 28.9848 0.1675
87.0200 28.9914 0.1616
87.0400 28.9980 0.1545
87.0600 29.0047 0.1661
87.0800 29.0114 0.1579
87.1000 29.0181 0.1557
87.1200 29.0248 0.1660
87.1400 29.0315 0.1552
87.1600 29.0381 0.1537
87.1800 29.0448 0.1682
87.2000 29.0515 0.1541
87.2200 29.0581 0.1602
87.2400 29.0647 0.1616
87.2600 29.0714 0.1505
87.2800 29.0781 0.1574
87.3000 29.0848 0.1614
87.3200 29.0915 0.1580
87.3400 29.0982 0.1559
87.3600 29.1049 0.1565
87.3800 29.1115 0.1519
87.4000 29.1181 0.1609
87.4200 29.1247 0.1632
87.4400 29.1314 0.1576
87.4600 29.1381 0.1529
87.4800 29.1448 0.1568
87.5000 29.1515 0.1553
87.5200 29.1582 0.1570
87.5400 29.1648 0.1547
87.5600 29.1714 0.1539
87.5800 29.1780 0.1535
87.6000 29.1847 0.1571
87.6200 29.1914 0.1550
87.6400 29.1981 0.1571
87.6600 29.2048 0.1503
87.6800 29.2114 0.1537
87.7000 29.2181 0.1551
87.7200 29.2248 0.1522
87.7400 29.2314 0.1533
87.7600 29.2381 0.1523
87.7800 29.2447 0.1471
87.8000 29.2514 0.1545
87.8200 29.2581 0.1551
87.8400 29.2647 0.1451
87.8600 29.2714 0.1563
87.8800 29.2781 0.1490
87.9000 29.2848 0.1482
87.9200 29.2915 0.1553
87.9400 29.2981 0.1487
87.9600 29.3047 0.1499
87.9800 29.3114 0.1560
88.0000 29.3181 0.1425
88.0200 29.3248 0.1486
88.0400 29.3315 0.1557
88.0600 29.3382 0.1458
88.0800 29.3448 0.1509
88.1000 29.3515 0.1562
88.1200 29.3581 0.1423
88.1400 29.3647 0.1489
88.1600 29.3714 0.1522
88.1800 29.3781 0.1462
88.2000 29.3848 0.1447
88.2200 29.3915 0.1480
88.2400 29.3982 0.1482
88.2600 29.4048 0.1453
88.2800 29.4115 0.1478
88.3000 29.4181 0.1463
88.3200 29.4247 0.1496
88.3400 29.4314 0.1484
88.3600 29.4381 0.1392
88.3800 29.4448 0.1480
88.4000 29.4515 0.1574
88.4200 29.4581 0.1368
88.4400 29.4648 0.1402
88.4600 29.4714 0.1653
88.4800 29.4780 0.1443
88.5000 29.4846 0.1338
88.5200 29.4913 0.1615
88.5400 29.4981 0.1359
88.5600 29.5048 0.1341
88.5800 29.5115 0.1664
88.6000 29.5181 0.1428
88.6200 29.5248 0.1258
88.6400 29.5314 0.1619
88.6600 29.5381 0.1435
88.6800 29.5447 0.1286
88.7000 29.5514 0.1564
88.7200 29.5581 0.1457
88.7400 29.5648 0.1315
88.7600 29.5715 0.1610
88.7800 29.5782 0.1409
88.8000 29.5849 0.1333
88.8200 29.5915 0.1560
88.8400 29.5981 0.1386
88.8600 29.6047 0.1450
88.8800 29.6114 0.1532
88.9000 29.6181 0.1318
88.9200 29.6248 0.1418
88.9400 29.6315 0.1603
88.9600 29.6382 0.1368
88.9800 29.6448 0.1354
89.0000 29.6514 0.1494
89.0200 29.6580 0.1443
89.0400 29.6647 0.1432
89.0600 29.6714 0.1437
89.0800 29.6781 0.1391
89.1000 29.6848 0.1415
89.1200 29.6915 0.1426
89.1400 29.6981 0.1516
89.1600 29.7048 0.1308
89.1800 29.7115 0.1369
89.2000 29.7181 0.1482
89.2200 29.7247 0.1363
89.2400 29.7314 0.1385
89.2600 29.7381 0.1479
89.2800 29.7448 0.1314
89.3000 29.7514 0.1366
89.3200 29.7581 0.1488
89.3400 29.7648 0.1310
89.3600 29.7715 0.1436
89.3800 29.7781 0.1413
89.4000 29.7847 0.1270
89.4200 29.7914 0.1488
89.4400 29.7981 0.1426
89.4600 29.8048 0.1217
89.4800 29.8115 0.1470
89.5000 29.8182 0.1414
89.5200 29.8249 0.1217
89.5400 29.8315 0.1411
89.5600 29.8381 0.1437
89.5800 29.8447 0.1223
89.6000 29.8514 0.1452
89.6200 29.8581 0.1357
89.6400 29.8648 0.1211
89.6600 29.8715 0.1479
89.6800 29.8782 0.1362
89.7000 29.8849 0.1161
89.7200 29.8915 0.1506
89.7400 29.8981 0.1372
89.7600 29.9047 0.1165
89.7800 29.9114 0.1482
89.8000 29.9181 0.1362
89.8200 29.9248 0.1213
89.8400 29.9314 0.1422
89.8600 29.9381 0.1301
89.8800 29.9448 0.1241
89.9000 29.9515 0.1494
89.9200 29.9581 0.1315
89.9400 29.9647 0.1121
89.9600 29.9713 0.1444
89.9800 29.9780 0.1326
90.0000 29.9847 0.1117
90.0200 29.9914 0.1488
90.0400 29.9981 0.1313
90.0600 30.0048 0.1154
90.0800 30.0115 0.1389
90.1000 30.0181 0.1361
90.1200 30.0247 0.1176
90.1400 30.0314 0.1391
90.1600 30.0381 0.1275
90.1800 30.0448 0.1145
90.2000 30.0515 0.1408
90.2200 30.0582 0.1298
90.2400 30.0648 0.1152
90.2600 30.0715 0.1401
90.2800 30.0781 0.1226
90.3000 30.0847 0.1167
90.3200 30.0914 0.1385
90.3400 30.0981 0.1220
90.3600 30.1048 0.1215
90.3800 30.1115 0.1378
90.4000 30.1182 0.1198
90.4200 30.1248 0.1212
90.4400 30.1315 0.1397
90.4600 30.1381 0.1194
90.4800 30.1447 0.1229
90.5000 30.1513 0.1362
90.5200 30.1580 0.1272
90.5400 30.1647 0.1166
90.5600 30.1714 0.1354
90.5800 30.1781 0.1267
90.6000 30.1848 0.1193
90.6200 30.1915 0.1306
90.6400 30.1981 0.1238
90.6600 30.2047 0.1193
90.6800 30.2113 0.1392
90.7000 30.2180 0.1206
90.7200 30.2248 0.1176
90.7400 30.2315 0.1293
90.7600 30.2381 0.1259
90.7800 30.2448 0.1178
90.8000 30.2514 0.1291
90.8200 30.2581 0.1243
90.8400 30.2647 0.1224
90.8600 30.2714 0.1293
90.8800 30.2781 0.1182
90.9000 30.2848 0.1261
90.9200 30.2915 0.1250
90.9400 30.2982 0.1199
90.9600 30.3049 0.1254
90.9800 30.3115 0.1286
91.0000 30.3181 0.1191
91.0200 30.3247 0.1239
91.0400 30.3314 0.1241
91.0600 30.3381 0.1217
91.0800 30.3448 0.1266
91.1000 30.3515 0.1249
91.1200 30.3582 0.1173
91.1400 30.3648 0.1271
91.1600 30.3715 0.1206
91.1800 30.3781 0.1249
91.2000 30.3847 0.1273
91.2200 30.3914 0.1224
91.2400 30.3981 0.1232
91.2600 30.4048 0.1246
91.2800 30.4114 0.1168
91.3000 30.4181 0.1234
91.3200 30.4248 0.1275
91.3400 30.4314 0.1100
91.3600 30.4381 0.1193
91.3800 30.4447 0.1277
91.4000 30.4513 0.1134
91.4200 30.4580 0.1197
91.4400 30.4648 0.1262
91.4600 30.4714 0.1127
91.4800 30.4781 0.1210
91.5000 30.4848 0.1208
91.5200 30.4915 0.1131
91.5400 30.4981 0.1205
91.5600 30.5047 0.1268
91.5800 30.5114 0.1043
91.6000 30.5181 0.1192
91.6200 30.5248 0.1211
91.6400 30.5315 0.1070
91.6600 30.5382 0.1199
91.6800 30.5448 0.1205
91.7000 30.5515 0.1062
91.7200 30.5581 0.1182
91.7400 30.5647 0.1214
91.7600 30.5714 0.1079
91.7800 30.5781 0.1176
91.8000 30.5848 0.1180
91.8200 30.5915 0.1065
91.8400 30.5981 0.1201
91.8600 30.6048 0.1203
91.8800 30.6115 0.1030
91.9000 30.6182 0.1163
91.9200 30.6248 0.1149
91.9400 30.6314 0.1103
91.9600 30.6381 0.1156
91.9800 30.6448 0.1133
92.0000 30.6514 0.1041
92.0200 30.6581 0.1157
92.0400 30.6648 0.1128
92.0600 30.6715 0.1057
92.0800 30.6781 0.1109
92.1000 30.6847 0.1085
92.1200 30.6913 0.1061
92.1400 30.6980 0.1161
92.1600 30.7048 0.1073
92.1800 30.7115 0.1006
92.2000 30.7181 0.1076
92.2200 30.7248 0.1113
92.2400 30.7315 0.1038
92.2600 30.7381 0.1150
92.2800 30.7447 0.1079
92.3000 30.7514 0.1019
92.3200 30.7580 0.1094
92.3400 30.7648 0.1112
92.3600 30.7715 0.1060
92.3800 30.7781 0.1081
92.4000 30.7848 0.1077
92.4200 30.7915 0.1026
92.4400 30.7981 0.1093
92.4600 30.8048 0.1081
92.4800 30.8114 0.1084
92.5000 30.8181 0.1027
92.5200 30.8248 0.1112
92.5400 30.8315 0.1021
92.5600 30.8382 0.1064
92.5800 30.8449 0.1127
92.6000 30.8515 0.1003
92.6200 30.8582 0.1015
92.6400 30.8647 0.1130
92.6600 30.8714 0.1004
92.6800 30.8781 0.1044
92.7000 30.8848 0.1112
92.7200 30.8915 0.0985
92.7400 30.8982 0.1048
92.7600 30.9048 0.1151
92.7800 30.9115 0.0966
92.8000 30.9181 0.1058
92.8200 30.9247 0.1143
92.8400 30.9313 0.0971
92.8600 30.9380 0.1070
92.8800 30.9447 0.1105
92.9000 30.9514 0.0928
92.9200 30.9581 0.1031
92.9400 30.9648 0.1198
92.9600 30.9714 0.0963
92.9800 30.9781 0.1044
93.0000 30.9847 0.1131
93.0200 30.9914 0.0947
93.0400 30.9980 0.1061
93.0600 31.0048 0.1164
93.0800 31.0115 0.0836
93.1000 31.0182 0.1102
93.1200 31.0249 0.1157
93.1400 31.0315 0.0850
93.1600 31.0382 0.1097
93.1800 31.0447 0.1135
93.2000 31.0514 0.0892
93.2200 31.0581 0.1104
93.2400 31.0648 0.1123
93.2600 31.0715 0.0818
93.2800 31.0782 0.1105
93.3000 31.0848 0.1119
93.3200 31.0915 0.0867
93.3400 31.0981 0.1066
93.3600 31.1047 0.1110
93.3800 31.1114 0.0916
93.4000 31.1180 0.1049
93.4200 31.1248 0.1099
93.4400 31.1315 0.0911
93.4600 31.1381 0.1000
93.4800 31.1448 0.1134
93.5000 31.1515 0.0935
93.5200 31.1581 0.0959
93.5400 31.1647 0.1082
93.5600 31.1713 0.0953
93.5800 31.1780 0.0936
93.6000 31.1847 0.1216
93.6200 31.1914 0.0899
93.6400 31.1981 0.0895
93.6600 31.2048 0.1158
93.6800 31.2115 0.0902
93.7000 31.2181 0.0927
93.7200 31.2247 0.1139
93.7400 31.2314 0.0913
93.7600 31.2380 0.0955
93.7800 31.2448 0.1101
93.8000 31.2515 0.0889
93.8200 31.2581 0.0997
93.8400 31.2648 0.1095
93.8600 31.2715 0.0894
93.8800 31.2782 0.0999
93.9000 31.2848 0.1034
93.9200 31.2914 0.0920
93.9400 31.2981 0.1018
93.9600 31.3048 0.0977
93.9800 31.3115 0.0930
94.0000 31.3182 0.0977
94.0200 31.3248 0.0959
94.0400 31.3315 0.0918
94.0600 31.3382 0.0981
94.0800 31.3448 0.0934
94.1000 31.3514 0.0968
94.1200 31.3580 0.0931
94.1400 31.3647 0.0967
94.1600 31.3715 0.1022
94.1800 31.3781 0.0902
94.2000 31.3848 0.0905
94.2200 31.3915 0.1024
94.2400 31.3981 0.0848
94.2600 31.4047 0.0920
94.2800 31.4113 0.1016
94.3000 31.4180 0.0867
94.3200 31.4247 0.0958
94.3400 31.4314 0.1019
94.3600 31.4381 0.0830
94.3800 31.4448 0.0909
94.4000 31.4515 0.1027
94.4200 31.4581 0.0770
94.4400 31.4647 0.0968
94.4600 31.4714 0.1031
94.4800 31.4780 0.0817
94.5000 31.4848 0.0912
94.5200 31.4915 0.0974
94.5400 31.4982 0.0814
94.5600 31.5048 0.0965
94.5800 31.5115 0.0971
94.6000 31.5182 0.0805
94.6200 31.5248 0.0897
94.6400 31.5314 0.0972
94.6600 31.5380 0.0805
94.6800 31.5448 0.0976
94.7000 31.5515 0.0957
94.7200 31.5582 0.0821
94.7400 31.5648 0.0905
94.7600 31.5715 0.0947
94.7800 31.5782 0.0815
94.8000 31.5848 0.0912
94.8200 31.5914 0.0950
94.8400 31.5980 0.0779
94.8600 31.6047 0.0923
94.8800 31.6115 0.0955
94.9000 31.6181 0.0738
94.9200 31.6248 0.0902
94.9400 31.6315 0.0985
94.9600 31.6381 0.0702
94.9800 31.6448 0.0898
95.0000 31.6514 0.0992
95.0200 31.6580 0.0793
95.0400 31.6647 0.0821
95.0600 31.6714 0.0953
95.0800 31.6781 0.0795
95.1000 31.6848 0.0886
95.1200 31.6915 0.0888
95.1400 31.6981 0.0703
95.1600 31.7048 0.0883
95.1800 31.7114 0.0965
95.2000 31.7181 0.0757
95.2200 31.7248 0.0846
95.2400 31.7315 0.0887
95.2600 31.7382 0.0759
95.2800 31.7448 0.0902
95.3000 31.7515 0.0947
95.3200 31.7582 0.0687
95.3400 31.7648 0.0800
95.3600 31.7714 0.0909
95.3800 31.7780 0.0792
95.4000 31.7848 0.0854
95.4200 31.7915 0.0834
95.4400 31.7982 0.0725
95.4600 31.8048 0.0801
95.4800 31.8115 0.0926
95.5000 31.8182 0.0758
95.5200 31.8248 0.0759
95.5400 31.8314 0.0888
95.5600 31.8380 0.0772
95.5800 31.8447 0.0780
95.6000 31.8514 0.0895
95.6200 31.8581 0.0773
95.6400 31.8648 0.0800
95.6600 31.8715 0.0898
95.6800 31.8781 0.0749
95.7000 31.8848 0.0725
95.7200 31.8913 0.0925
95.7400 31.8980 0.0745
95.7600 31.9047 0.0705
95.7800 31.9114 0.0940
95.8000 31.9181 0.0726
95.8200 31.9248 0.0690
95.8400 31.9315 0.0954
95.8600 31.9381 0.0769
95.8800 31.9448 0.0698
95.9000 31.9514 0.0963
95.9200 31.9581 0.0700
95.9400 31.9648 0.0703
95.9600 31.9715 0.0968
95.9800 31.9781 0.0730
96.0000 31.9848 0.0695
96.0200 31.9915 0.0937
96.0400 31.9982 0.0689
96.0600 32.0048 0.0729
96.0800 32.0114 0.0887
96.1000 32.0180 0.0655
96.1200 32.0247 0.0748
96.1400 32.0314 0.0929
96.1600 32.0381 0.0557
96.1800 32.0448 0.0793
96.2000 32.0515 0.0907
96.2200 32.0582 0.0572
96.2400 32.0648 0.0777
96.2600 32.0714 0.0855
96.2800 32.0780 0.0645
96.3000 32.0847 0.0789
96.3200 32.0915 0.0826
96.3400 32.0981 0.0654
96.3600 32.1048 0.0779
96.3800 32.1115 0.0791
96.4000 32.1182 0.0630
96.4200 32.1248 0.0783
96.4400 32.1314 0.0821
96.4600 32.1380 0.0659
96.4800 32.1447 0.0749
96.5000 32.1514 0.0766
96.5200 32.1581 0.0728
96.5400 32.1648 0.0734
96.5600 32.1714 0.0783
96.5800 32.1781 0.0678
96.6000 32.1848 0.0741
96.6200 32.1914 0.0782
96.6400 32.1980 0.0746
96.6600 32.2047 0.0692
96.6800 32.2114 0.0747
96.7000 32.2182 0.0716
96.7200 32.2249 0.0678
96.7400 32.2316 0.0722
96.7600 32.2382 0.0740
96.7800 32.2448 0.0694
96.8000 32.2514 0.0775
96.8200 32.2580 0.0742
96.8400 32.2647 0.0656
96.8600 32.2715 0.0758
96.8800 32.2782 0.0750
96.9000 32.2849 0.0681
96.9200 32.2915 0.0745
96.9400 32.2982 0.0752
96.9600 32.3048 0.0570
96.9800 32.3114 0.0833
97.0000 32.3180 0.0755
97.0200 32.3247 0.0587
97.0400 32.3314 0.0787
97.0600 32.3381 0.0737
97.0800 32.3448 0.0590
97.1000 32.3515 0.0821
97.1200 32.3581 0.0679
97.1400 32.3648 0.0594
97.1600 32.3714 0.0812
97.1800 32.3780 0.0688
97.2000 32.3847 0.0580
97.2200 32.3914 0.0823
97.2400 32.3981 0.0695
97.2600 32.4048 0.0602
97.2800 32.4115 0.0773
97.3000 32.4182 0.0661
97.3200 32.4248 0.0676
97.3400 32.4314 0.0795
97.3600 32.4380 0.0598
97.3800 32.4447 0.0655
97.4000 32.4515 0.0790
97.4200 32.4582 0.0604
97.4400 32.4648 0.0612
97.4600 32.4715 0.0727
97.4800 32.4782 0.0621
97.5000 32.4848 0.0658
97.5200 32.4914 0.0728
97.5400 32.4981 0.0570
97.5600 32.5048 0.0692
97.5800 32.5115 0.0673
97.6000 32.5182 0.0612
97.6200 32.5248 0.0692
97.6400 32.5315 0.0707
97.6600 32.5382 0.0558
97.6800 32.5448 0.0682
97.7000 32.5514 0.0650
97.7200 32.5580 0.0632
97.7400 32.5647 0.0723
97.7600 32.5714 0.0599
97.7800 32.5781 0.0601
97.8000 32.5848 0.0747
97.8200 32.5915 0.0603
97.8400 32.5982 0.0565
97.8600 32.6048 0.0712
97.8800 32.6114 0.0615
97.9000 32.6180 0.0609
97.9200 32.6247 0.0660
97.9400 32.6314 0.0631
97.9600 32.6381 0.0596
97.9800 32.6448 0.0642
98.0000 32.6514 0.0596
98.0200 32.6581 0.0682
98.0400 32.6648 0.0574
98.0600 32.6714 0.0577
98.0800 32.6781 0.0670
98.1000 32.6847 0.0592
98.1200 32.6914 0.0537
98.1400 32.6981 0.0681
98.1600 32.7048 0.0570
98.1800 32.7115 0.0572
98.2000 32.7182 0.0672
98.2200 32.7248 0.0547
98.2400 32.7314 0.0558
98.2600 32.7380 0.0687
98.2800 32.7447 0.0615
98.3000 32.7514 0.0476
98.3200 32.7582 0.0640
98.3400 32.7648 0.0649
98.3600 32.7715 0.0515
98.3800 32.7782 0.0605
98.4000 32.7848 0.0590
98.4200 32.7914 0.0541
98.4400 32.7980 0.0637
98.4600 32.8047 0.0582
98.4800 32.8114 0.0538
98.5000 32.8181 0.0618
98.5200 32.8248 0.0548
98.5400 32.8315 0.0474
98.5600 32.8381 0.0683
98.5800 32.8448 0.0530
98.6000 32.8514 0.0500
98.6200 32.8580 0.0689
98.6400 32.8646 0.0553
98.6600 32.8714 0.0521
98.6800 32.8781 0.0642
98.7000 32.8848 0.0540
98.7200 32.8915 0.0495
98.7400 32.8982 0.0636
98.7600 32.9048 0.0574
98.7800 32.9114 0.0461
98.8000 32.9180 0.0669
98.8200 32.9247 0.0580
98.8400 32.9314 0.0460
98.8600 32.9381 0.0655
98.8800 32.9449 0.0576
98.9000 32.9515 0.0478
98.9200 32.9582 0.0580
98.9400 32.9648 0.0564
98.9600 32.9714 0.0501
98.9800 32.9780 0.0591
99.0000 32.9847 0.0591
99.0200 32.9915 0.0556
99.0400 32.9982 0.0546
99.0600 33.0048 0.0535
99.0800 33.0115 0.0508
99.1000 33.0181 0.0564
99.1200 33.0248 0.0515
99.1400 33.0314 0.0560
99.1600 33.0380 0.0526
99.1800 33.0447 0.0561
99.2000 33.0514 0.0478
99.2200 33.0581 0.0558
99.2400 33.0648 0.0543
99.2600 33.0715 0.0477
99.2800 33.0782 0.0529
99.3000 33.0848 0.0550
99.3200 33.0914 0.0461
99.3400 33.0980 0.0518
99.3600 33.1047 0.0579
99.3800 33.1114 0.0496
99.4000 33.1181 0.0517
99.4200 33.1248 0.0516
99.4400 33.1315 0.0470
99.4600 33.1381 0.0509
99.4800 33.1448 0.0500
99.5000 33.1514 0.0470
99.5200 33.1580 0.0537
99.5400 33.1647 0.0458
99.5600 33.1714 0.0500
99.5800 33.1781 0.0460
99.6000 33.1848 0.0512
99.6200 33.1915 0.0497
99.6400 33.1982 0.0435
99.6600 33.2048 0.0485
99.6800 33.2115 0.0531
99.7000 33.2181 0.0446
99.7200 33.2247 0.0524
99.7400 33.2314 0.0450
99.7600 33.2381 0.0419
99.7800 33.2448 0.0531
99.8000 33.2515 0.0473
99.8200 33.2582 0.0420
99.8400 33.2649 0.0507
99.8600 33.2715 0.0401
99.8800 33.2780 0.0427
99.9000 33.2847 0.0574
99.9200 33.2914 0.0434
99.9400 33.2981 0.0435
99.9600 33.3048 0.0455
99.9800 33.3115 0.0478
100.0000 33.3181 0.0462
100.0200 33.3248 0.0444
100.0400 33.3314 0.0345
100.0600 33.3380 0.0536
100.0800 33.3447 0.0528
100.1000 33.3514 0.0322
100.1200 33.3581 0.0428
100.1400 33.3648 0.0553
100.1600 33.3714 0.0361
100.1800 33.3781 0.0408
100.2000 33.3848 0.0489
100.2200 33.3914 0.0376
100.2400 33.3981 0.0419
100.2600 33.4047 0.0490
100.2800 33.4114 0.0364
100.3000 33.4181 0.0402
100.3200 33.4248 0.0521
100.3400 33.4315 0.0417
100.3600 33.4382 0.0351
100.3800 33.4448 0.0476
100.4000 33.4514 0.0365
100.4200 33.4580 0.0385
100.4400 33.4647 0.0546
100.4600 33.4714 0.0292
100.4800 33.4781 0.0361
100.5000 33.4848 0.0559
100.5200 33.4915 0.0304
100.5400 33.4982 0.0408
100.5600 33.5048 0.0555
100.5800 33.5114 0.0246
100.6000 33.5181 0.0405
100.6200 33.5247 0.0552
100.6400 33.5314 0.0242
100.6600 33.5381 0.0312
100.6800 33.5448 0.0566
100.7000 33.5515 0.0222
100.7200 33.5582 0.0382
100.7400 33.5648 0.0541
100.7600 33.5714 0.0194
100.7800 33.5780 0.0436
100.8000 33.5847 0.0558
100.8200 33.5913 0.0160
100.8400 33.5981 0.0384
100.8600 33.6048 0.0538
100.8800 33.6114 0.0144
100.9000 33.6181 0.0431
100.9200 33.6248 0.0460
100.9400 33.6314 0.0155
100.9600 33.6380 0.0491
100.9800 33.6447 0.0453
101.0000 33.6514 0.0139
101.0200 33.6581 0.0482
101.0400 33.6648 0.0369
101.0600 33.6715 0.0179
101.0800 33.6782 0.0478
101.1000 33.6849 0.0388
101.1200 33.6915 0.0176
101.1400 33.6981 0.0427
101.1600 33.7048 0.0317
101.1800 33.7114 0.0296
101.2000 33.7181 0.0444
101.2200 33.7248 0.0306
101.2400 33.7315 0.0266
101.2600 33.7382 0.0394
101.2800 33.7448 0.0324
101.3000 33.7514 0.0265
101.3200 33.7581 0.0365
101.3400 33.7647 0.0334
101.3600 33.7714 0.0285
101.3800 33.7781 0.0257
101.4000 33.7848 0.0402
101.4200 33.7915 0.0324
101.4400 33.7981 0.0261
101.4600 33.8048 0.0370
101.4800 33.8114 0.0310
101.5000 33.8180 0.0288
101.5200 33.8247 0.0378
101.5400 33.8314 0.0267
101.5600 33.8381 0.0267
101.5800 33.8448 0.0360
101.6000 33.8515 0.0276
101.6200 33.8581 0.0279
101.6400 33.8648 0.0393
101.6600 33.8715 0.0267
101.6800 33.8781 0.0272
101.7000 33.8847 0.0357
101.7200 33.8914 0.0278
101.7400 33.8981 0.0308
101.7600 33.9048 0.0329
101.7800 33.9115 0.0249
101.8000 33.9182 0.0283
101.8200 33.9249 0.0293
101.8400 33.9315 0.0273
101.8600 33.9381 0.0354
101.8800 33.9447 0.0311
101.9000 33.9514 0.0287
101.9200 33.9581 0.0322
101.9400 33.9648 0.0283
101.9600 33.9715 0.0318
101.9800 33.9782 0.0322
102.0000 33.9848 0.0197
102.0200 33.9914 0.0334
102.0400 33.9981 0.0283
102.0600 34.0047 0.0261
102.0800 34.0114 0.0321
102.1000 34.0181 0.0258
102.1200 34.0248 0.0221
102.1400 34.0315 0.0377
102.1600 34.0381 0.0252
102.1800 34.0448 0.0223
102.2000 34.0514 0.0374
102.2200 34.0581 0.0232
102.2400 34.0647 0.0255
102.2600 34.0714 0.0398
102.2800 34.0781 0.0180
102.3000 34.0848 0.0272
102.3200 34.0914 0.0351
102.3400 34.0981 0.0125
102.3600 34.1048 0.0315
102.3800 34.1115 0.0276
102.4000 34.1181 0.0216
102.4200 34.1247 0.0311
102.4400 34.1314 0.0300
102.4600 34.1381 0.0170
102.4800 34.1448 0.0285
102.5000 34.1515 0.0225
102.5200 34.1582 0.0250
102.5400 34.1648 0.0272
102.5600 34.1715 0.0211
102.5800 34.1781 0.0177
102.6000 34.1847 0.0340
102.6200 34.1914 0.0203
102.6400 34.1981 0.0228
102.6600 34.2048 0.0231
102.6800 34.2115 0.0208
102.7000 34.2182 0.0223
102.7200 34.2248 0.0204
102.7400 34.2315 0.0236
102.7600 34.2381 0.0202
102.7800 34.2447 0.0225
102.8000 34.2514 0.0262
102.8200 34.2581 0.0182
102.8400 34.2648 0.0220
102.8600 34.2715 0.0256
102.8800 34.2782 0.0179
102.9000 34.2849 0.0199
102.9200 34.2915 0.0241
102.9400 34.2980 0.0237
102.9600 34.3046 0.0226
102.9800 34.3113 0.0273
103.0000 34.3180 0.0175
103.0200 34.3248 0.0240
103.0400 34.3315 0.0185
103.0600 34.3381 0.0196
103.0800 34.3448 0.0243
103.1000 34.3515 0.0194
103.1200 34.3581 0.0173
103.1400 34.3647 0.0225
103.1600 34.3714 0.0240
103.1800 34.3781 0.0146
103.2000 34.3848 0.0170
103.2200 34.3915 0.0279
103.2400 34.3982 0.0128
103.2600 34.4049 0.0192
103.2800 34.4115 0.0215
103.3000 34.4181 0.0130
103.3200 34.4248 0.0194
103.3400 34.4314 0.0216
103.3600 34.4381 0.0170
103.3800 34.4448 0.0178
103.4000 34.4515 0.0232
103.4200 34.4582 0.0093
103.4400 34.4648 0.0218
103.4600 34.4715 0.0219
103.4800 34.4780 0.0134
103.5000 34.4846 0.0145
103.5200 34.4913 0.0231
103.5400 34.4981 0.0175
103.5600 34.5048 0.0158
103.5800 34.5115 0.0115
103.6000 34.5182 0.0233
103.6200 34.5248 0.0165
103.6400 34.5315 0.0175
103.6600 34.5381 0.0119
103.6800 34.5447 0.0128
103.7000 34.5514 0.0240
103.7200 34.5581 0.0182
103.7400 34.5648 0.0062
103.7600 34.5714 0.0135
103.7800 34.5781 0.0233
103.8000 34.5848 0.0045
103.8200 34.5915 0.0217
103.8400 34.5981 0.0165
103.8600 34.6047 0.0020
103.8800 34.6114 0.0247
103.9000 34.6180 0.0131
103.9200 34.6248 -0.0047
103.9400 34.6315 0.0307
103.9600 34.6382 0.0089
103.9800 34.6448 -0.0012
104.0000 34.6515 0.0249
104.0200 34.6581 0.0134
104.0400 34.6647 0.0023
104.0600 34.6714 0.0284
104.0800 34.6781 -0.0030
104.1000 34.6848 0.0047
104.1200 34.6915 0.0320
104.1400 34.6982 -0.0081
104.1600 34.7048 0.0153
104.1800 34.7115 0.0274
104.2000 34.7181 -0.0144
104.2200 34.7247 0.0223
104.2400 34.7314 0.0267
104.2600 34.7381 -0.0109
104.2800 34.7448 0.0171
104.3000 34.7514 0.0172
104.3200 34.7581 -0.0044
104.3400 34.7648 0.0173
104.3600 34.7715 0.0149
104.3800 34.7781 -0.0077
104.4000 34.7847 0.0216
104.4200 34.7913 0.0075
104.4400 34.7980 -0.0002
104.4600 34.8047 0.0203
104.4800 34.8114 -0.0024
104.5000 34.8181 0.0035
104.5200 34.8248 0.0181
104.5400 34.8315 -0.0068
104.5600 34.8381 0.0126
104.5800 34.8447 0.0084
104.6000 34.8514 -0.0006
104.6200 34.8581 0.0095
104.6400 34.8648 0.0019
104.6600 34.8715 -0.0032
104.6800 34.8782 0.0148
104.7000 34.8849 -0.0042
104.7200 34.8915 -0.0013
104.7400 34.8981 0.0177
104.7600 34.9047 -0.0083
104.7800 34.9114 0.0038
104.8000 34.9181 0.0154
104.8200 34.9248 -0.0103
104.8400 34.9315 0.0087
104.8600 34.9382 0.0073
104.8800 34.9449 -0.0159
104.9000 34.9515 0.0158
104.9200 34.9581 0.0082
104.9400 34.9647 -0.0112
104.9600 34.9713 0.0139
104.9800 34.9780 0.0100
105.0000 34.9848 -0.0179
105.0200 34.9915 0.0166
105.0400 34.9981 0.0067
105.0600 35.0048 -0.0168
105.0800 35.0115 0.0111
105.1000 35.0181 0.0070
105.1200 35.0247 -0.0114
105.1400 35.0313 0.0111
105.1600 35.0380 -0.0004
105.1800 35.0448 -0.0093
105.2000 35.0514 0.0067
105.2200 35.0581 -0.0013
105.2400 35.0648 -0.0103
105.2600 35.0715 0.0091
105.2800 35.0781 -0.0002
105.3000 35.0847 -0.0101
105.3200 35.0914 0.0088
105.3400 35.0981 0.0003
105.3600 35.1048 -0.0093
105.3800 35.1115 0.0000
105.4000 35.1182 0.0027
105.4200 35.1249 -0.0029
105.4400 35.1315 -0.0017
105.4600 35.1382 -0.0051
105.4800 35.1447 -0.0019
105.5000 35.1514 -0.0008
105.5200 35.1581 -0.0005
105.5400 35.1648 -0.0071
105.5600 35.1715 -0.0066
105.5800 35.1782 -0.0030
105.6000 35.1848 -0.0047
105.6200 35.1915 -0.0106
105.6400 35.1981 0.0089
105.6600 35.2047 -0.0071
105.6800 35.2113 -0.0131
105.7000 35.2180 0.0035
105.7200 35.2248 -0.0091
105.7400 35.2314 -0.0083
105.7600 35.2381 0.0027
105.7800 35.2448 -0.0121
105.8000 35.2515 -0.0065
105.8200 35.2581 0.0026
105.8400 35.2647 -0.0139
105.8600 35.2713 -0.0025
105.8800 35.2780 -0.0059
105.9000 35.2847 -0.0152
105.9200 35.2914 -0.0023
105.9400 35.2981 -0.0014
105.9600 35.3048 -0.0183
105.9800 35.3115 0.0012
106.0000 35.3182 -0.0078
106.0200 35.3248 -0.0131
106.0400 35.3314 0.0003
106.0600 35.3381 -0.0109
106.0800 35.3448 -0.0129
106.1000 35.3515 -0.0036
106.1200 35.3582 -0.0165
106.1400 35.3649 -0.0071
106.1600 35.3715 -0.0076
106.1800 35.3781 -0.0207
106.2000 35.3847 -0.0023
106.2200 35.3914 -0.0070
106.2400 35.3981 -0.0187
106.2600 35.4048 -0.0057
106.2800 35.4115 -0.0111
106.3000 35.4181 -0.0184
106.3200 35.4248 -0.0025
106.3400 35.4315 -0.0124
106.3600 35.4381 -0.0196
106.3800 35.4448 -0.0068
106.4000 35.4514 -0.0057
106.4200 35.4581 -0.0198
106.4400 35.4648 -0.0061
106.4600 35.4714 -0.0132
106.4800 35.4781 -0.0151
106.5000 35.4848 -0.0077
106.5200 35.4915 -0.0168
106.5400 35.4981 -0.0167
106.5600 35.5047 -0.0023
106.5800 35.5113 -0.0227
106.6000 35.5180 -0.0178
106.6200 35.5247 0.0014
106.6400 35.5314 -0.0202
106.6600 35.5381 -0.0195
106.6800 35.5448 -0.0023
106.7000 35.5514 -0.0245
106.7200 35.5581 -0.0165
106.7400 35.5647 -0.0069
106.7600 35.5714 -0.0253
106.7800 35.5781 -0.0131
106.8000 35.5848 -0.0076
106.8200 35.5915 -0.0252
106.8400 35.5981 -0.0118
106.8600 35.6048 -0.0076
106.8800 35.6115 -0.0318
106.9000 35.6182 -0.0130
106.9200 35.6248 -0.0123
106.9400 35.6314 -0.0279
106.9600 35.6380 -0.0151
106.9800 35.6447 -0.0152
107.0000 35.6515 -0.0262
107.0200 35.6581 -0.0099
107.0400 35.6648 -0.0153
107.0600 35.6715 -0.0221
107.0800 35.6781 -0.0170
107.1000 35.6847 -0.0139
107.1200 35.6913 -0.0213
107.1400 35.6980 -0.0175
107.1600 35.7048 -0.0125
107.1800 35.7115 -0.0167
107.2000 35.7182 -0.0247
107.2200 35.7248 -0.0129
107.2400 35.7315 -0.0216
107.2600 35.7381 -0.0246
107.2800 35.7447 -0.0084
107.3000 35.7513 -0.0233
107.3200 35.7580 -0.0248
107.3400 35.7647 -0.0102
107.3600 35.7714 -0.0259
107.3800 35.7781 -0.0250
107.4000 35.7848 -0.0067
107.4200 35.7915 -0.0277
107.4400 35.7981 -0.0191
107.4600 35.8048 -0.0139
107.4800 35.8114 -0.0344
107.5000 35.8180 -0.0155
107.5200 35.8247 -0.0089
107.5400 35.8315 -0.0377
107.5600 35.8382 -0.0143
107.5800 35.8448 -0.0153
107.6000 35.8515 -0.0336
107.6200 35.8582 -0.0187
107.6400 35.8648 -0.0152
107.6600 35.8714 -0.0291
107.6800 35.8781 -0.0181
107.7000 35.8848 -0.0237
107.7200 35.8915 -0.0292
107.7400 35.8982 -0.0203
107.7600 35.9048 -0.0251
107.7800 35.9115 -0.0233
107.8000 35.9181 -0.0209
107.8200 35.9248 -0.0228
107.8400 35.9314 -0.0227
107.8600 35.9380 -0.0280
107.8800 35.9447 -0.0191
107.9000 35.9514 -0.0200
107.9200 35.9581 -0.0343
107.9400 35.9648 -0.0223
107.9600 35.9715 -0.0216
107.9800 35.9781 -0.0315
108.0000 35.9848 -0.0227
108.0200 35.9913 -0.0191
108.0400 35.9980 -0.0360
108.0600 36.0047 -0.0155
108.0800 36.0114 -0.0258
108.1000 36.0181 -0.0395
108.1200 36.0248 -0.0172
108.1400 36.0315 -0.0229
108.1600 36.0381 -0.0411
108.1800 36.0447 -0.0169
108.2000 36.0514 -0.0263
108.2200 36.0581 -0.0362
108.2400 36.0648 -0.0212
108.2600 36.0715 -0.0306
108.2800 36.0781 -0.0332
108.3000 36.0848 -0.0194
108.3200 36.0915 -0.0320
108.3400 36.0981 -0.0327
108.3600 36.1048 -0.0158
108.3800 36.1114 -0.0393
108.4000 36.1181 -0.0330
108.4200 36.1248 -0.0185
108.4400 36.1315 -0.0372
108.4600 36.1382 -0.0349
108.4800 36.1449 -0.0168
108.5000 36.1515 -0.0378
108.5200 36.1582 -0.0332
108.5400 36.1648 -0.0197
108.5600 36.1714 -0.0332
108.5800 36.1780 -0.0336
108.6000 36.1847 -0.0210
108.6200 36.1915 -0.0383
108.6400 36.1982 -0.0293
108.6600 36.2048 -0.0264
108.6800 36.2115 -0.0367
108.7000 36.2181 -0.0333
108.7200 36.2247 -0.0268
108.7400 36.2313 -0.0360
108.7600 36.2380 -0.0313
108.7800 36.2447 -0.0268
108.8000 36.2514 -0.0417
108.8200 36.2581 -0.0307
108.8400 36.2648 -0.0235
108.8600 36.2715 -0.0394
108.8800 36.2781 -0.0347
108.9000 36.2848 -0.0253
108.9200 36.2914 -0.0368
108.9400 36.2981 -0.0381
108.9600 36.3048 -0.0265
108.9800 36.3115 -0.0323
109.0000 36.3182 -0.0392
109.0200 36.3248 -0.0266
109.0400 36.3315 -0.0377
109.0600 36.3382 -0.0360
109.0800 36.3448 -0.0307
109.1000 36.3514 -0.0337
109.1200 36.3580 -0.0421
109.1400 36.3647 -0.0300
109.1600 36.3715 -0.0344
109.1800 36.3782 -0.0365
109.2000 36.3848 -0.0352
109.2200 36.3915 -0.0369
109.2400 36.3982 -0.0340
109.2600 36.4047 -0.0375
109.2800 36.4114 -0.0350
109.3000 36.4180 -0.0354
109.3200 36.4247 -0.0352
109.3400 36.4314 -0.0377
109.3600 36.4381 -0.0352
109.3800 36.4448 -0.0333
109.4000 36.4515 -0.0402
109.4200 36.4581 -0.0401
109.4400 36.4648 -0.0386
109.4600 36.4714 -0.0429
109.4800 36.4780 -0.0326
109.5000 36.4847 -0.0410
109.5200 36.4914 -0.0406
109.5400 36.4981 -0.0380
109.5600 36.5048 -0.0354
109.5800 36.5114 -0.0400
109.6000 36.5181 -0.0410
109.6200 36.5248 -0.0328
109.6400 36.5314 -0.0397
109.6600 36.5380 -0.0407
109.6800 36.5447 -0.0400
109.7000 36.5515 -0.0389
109.7200 36.5582 -0.0380
109.7400 36.5648 -0.0421
109.7600 36.5715 -0.0430
109.7800 36.5782 -0.0380
109.8000 36.5848 -0.0405
109.8200 36.5914 -0.0422
109.8400 36.5980 -0.0412
109.8600 36.6048 -0.0387
109.8800 36.6115 -0.0470
109.9000 36.6182 -0.0449
109.9200 36.6248 -0.0451
109.9400 36.6315 -0.0430
109.9600 36.6381 -0.0436
109.9800 36.6448 -0.0463
110.0000 36.6514 -0.0414
110.0200 36.6580 -0.0419
110.0400 36.6647 -0.0510
110.0600 36.6714 -0.0387
110.0800 36.6781 -0.0471
110.1000 36.6848 -0.0431
110.1200 36.6914 -0.0405
110.1400 36.6981 -0.0485
110.1600 36.7048 -0.0505
110.1800 36.7113 -0.0412
110.2000 36.7180 -0.0455
110.2200 36.7247 -0.0545
110.2400 36.7314 -0.0408
110.2600 36.7381 -0.0497
110.2800 36.7448 -0.0513
110.3000 36.7515 -0.0443
110.3200 36.7581 -0.0510
110.3400 36.7648 -0.0517
110.3600 36.7714 -0.0460
110.3800 36.7780 -0.0518
110.4000 36.7847 -0.0522
110.4200 36.7915 -0.0466
110.4400 36.7981 -0.0533
110.4600 36.8048 -0.0570
110.4800 36.8115 -0.0440
110.5000 36.8182 -0.0531
110.5200 36.8248 -0.0525
110.5400 36.8314 -0.0488
110.5600 36.8380 -0.0485
110.5800 36.8447 -0.0550
110.6000 36.8514 -0.0529
110.6200 36.8582 -0.0543
110.6400 36.8648 -0.0546
110.6600 36.8715 -0.0503
110.6800 36.8782 -0.0516
110.7000 36.8848 -0.0618
110.7200 36.8914 -0.0485
110.7400 36.8980 -0.0465
110.7600 36.9047 -0.0639
110.7800 36.9115 -0.0494
110.8000 36.9182 -0.0494
110.8200 36.9248 -0.0652
110.8400 36.9315 -0.0506
110.8600 36.9382 -0.0530
110.8800 36.9448 -0.0618
110.9000 36.9514 -0.0460
110.9200 36.9580 -0.0549
110.9400 36.9647 -0.0632
110.9600 36.9714 -0.0442
110.9800 36.9781 -0.0575
111.0000 36.9847 -0.0699
111.0200 36.9914 -0.0423
111.0400 36.9981 -0.0574
111.0600 37.0048 -0.0663
111.0800 37.0114 -0.0478
111.1000 37.0180 -0.0546
111.1200 37.0247 -0.0659
111.1400 37.0314 -0.0445
111.1600 37.0382 -0.0592
111.1800 37.0449 -0.0660
111.2000 37.0516 -0.0476
111.2200 37.0582 -0.0634
111.2400 37.0649 -0.0646
111.2600 37.0714 -0.0474
111.2800 37.0781 -0.0614
111.3000 37.0847 -0.0629
111.3200 37.0915 -0.0518
111.3400 37.0982 -0.0632
111.3600 37.1048 -0.0619
111.3800 37.1115 -0.0551
111.4000 37.1182 -0.0605
111.4200 37.1248 -0.0645
111.4400 37.1314 -0.0562
111.4600 37.1381 -0.0582
111.4800 37.1447 -0.0662
111.5000 37.1514 -0.0601
111.5200 37.1581 -0.0545
111.5400 37.1648 -0.0698
111.5600 37.1715 -0.0599
111.5800 37.1781 -0.0576
111.6000 37.1848 -0.0677
111.6200 37.1914 -0.0622
111.6400 37.1980 -0.0542
111.6600 37.2047 -0.0673
111.6800 37.2114 -0.0575
111.7000 37.2181 -0.0601
111.7200 37.2248 -0.0701
111.7400 37.2315 -0.0577
111.7600 37.2381 -0.0590
111.7800 37.2448 -0.0681
111.8000 37.2514 -0.0598
111.8200 37.2580 -0.0620
111.8400 37.2647 -0.0653
111.8600 37.2715 -0.0582
111.8800 37.2782 -0.0641
111.9000 37.2848 -0.0662
111.9200 37.2915 -0.0613
111.9400 37.2982 -0.0672
111.9600 37.3048 -0.0669
111.9800 37.3114 -0.0598
112.0000 37.3181 -0.0643
112.0200 37.3248 -0.0628
112.0400 37.3315 -0.0689
112.0600 37.3382 -0.0609
112.0800 37.3448 -0.0619
112.1000 37.3515 -0.0677
112.1200 37.3582 -0.0691
112.1400 37.3648 -0.0592
112.1600 37.3714 -0.0696
112.1800 37.3780 -0.0626
112.2000 37.3847 -0.0632
112.2200 37.3914 -0.0702
112.2400 37.3981 -0.0659
112.2600 37.4048 -0.0655
112.2800 37.4115 -0.0719
112.3000 37.4182 -0.0646
112.3200 37.4248 -0.0616
112.3400 37.4314 -0.0766
112.3600 37.4380 -0.0633
112.3800 37.4447 -0.0650
112.4000 37.4514 -0.0720
112.4200 37.4581 -0.0643
112.4400 37.4648 -0.0705
112.4600 37.4714 -0.0718
112.4800 37.4781 -0.0585
112.5000 37.4848 -0.0750
112.5200 37.4914 -0.0717
112.5400 37.4981 -0.0639
112.5600 37.5047 -0.0721
112.5800 37.5114 -0.0782
112.6000 37.5181 -0.0595
112.6200 37.5248 -0.0719
112.6400 37.5315 -0.0731
112.6600 37.5382 -0.0638
112.6800 37.5448 -0.0773
112.7000 37.5514 -0.0695
112.7200 37.5580 -0.0628
112.7400 37.5647 -0.0779
112.7600 37.5714 -0.0719
112.7800 37.5782 -0.0618
112.8000 37.5848 -0.0764
112.8200 37.5915 -0.0720
112.8400 37.5982 -0.0660
112.8600 37.6048 -0.0746
112.8800 37.6114 -0.0652
112.9000 37.6181 -0.0766
112.9200 37.6247 -0.0768
112.9400 37.6314 -0.0555
112.9600 37.6381 -0.0819
112.9800 37.6448 -0.0780
113.0000 37.6515 -0.0558
113.0200 37.6581 -0.0763
113.0400 37.6648 -0.0825
113.0600 37.6714 -0.0609
113.0800 37.6780 -0.0754
113.1000 37.6846 -0.0770
113.1200 37.6913 -0.0641
113.1400 37.6981 -0.0868
113.1600 37.7048 -0.0675
113.1800 37.7115 -0.0599
113.2000 37.7182 -0.0973
113.2200 37.7248 -0.0639
113.2400 37.7314 -0.0569
113.2600 37.7380 -0.0928
113.2800 37.7447 -0.0699
113.3000 37.7514 -0.0637
113.3200 37.7581 -0.0859
113.3400 37.7649 -0.0658
113.3600 37.7715 -0.0682
113.3800 37.7782 -0.0929
113.4000 37.7848 -0.0600
113.4200 37.7914 -0.0716
113.4400 37.7981 -0.0890
113.4600 37.8047 -0.0587
113.4800 37.8114 -0.0721
113.5000 37.8181 -0.0887
113.5200 37.8248 -0.0621
113.5400 37.8315 -0.0760
113.5600 37.8382 -0.0818
113.5800 37.8448 -0.0686
113.6000 37.8514 -0.0817
113.6200 37.8580 -0.0817
113.6400 37.8647 -0.0648
113.6600 37.8714 -0.0843
113.6800 37.8781 -0.0821
113.7000 37.8848 -0.0705
113.7200 37.8915 -0.0825
113.7400 37.8981 -0.0803
113.7600 37.9048 -0.0739
113.7800 37.9114 -0.0812
113.8000 37.9180 -0.0819
113.8200 37.9247 -0.0770
113.8400 37.9314 -0.0785
113.8600 37.9381 -0.0775
113.8800 37.9448 -0.0764
113.9000 37.9515 -0.0831
113.9200 37.9581 -0.0852
113.9400 37.9648 -0.0736
113.9600 37.9714 -0.0839
113.9800 37.9781 -0.0817
114.0000 37.9847 -0.0758
114.0200 37.9914 -0.0855
114.0400 37.9981 -0.0891
114.0600 38.0048 -0.0716
114.0800 38.0115 -0.0907
114.1000 38.0182 -0.0885
114.1200 38.0249 -0.0741
114.1400 38.0315 -0.0937
114.1600 38.0381 -0.0922
114.1800 38.0447 -0.0700
114.2000 38.0514 -0.0939
114.2200 38.0581 -0.0902
114.2400 38.0648 -0.0723
114.2600 38.0715 -0.0950
114.2800 38.0782 -0.0904
114.3000 38.0849 -0.0795
114.3200 38.0914 -0.0993
114.3400 38.0980 -0.0855
114.3600 38.1047 -0.0752
114.3800 38.1114 -0.0994
114.4000 38.1181 -0.0898
114.4200 38.1248 -0.0830
114.4400 38.1315 -0.0962
114.4600 38.1381 -0.0880
114.4800 38.1448 -0.0855
114.5000 38.1514 -0.1004
114.5200 38.1581 -0.0828
114.5400 38.1647 -0.0873
114.5600 38.1714 -0.0982
114.5800 38.1781 -0.0854
114.6000 38.1848 -0.0866
114.6200 38.1914 -0.1007
114.6400 38.1981 -0.0887
114.6600 38.2048 -0.0865
114.6800 38.2114 -0.0987
114.7000 38.2181 -0.0883
114.7200 38.2247 -0.0894
114.7400 38.2314 -0.0976
114.7600 38.2381 -0.0915
114.7800 38.2448 -0.0930
114.8000 38.2515 -0.0943
114.8200 38.2582 -0.0917
114.8400 38.2649 -0.0949
114.8600 38.2715 -0.0988
114.8800 38.2780 -0.0916
114.9000 38.2847 -0.0904
114.9200 38.2914 -0.1014
114.9400 38.2981 -0.0902
114.9600 38.3048 -0.0957
114.9800 38.3115 -0.0966
115.0000 38.3182 -0.0942
115.0200 38.3248 -0.0923
115.0400 38.3315 -0.0981
115.0600 38.3381 -0.0932
115.0800 38.3447 -0.0906
115.1000 38.3514 -0.1000
115.1200 38.3581 -0.0995
115.1400 38.3648 -0.0866
115.1600 38.3715 -0.0992
115.1800 38.3781 -0.0961
115.2000 38.3848 -0.0941
115.2200 38.3914 -0.1002
115.2400 38.3980 -0.0932
115.2600 38.4046 -0.0887
115.2800 38.4113 -0.1016
115.3000 38.4181 -0.0948
115.3200 38.4248 -0.0869
115.3400 38.4314 -0.1075
115.3600 38.4381 -0.0924
115.3800 38.4448 -0.0884
115.4000 38.4514 -0.1053
115.4200 38.4580 -0.0969
115.4400 38.4647 -0.0853
115.4600 38.4714 -0.1052
115.4800 38.4781 -0.0966
115.5000 38.4848 -0.0898
115.5200 38.4915 -0.1040
115.5400 38.4982 -0.0987
115.5600 38.5049 -0.0859
115.5800 38.5115 -0.1104
115.6000 38.5181 -0.0993
115.6200 38.5247 -0.0901
115.6400 38.5314 -0.1028
115.6600 38.5381 -0.1020
115.6800 38.5448 -0.0972
115.7000 38.5515 -0.1013
115.7200 38.5582 -0.1025
115.7400 38.5649 -0.0955
115.7600 38.5715 -0.1017
115.7800 38.5781 -0.1082
115.8000 38.5847 -0.0915
115.8200 38.5914 -0.1027
115.8400 38.5981 -0.1095
115.8600 38.6048 -0.0959
115.8800 38.6115 -0.1058
115.9000 38.6181 -0.1089
115.9200 38.6248 -0.0997
115.9400 38.6314 -0.1019
115.9600 38.6380 -0.1112
115.9800 38.6447 -0.0989
116.0000 38.6514 -0.1033
116.0200 38.6581 -0.1110
116.0400 38.6648 -0.1027
116.0600 38.6714 -0.1058
116.0800 38.6781 -0.1115
116.1000 38.6848 -0.1044
116.1200 38.6915 -0.1099
116.1400 38.6982 -0.1122
116.1600 38.7048 -0.1049
116.1800 38.7115 -0.1039
116.2000 38.7182 -0.1109
116.2200 38.7248 -0.1065
116.2400 38.7315 -0.1076
116.2600 38.7382 -0.1113
116.2800 38.7449 -0.1078
116.3000 38.7515 -0.1102
116.3200 38.7581 -0.1134
116.3400 38.7647 -0.1041
116.3600 38.7714 -0.1085
116.3800 38.7781 -0.1140
116.4000 38.7848 -0.1035
116.4200 38.7915 -0.1132
116.4400 38.7982 -0.1155
116.4600 38.8048 -0.1024
116.4800 38.8115 -0.1116
116.5000 38.8181 -0.1165
116.5200 38.8247 -0.1004
116.5400 38.8314 -0.1139
116.5600 38.8381 -0.1157
116.5800 38.8448 -0.1038
116.6000 38.8515 -0.1127
116.6200 38.8581 -0.1179
116.6400 38.8648 -0.1051
116.6600 38.8715 -0.1159
116.6800 38.8781 -0.1156
116.7000 38.8847 -0.1045
116.7200 38.8914 -0.1187
116.7400 38.8981 -0.1117
116.7600 38.9047 -0.1083
116.7800 38.9114 -0.1195
116.8000 38.9181 -0.1122
116.8200 38.9248 -0.1065
116.8400 38.9315 -0.1203
116.8600 38.9381 -0.1119
116.8800 38.9447 -0.1073
116.9000 38.9514 -0.1150
116.9200 38.9581 -0.1133
116.9400 38.9648 -0.1093
116.9600 38.9715 -0.1176
116.9800 38.9782 -0.1074
117.0000 38.9849 -0.1159
117.0200 38.9915 -0.1134
117.0400 38.9981 -0.1047
117.0600 39.0047 -0.1176
117.0800 39.0114 -0.1153
117.1000 39.0181 -0.1100
117.1200 39.0248 -0.1216
117.1400 39.0315 -0.1131
117.1600 39.0382 -0.1119
117.1800 39.0448 -0.1241
117.2000 39.0515 -0.1106
117.2200 39.0581 -0.1103
117.2400 39.0647 -0.1257
117.2600 39.0713 -0.1116
117.2800 39.0780 -0.1148
117.3000 39.0848 -0.1270
117.3200 39.0914 -0.1111
117.3400 39.0981 -0.1163
117.3600 39.1048 -0.1243
117.3800 39.1115 -0.1099
117.4000 39.1181 -0.1216
117.4200 39.1247 -0.1234
117.4400 39.1313 -0.1080
117.4600 39.1381 -0.1260
117.4800 39.1448 -0.1221
117.5000 39.1515 -0.1164
117.5200 39.1581 -0.1228
117.5400 39.1648 -0.1223
117.5600 39.1715 -0.1121
117.5800 39.1781 -0.1242
117.6000 39.1847 -0.1190
117.6200 39.1914 -0.1168
117.6400 39.1981 -0.1291
117.6600 39.2048 -0.1222
117.6800 39.2115 -0.1171
117.7000 39.2181 -0.1294
117.7200 39.2248 -0.1209
117.7400 39.2315 -0.1183
117.7600 39.2382 -0.1291
117.7800 39.2448 -0.1258
117.8000 39.2514 -0.1175
117.8200 39.2581 -0.1293
117.8400 39.2648 -0.1233
117.8600 39.2715 -0.1189
117.8800 39.2782 -0.1310
117.9000 39.2848 -0.1240
117.9200 39.2915 -0.1231
117.9400 39.2981 -0.1245
117.9600 39.3047 -0.1229
117.9800 39.3114 -0.1239
118.0000 39.3181 -0.1280
118.0200 39.3248 -0.1228
118.0400 39.3315 -0.1294
118.0600 39.3381 -0.1281
118.0800 39.3448 -0.1237
118.1000 39.3515 -0.1292
118.1200 39.3581 -0.1286
118.1400 39.3647 -0.1197
118.1600 39.3714 -0.1294
118.1800 39.3781 -0.1266
118.2000 39.3848 -0.1287
118.2200 39.3915 -0.1269
118.2400 39.3981 -0.1207
118.2600 39.4048 -0.1310
118.2800 39.4115 -0.1311
118.3000 39.4181 -0.1264
118.3200 39.4247 -0.1280
118.3400 39.4314 -0.1313
118.3600 39.4380 -0.1236
118.3800 39.4448 -0.1318
118.4000 39.4515 -0.1316
118.4200 39.4582 -0.1286
118.4400 39.4648 -0.1316
118.4600 39.4715 -0.1302
118.4800 39.4781 -0.1273
118.5000 39.4847 -0.1361
118.5200 39.4913 -0.1284
118.5400 39.4981 -0.1271
118.5600 39.5048 -0.1362
118.5800 39.5115 -0.1348
118.6000 39.5182 -0.1261
118.6200 39.5249 -0.1391
118.6400 39.5315 -0.1372
118.6600 39.5381 -0.1265
118.6800 39.5447 -0.1385
118.7000 39.5514 -0.1362
118.7200 39.5581 -0.1256
118.7400 39.5648 -0.1402
118.7600 39.5714 -0.1352
118.7800 39.5781 -0.1278
118.8000 39.5848 -0.1439
118.8200 39.5915 -0.1384
118.8400 39.5981 -0.1308
118.8600 39.6047 -0.1430
118.8800 39.6113 -0.1353
118.9000 39.6180 -0.1324
118.9200 39.6247 -0.1471
118.9400 39.6314 -0.1326
118.9600 39.6381 -0.1393
118.9800 39.6448 -0.1417
119.0000 39.6515 -0.1381
119.0200 39.6581 -0.1394
119.0400 39.6647 -0.1425
119.0600 39.6714 -0.1367
119.0800 39.6781 -0.1396
119.1000 39.6848 -0.1445
119.1200 39.6915 -0.1439
119.1400 39.6982 -0.1361
119.1600 39.7049 -0.1447
119.1800 39.7115 -0.1441
119.2000 39.7181 -0.1370
119.2200 39.7247 -0.1439
119.2400 39.7314 -0.1431
119.2600 39.7381 -0.1387
119.2800 39.7448 -0.1451
119.3000 39.7514 -0.1438
119.3200 39.7581 -0.1389
119.3400 39.7648 -0.1429
119.3600 39.7715 -0.1456
119.3800 39.7782 -0.1460
119.4000 39.7848 -0.1446
119.4200 39.7914 -0.1450
119.4400 39.7981 -0.1435
119.4600 39.8048 -0.1468
119.4800 39.8115 -0.1485
119.5000 39.8182 -0.1460
119.5200 39.8248 -0.1426
119.5400 39.8315 -0.1516
119.5600 39.8381 -0.1452
119.5800 39.8447 -0.1495
119.6000 39.8513 -0.1536
119.6200 39.8580 -0.1422
119.6400 39.8648 -0.1447
119.6600 39.8714 -0.1570
119.6800 39.8781 -0.1454
119.7000 39.8848 -0.1475
119.7200 39.8914 -0.1606
119.7400 39.8981 -0.1429
119.7600 39.9047 -0.1517
119.7800 39.9114 -0.1585
119.8000 39.9181 -0.1439
119.8200 39.9248 -0.1604
119.8400 39.9315 -0.1567
119.8600 39.9382 -0.1435
119.8800 39.9449 -0.1594
119.9000 39.9515 -0.1554
119.9200 39.9582 -0.1512
119.9400 39.9647 -0.1578
119.9600 39.9714 -0.1509
119.9800 39.9780 -0.1470
120.0000 39.9848 -0.1650
120.0200 39.9915 -0.1527
120.0400 39.9982 -0.1514
120.0460 40.0001 -0.1658
