Raw Data
Time Displacement Force
(s) (mm) (N)
0.0000 0.0000 0.6692
0.0200 0.0001 0.6601
0.0400 0.0010 0.7032
0.0600 0.0048 0.7386
0.0800 0.0105 0.6832
0.1000 0.0163 0.7068
0.1200 0.0224 0.7364
0.1400 0.0292 0.6948
0.1600 0.0366 0.7078
0.1800 0.0440 0.7262
0.2000 0.0511 0.6957
0.2200 0.0579 0.7039
0.2400 0.0645 0.7310
0.2600 0.0711 0.7011
0.2800 0.0778 0.7185
0.3000 0.0845 0.7347
0.3200 0.0913 0.7004
0.3400 0.0980 0.7173
0.3600 0.1046 0.7304
0.3800 0.1113 0.7056
0.4000 0.1180 0.7230
0.4200 0.1246 0.7295
0.4400 0.1313 0.7132
0.4600 0.1379 0.7200
0.4800 0.1446 0.7364
0.5000 0.1513 0.7103
0.5200 0.1580 0.7294
0.5400 0.1647 0.7359
0.5600 0.1714 0.7145
0.5800 0.1780 0.7259
0.6000 0.1846 0.7367
0.6200 0.1912 0.7157
0.6400 0.1979 0.7259
0.6600 0.2046 0.7382
0.6800 0.2113 0.7169
0.7000 0.2180 0.7292
0.7200 0.2247 0.7389
0.7400 0.2314 0.7142
0.7600 0.2380 0.7302
0.7800 0.2446 0.7361
0.8000 0.2512 0.7136
0.8200 0.2579 0.7365
0.8400 0.2646 0.7328
0.8600 0.2713 0.7118
0.8800 0.2780 0.7298
0.9000 0.2846 0.7305
0.9200 0.2913 0.7103
0.9400 0.2980 0.7285
0.9600 0.3046 0.7271
0.9800 0.3112 0.7106
1.0000 0.3179 0.7273
1.0200 0.3246 0.7300
1.0400 0.3313 0.7073
1.0600 0.3380 0.7308
1.0800 0.3446 0.7186
1.1000 0.3513 0.7080
1.1200 0.3580 0.7225
1.1400 0.3646 0.7132
1.1600 0.3712 0.7096
1.1800 0.3779 0.7240
1.2000 0.3846 0.7116
1.2200 0.3913 0.7081
1.2400 0.3980 0.7208
1.2600 0.4047 0.7067
1.2800 0.4114 0.7067
1.3000 0.4180 0.7168
1.3200 0.4246 0.7025
1.3400 0.4313 0.7009
1.3600 0.4379 0.7184
1.3800 0.4446 0.7036
1.4000 0.4513 0.7029
1.4200 0.4580 0.7108
1.4400 0.4647 0.7030
1.4600 0.4714 0.6995
1.4800 0.4780 0.7086
1.5000 0.4847 0.6959
1.5200 0.4913 0.6996
1.5400 0.4979 0.7058
1.5600 0.5046 0.7011
1.5800 0.5113 0.6971
1.6000 0.5180 0.6986
1.6200 0.5247 0.6999
1.6400 0.5313 0.6970
1.6600 0.5380 0.6929
1.6800 0.5446 0.6969
1.7000 0.5512 0.6962
1.7200 0.5578 0.6969
1.7400 0.5645 0.6966
1.7600 0.5713 0.6914
1.7800 0.5780 0.6920
1.8000 0.5846 0.6926
1.8200 0.5913 0.6875
1.8400 0.5980 0.6887
1.8600 0.6046 0.6957
1.8800 0.6112 0.6871
1.9000 0.6179 0.6895
1.9200 0.6246 0.6916
1.9400 0.6313 0.6833
1.9600 0.6380 0.6840
1.9800 0.6447 0.6885
2.0000 0.6514 0.6800
2.0200 0.6581 0.6892
2.0400 0.6647 0.6802
2.0600 0.6713 0.6783
2.0800 0.6779 0.6880
2.1000 0.6846 0.6826
2.1200 0.6913 0.6743
2.1400 0.6980 0.6836
2.1600 0.7047 0.6773
2.1800 0.7114 0.6732
2.2000 0.7180 0.6822
2.2200 0.7246 0.6741
2.2400 0.7312 0.6698
2.2600 0.7379 0.6834
2.2800 0.7446 0.6699
2.3000 0.7513 0.6645
2.3200 0.7580 0.6788
2.3400 0.7647 0.6714
2.3600 0.7713 0.6601
2.3800 0.7780 0.6676
2.4000 0.7846 0.6715
2.4200 0.7913 0.6569
2.4400 0.7979 0.6725
2.4600 0.8046 0.6656
2.4800 0.8113 0.6537
2.5000 0.8180 0.6682
2.5200 0.8246 0.6675
2.5400 0.8313 0.6517
2.5600 0.8380 0.6698
2.5800 0.8447 0.6618
2.6000 0.8513 0.6463
2.6200 0.8579 0.6643
2.6400 0.8646 0.6665
2.6600 0.8713 0.6448
2.6800 0.8780 0.6665
2.7000 0.8847 0.6590
2.7200 0.8914 0.6462
2.7400 0.8980 0.6599
2.7600 0.9047 0.6546
2.7800 0.9113 0.6461
2.8000 0.9179 0.6580
2.8200 0.9246 0.6542
2.8400 0.9313 0.6471
2.8600 0.9380 0.6560
2.8800 0.9447 0.6484
2.9000 0.9514 0.6472
2.9200 0.9580 0.6488
2.9400 0.9647 0.6426
2.9600 0.9713 0.6493
2.9800 0.9779 0.6489
3.0000 0.9846 0.6422
3.0200 0.9913 0.6473
3.0400 0.9980 0.6448
3.0600 1.0046 0.6454
3.0800 1.0113 0.6450
3.1000 1.0180 0.6460
3.1200 1.0246 0.6398
3.1400 1.0312 0.6492
3.1600 1.0379 0.6424
3.1800 1.0445 0.6389
3.2000 1.0513 0.6466
3.2200 1.0580 0.6412
3.2400 1.0647 0.6408
3.2600 1.0713 0.6479
3.2800 1.0780 0.6363
3.3000 1.0846 0.6356
3.3200 1.0912 0.6491
3.3400 1.0979 0.6391
3.3600 1.1046 0.6351
3.3800 1.1113 0.6462
3.4000 1.1181 0.6331
3.4200 1.1247 0.6409
3.4400 1.1314 0.6485
3.4600 1.1380 0.6308
3.4800 1.1447 0.6379
3.5000 1.1513 0.6436
3.5200 1.1579 0.6322
3.5400 1.1646 0.6349
3.5600 1.1713 0.6443
3.5800 1.1780 0.6274
3.6000 1.1847 0.6387
3.6200 1.1914 0.6349
3.6400 1.1980 0.6257
3.6600 1.2047 0.6362
3.6800 1.2113 0.6333
3.7000 1.2179 0.6249
3.7200 1.2246 0.6390
3.7400 1.2313 0.6269
3.7600 1.2380 0.6223
3.7800 1.2447 0.6388
3.8000 1.2514 0.6238
3.8200 1.2580 0.6216
3.8400 1.2647 0.6372
3.8600 1.2713 0.6160
3.8800 1.2778 0.6233
3.9000 1.2845 0.6380
3.9200 1.2913 0.6137
3.9400 1.2980 0.6236
3.9600 1.3046 0.6309
3.9800 1.3113 0.6107
4.0000 1.3180 0.6284
4.0200 1.3246 0.6239
4.0400 1.3313 0.6082
4.0600 1.3379 0.6301
4.0800 1.3446 0.6166
4.1000 1.3513 0.6081
4.1200 1.3580 0.6270
4.1400 1.3647 0.6157
4.1600 1.3714 0.6057
4.1800 1.3781 0.6241
4.2000 1.3847 0.6078
4.2200 1.3913 0.6137
4.2400 1.3979 0.6205
4.2600 1.4046 0.6045
4.2800 1.4113 0.6062
4.3000 1.4180 0.6191
4.3200 1.4247 0.5996
4.3400 1.4314 0.6096
4.3600 1.4380 0.6184
4.3800 1.4447 0.5983
4.4000 1.4513 0.6113
4.4200 1.4579 0.6177
4.4400 1.4646 0.5947
4.4600 1.4713 0.6159
4.4800 1.4780 0.6106
4.5000 1.4846 0.5917
4.5200 1.4913 0.6117
4.5400 1.4980 0.6071
4.5600 1.5046 0.5953
4.5800 1.5113 0.6049
4.6000 1.5179 0.6099
4.6200 1.5245 0.5971
4.6400 1.5312 0.6082
4.6600 1.5380 0.6042
4.6800 1.5447 0.5920
4.7000 1.5514 0.6027
4.7200 1.5580 0.6057
4.7400 1.5647 0.5908
4.7600 1.5713 0.5993
4.7800 1.5779 0.6037
4.8000 1.5846 0.5925
4.8200 1.5913 0.5962
4.8400 1.5980 0.6017
4.8600 1.6047 0.5882
4.8800 1.6114 0.5954
4.9000 1.6180 0.6005
4.9200 1.6247 0.5861
4.9400 1.6313 0.5909
4.9600 1.6379 0.6017
4.9800 1.6446 0.5848
5.0000 1.6513 0.5859
5.0200 1.6580 0.5994
5.0400 1.6647 0.5823
5.0600 1.6714 0.5874
5.0800 1.6780 0.6003
5.1000 1.6847 0.5794
5.1200 1.6913 0.5793
5.1400 1.6980 0.5946
5.1600 1.7046 0.5836
5.1800 1.7113 0.5752
5.2000 1.7180 0.5865
5.2200 1.7246 0.5872
5.2400 1.7313 0.5711
5.2600 1.7380 0.5915
5.2800 1.7447 0.5786
5.3000 1.7513 0.5691
5.3200 1.7579 0.5950
5.3400 1.7645 0.5806
5.3600 1.7712 0.5638
5.3800 1.7780 0.5859
5.4000 1.7847 0.5824
5.4200 1.7913 0.5653
5.4400 1.7980 0.5797
5.4600 1.8046 0.5775
5.4800 1.8113 0.5610
5.5000 1.8179 0.5881
5.5200 1.8246 0.5757
5.5400 1.8313 0.5596
5.5600 1.8380 0.5843
5.5800 1.8447 0.5704
5.6000 1.8513 0.5554
5.6200 1.8580 0.5825
5.6400 1.8647 0.5721
5.6600 1.8713 0.5517
5.6800 1.8779 0.5819
5.7000 1.8846 0.5668
5.7200 1.8913 0.5571
5.7400 1.8980 0.5788
5.7600 1.9047 0.5549
5.7800 1.9114 0.5555
5.8000 1.9181 0.5854
5.8200 1.9247 0.5491
5.8400 1.9313 0.5600
5.8600 1.9379 0.5837
5.8800 1.9446 0.5457
5.9000 1.9513 0.5570
5.9200 1.9580 0.5798
5.9400 1.9647 0.5403
5.9600 1.9713 0.5558
5.9800 1.9780 0.5821
6.0000 1.9847 0.5368
6.0200 1.9913 0.5511
6.0400 1.9979 0.5804
6.0600 2.0046 0.5360
6.0800 2.0112 0.5543
6.1000 2.0179 0.5756
6.1200 2.0246 0.5387
6.1400 2.0313 0.5528
6.1600 2.0380 0.5678
6.1800 2.0447 0.5412
6.2000 2.0513 0.5503
6.2200 2.0579 0.5689
6.2400 2.0646 0.5383
6.2600 2.0713 0.5508
6.2800 2.0780 0.5644
6.3000 2.0847 0.5407
6.3200 2.0914 0.5490
6.3400 2.0981 0.5629
6.3600 2.1047 0.5366
6.3800 2.1113 0.5497
6.4000 2.1179 0.5589
6.4200 2.1246 0.5395
6.4400 2.1313 0.5418
6.4600 2.1380 0.5611
6.4800 2.1447 0.5395
6.5000 2.1514 0.5447
6.5200 2.1580 0.5556
6.5400 2.1647 0.5359
6.5600 2.1713 0.5431
6.5800 2.1779 0.5558
6.6000 2.1846 0.5387
6.6200 2.1913 0.5411
6.6400 2.1980 0.5504
6.6600 2.2046 0.5320
6.6800 2.2113 0.5429
6.7000 2.2180 0.5519
6.7200 2.2247 0.5310
6.7400 2.2313 0.5393
6.7600 2.2379 0.5557
6.7800 2.2445 0.5287
6.8000 2.2512 0.5423
6.8200 2.2579 0.5466
6.8400 2.2647 0.5238
6.8600 2.2714 0.5412
6.8800 2.2780 0.5461
6.9000 2.2847 0.5182
6.9200 2.2913 0.5450
6.9400 2.2979 0.5411
6.9600 2.3046 0.5187
6.9800 2.3113 0.5469
7.0000 2.3180 0.5325
7.0200 2.3247 0.5154
7.0400 2.3313 0.5487
7.0600 2.3380 0.5288
7.0800 2.3447 0.5185
7.1000 2.3513 0.5399
7.1200 2.3580 0.5243
7.1400 2.3646 0.5170
7.1600 2.3713 0.5388
7.1800 2.3780 0.5199
7.2000 2.3847 0.5140
7.2200 2.3914 0.5385
7.2400 2.3980 0.5226
7.2600 2.4047 0.5147
7.2800 2.4114 0.5282
7.3000 2.4180 0.5226
7.3200 2.4246 0.5112
7.3400 2.4312 0.5262
7.3600 2.4379 0.5233
7.3800 2.4446 0.5139
7.4000 2.4513 0.5218
7.4200 2.4580 0.5165
7.4400 2.4647 0.5078
7.4600 2.4713 0.5238
7.4800 2.4779 0.5225
7.5000 2.4845 0.5077
7.5200 2.4912 0.5139
7.5400 2.4979 0.5226
7.5600 2.5046 0.5040
7.5800 2.5113 0.5131
7.6000 2.5180 0.5212
7.6200 2.5246 0.5030
7.6400 2.5313 0.5073
7.6600 2.5379 0.5211
7.6800 2.5446 0.4999
7.7000 2.5512 0.5144
7.7200 2.5580 0.5244
7.7400 2.5647 0.4918
7.7600 2.5714 0.5110
7.7800 2.5781 0.5240
7.8000 2.5847 0.4939
7.8200 2.5914 0.5059
7.8400 2.5980 0.5218
7.8600 2.6046 0.4909
7.8800 2.6112 0.5100
7.9000 2.6179 0.5172
7.9200 2.6247 0.4834
7.9400 2.6313 0.5143
7.9600 2.6380 0.5198
7.9800 2.6447 0.4696
8.0000 2.6513 0.5141
8.0200 2.6579 0.5223
8.0400 2.6646 0.4772
8.0600 2.6713 0.5016
8.0800 2.6780 0.5138
8.1000 2.6847 0.4786
8.1200 2.6913 0.5057
8.1400 2.6980 0.5080
8.1600 2.7047 0.4861
8.1800 2.7113 0.5031
8.2000 2.7180 0.4965
8.2200 2.7246 0.4859
8.2400 2.7313 0.5102
8.2600 2.7380 0.4971
8.2800 2.7446 0.4748
8.3000 2.7513 0.5014
8.3200 2.7579 0.5030
8.3400 2.7646 0.4893
8.3600 2.7713 0.4913
8.3800 2.7779 0.4909
8.4000 2.7845 0.4899
8.4200 2.7912 0.4997
8.4400 2.7980 0.4842
8.4600 2.8047 0.4808
8.4800 2.8114 0.4963
8.5000 2.8180 0.4889
8.5200 2.8247 0.4755
8.5400 2.8314 0.4940
8.5600 2.8380 0.4961
8.5800 2.8446 0.4698
8.6000 2.8513 0.4851
8.6200 2.8580 0.5010
8.6400 2.8647 0.4741
8.6600 2.8714 0.4783
8.6800 2.8780 0.4871
8.7000 2.8847 0.4796
8.7200 2.8913 0.4900
8.7400 2.8979 0.4822
8.7600 2.9046 0.4640
8.7800 2.9112 0.4916
8.8000 2.9179 0.4905
8.8200 2.9246 0.4586
8.8400 2.9313 0.4847
8.8600 2.9380 0.4846
8.8800 2.9447 0.4661
8.9000 2.9513 0.4862
8.9200 2.9579 0.4768
8.9400 2.9645 0.4615
8.9600 2.9712 0.4877
8.9800 2.9779 0.4838
9.0000 2.9846 0.4617
9.0200 2.9913 0.4776
9.0400 2.9980 0.4756
9.0600 3.0047 0.4597
9.0800 3.0113 0.4926
9.1000 3.0180 0.4698
9.1200 3.0246 0.4556
9.1400 3.0313 0.4802
9.1600 3.0380 0.4758
9.1800 3.0447 0.4705
9.2000 3.0513 0.4834
9.2200 3.0580 0.4544
9.2400 3.0647 0.4590
9.2600 3.0714 0.4944
9.2800 3.0780 0.4642
9.3000 3.0846 0.4575
9.3200 3.0912 0.4765
9.3400 3.0979 0.4594
9.3600 3.1047 0.4659
9.3800 3.1113 0.4829
9.4000 3.1180 0.4513
9.4200 3.1247 0.4553
9.4400 3.1314 0.4727
9.4600 3.1380 0.4614
9.4800 3.1446 0.4647
9.5000 3.1513 0.4738
9.5200 3.1580 0.4459
9.5400 3.1647 0.4604
9.5600 3.1714 0.4747
9.5800 3.1780 0.4559
9.6000 3.1847 0.4548
9.6200 3.1913 0.4693
9.6400 3.1980 0.4492
9.6600 3.2046 0.4564
9.6800 3.2112 0.4729
9.7000 3.2179 0.4482
9.7200 3.2246 0.4534
9.7400 3.2313 0.4700
9.7600 3.2380 0.4432
9.7800 3.2447 0.4514
9.8000 3.2513 0.4650
9.8200 3.2579 0.4475
9.8400 3.2646 0.4538
9.8600 3.2712 0.4623
9.8800 3.2779 0.4408
9.9000 3.2847 0.4505
9.9200 3.2914 0.4604
9.9400 3.2981 0.4437
9.9600 3.3048 0.4499
9.9800 3.3114 0.4505
10.0000 3.3180 0.4392
10.0200 3.3246 0.4577
10.0400 3.3313 0.4562
10.0600 3.3380 0.4347
10.0800 3.3447 0.4524
10.1000 3.3514 0.4435
10.1200 3.3580 0.4436
10.1400 3.3647 0.4528
10.1600 3.3714 0.4444
10.1800 3.3780 0.4364
10.2000 3.3846 0.4504
10.2200 3.3912 0.4419
10.2400 3.3979 0.4400
10.2600 3.4046 0.4520
10.2800 3.4113 0.4364
10.3000 3.4180 0.4374
10.3200 3.4247 0.4496
10.3400 3.4313 0.4343
10.3600 3.4379 0.4356
10.3800 3.4445 0.4479
10.4000 3.4512 0.4364
10.4200 3.4579 0.4384
10.4400 3.4646 0.4430
10.4600 3.4713 0.4307
10.4800 3.4780 0.4387
10.5000 3.4847 0.4416
10.5200 3.4913 0.4284
10.5400 3.4979 0.4383
10.5600 3.5046 0.4357
10.5800 3.5112 0.4313
10.6000 3.5180 0.4388
10.6200 3.5247 0.4350
10.6400 3.5314 0.4271
10.6600 3.5380 0.4355
10.6800 3.5447 0.4302
10.7000 3.5514 0.4286
10.7200 3.5580 0.4331
10.7400 3.5646 0.4311
10.7600 3.5713 0.4259
10.7800 3.5780 0.4298
10.8000 3.5846 0.4289
10.8200 3.5913 0.4268
10.8400 3.5980 0.4253
10.8600 3.6047 0.4288
10.8800 3.6114 0.4258
10.9000 3.6180 0.4199
10.9200 3.6246 0.4255
10.9400 3.6312 0.4314
10.9600 3.6379 0.4277
10.9800 3.6446 0.4220
11.0000 3.6513 0.4239
11.0200 3.6580 0.4146
11.0400 3.6647 0.4260
11.0600 3.6713 0.4314
11.0800 3.6780 0.4111
11.1000 3.6845 0.4136
11.1200 3.6912 0.4275
11.1400 3.6979 0.4188
11.1600 3.7046 0.4199
11.1800 3.7113 0.4148
11.2000 3.7180 0.4128
11.2200 3.7247 0.4235
11.2400 3.7314 0.4191
11.2600 3.7380 0.4059
11.2800 3.7446 0.4262
11.3000 3.7512 0.4129
11.3200 3.7579 0.4037
11.3400 3.7646 0.4237
11.3600 3.7713 0.4185
11.3800 3.7780 0.4058
11.4000 3.7847 0.4115
11.4200 3.7914 0.4090
11.4400 3.7980 0.4112
11.4600 3.8046 0.4103
11.4800 3.8112 0.4072
11.5000 3.8179 0.4123
11.5200 3.8247 0.4124
11.5400 3.8314 0.4078
11.5600 3.8380 0.4028
11.5800 3.8447 0.4072
11.6000 3.8514 0.4103
11.6200 3.8580 0.4052
11.6400 3.8646 0.3997
11.6600 3.8713 0.4104
11.6800 3.8780 0.3978
11.7000 3.8847 0.4034
11.7200 3.8913 0.4175
11.7400 3.8980 0.3962
11.7600 3.9047 0.3952
11.7800 3.9114 0.4144
11.8000 3.9180 0.3920
11.8200 3.9246 0.4029
11.8400 3.9312 0.4095
11.8600 3.9379 0.3878
11.8800 3.9446 0.4040
11.9000 3.9513 0.4083
11.9200 3.9580 0.3894
11.9400 3.9647 0.4060
11.9600 3.9714 0.3956
11.9800 3.9780 0.3824
12.0000 3.9846 0.4076
12.0200 3.9912 0.3985
12.0400 3.9979 0.3854
12.0600 4.0046 0.4059
12.0800 4.0114 0.3893
12.1000 4.0181 0.3826
12.1200 4.0247 0.4095
12.1400 4.0314 0.3883
12.1600 4.0380 0.3824
12.1800 4.0446 0.4053
12.2000 4.0513 0.3923
12.2200 4.0580 0.3783
12.2400 4.0647 0.4048
12.2600 4.0714 0.3856
12.2800 4.0780 0.3829
12.3000 4.0847 0.4026
12.3200 4.0914 0.3830
12.3400 4.0980 0.3816
12.3600 4.1046 0.4041
12.3800 4.1112 0.3764
12.4000 4.1179 0.3771
12.4200 4.1246 0.4053
12.4400 4.1313 0.3819
12.4600 4.1380 0.3697
12.4800 4.1447 0.3994
12.5000 4.1514 0.3794
12.5200 4.1580 0.3742
12.5400 4.1646 0.3951
12.5600 4.1712 0.3772
12.5800 4.1779 0.3752
12.6000 4.1846 0.3963
12.6200 4.1913 0.3757
12.6400 4.1980 0.3661
12.6600 4.2046 0.3923
12.6800 4.2113 0.3747
12.7000 4.2180 0.3760
12.7200 4.2246 0.3864
12.7400 4.2312 0.3710
12.7600 4.2379 0.3703
12.7800 4.2446 0.3930
12.8000 4.2513 0.3710
12.8200 4.2580 0.3737
12.8400 4.2647 0.3828
12.8600 4.2714 0.3671
12.8800 4.2780 0.3781
12.9000 4.2846 0.3873
12.9200 4.2912 0.3617
12.9400 4.2979 0.3705
12.9600 4.3046 0.3838
12.9800 4.3114 0.3725
13.0000 4.3180 0.3686
13.0200 4.3247 0.3759
13.0400 4.3314 0.3622
13.0600 4.3380 0.3724
13.0800 4.3446 0.3830
13.1000 4.3512 0.3618
13.1200 4.3579 0.3667
13.1400 4.3646 0.3751
13.1600 4.3713 0.3653
13.1800 4.3780 0.3695
13.2000 4.3847 0.3752
13.2200 4.3913 0.3510
13.2400 4.3980 0.3644
13.2600 4.4046 0.3786
13.2800 4.4112 0.3603
13.3000 4.4179 0.3607
13.3200 4.4246 0.3690
13.3400 4.4313 0.3514
13.3600 4.4379 0.3723
13.3800 4.4446 0.3675
13.4000 4.4513 0.3447
13.4200 4.4580 0.3618
13.4400 4.4646 0.3744
13.4600 4.4713 0.3490
13.4800 4.4779 0.3592
13.5000 4.4846 0.3614
13.5200 4.4913 0.3455
13.5400 4.4980 0.3579
13.5600 4.5047 0.3622
13.5800 4.5114 0.3458
13.6000 4.5180 0.3588
13.6200 4.5246 0.3527
13.6400 4.5312 0.3508
13.6600 4.5379 0.3669
13.6800 4.5446 0.3483
13.7000 4.5513 0.3429
13.7200 4.5580 0.3622
13.7400 4.5647 0.3526
13.7600 4.5714 0.3382
13.7800 4.5780 0.3568
13.8000 4.5846 0.3496
13.8200 4.5912 0.3468
13.8400 4.5979 0.3590
13.8600 4.6046 0.3467
13.8800 4.6113 0.3400
13.9000 4.6180 0.3573
13.9200 4.6247 0.3504
13.9400 4.6313 0.3426
13.9600 4.6380 0.3487
13.9800 4.6446 0.3465
14.0000 4.6512 0.3448
14.0200 4.6578 0.3559
14.0400 4.6646 0.3458
14.0600 4.6713 0.3440
14.0800 4.6779 0.3490
14.1000 4.6846 0.3458
14.1200 4.6913 0.3484
14.1400 4.6979 0.3469
14.1600 4.7046 0.3442
14.1800 4.7112 0.3487
14.2000 4.7179 0.3469
14.2200 4.7246 0.3476
14.2400 4.7313 0.3510
14.2600 4.7380 0.3395
14.2800 4.7447 0.3437
14.3000 4.7514 0.3496
14.3200 4.7581 0.3480
14.3400 4.7647 0.3400
14.3600 4.7713 0.3446
14.3800 4.7780 0.3438
14.4000 4.7847 0.3447
14.4200 4.7914 0.3422
14.4400 4.7980 0.3458
14.4600 4.8047 0.3429
14.4800 4.8114 0.3429
14.5000 4.8180 0.3430
14.5200 4.8246 0.3404
14.5400 4.8312 0.3419
14.5600 4.8379 0.3501
14.5800 4.8446 0.3350
14.6000 4.8513 0.3382
14.6200 4.8580 0.3479
14.6400 4.8647 0.3382
14.6600 4.8713 0.3399
14.6800 4.8780 0.3441
14.7000 4.8846 0.3319
14.7200 4.8912 0.3407
14.7400 4.8979 0.3507
14.7600 4.9046 0.3340
14.7800 4.9113 0.3386
14.8000 4.9180 0.3415
14.8200 4.9247 0.3323
14.8400 4.9313 0.3414
14.8600 4.9380 0.3442
14.8800 4.9447 0.3301
14.9000 4.9513 0.3370
14.9200 4.9579 0.3378
14.9400 4.9646 0.3378
14.9600 4.9713 0.3347
14.9800 4.9780 0.3414
15.0000 4.9847 0.3368
15.0200 4.9914 0.3310
15.0400 4.9981 0.3332
15.0600 5.0047 0.3372
15.0800 5.0113 0.3276
15.1000 5.0179 0.3329
15.1200 5.0246 0.3373
15.1400 5.0313 0.3245
15.1600 5.0380 0.3286
15.1800 5.0447 0.3377
15.2000 5.0514 0.3217
15.2200 5.0580 0.3383
15.2400 5.0646 0.3366
15.2600 5.0712 0.3136
15.2800 5.0779 0.3398
15.3000 5.0846 0.3363
15.3200 5.0913 0.3110
15.3400 5.0980 0.3373
15.3600 5.1047 0.3306
15.3800 5.1113 0.3062
15.4000 5.1180 0.3417
15.4200 5.1246 0.3280
15.4400 5.1312 0.3076
15.4600 5.1379 0.3385
15.4800 5.1446 0.3236
15.5000 5.1513 0.3031
15.5200 5.1579 0.3476
15.5400 5.1646 0.3213
15.5600 5.1713 0.3001
15.5800 5.1780 0.3409
15.6000 5.1847 0.3202
15.6200 5.1913 0.3058
15.6400 5.1979 0.3416
15.6600 5.2046 0.3151
15.6800 5.2113 0.3126
15.7000 5.2180 0.3316
15.7200 5.2247 0.3101
15.7400 5.2314 0.3117
15.7600 5.2380 0.3340
15.7800 5.2446 0.3108
15.8000 5.2513 0.3116
15.8200 5.2579 0.3303
15.8400 5.2646 0.3082
15.8600 5.2713 0.3145
15.8800 5.2780 0.3258
15.9000 5.2847 0.3153
15.9200 5.2914 0.3148
15.9400 5.2980 0.3144
15.9600 5.3047 0.3111
15.9800 5.3113 0.3174
16.0000 5.3179 0.3159
16.0200 5.3246 0.3134
16.0400 5.3313 0.3123
16.0600 5.3380 0.3136
16.0800 5.3447 0.3098
16.1000 5.3514 0.3112
16.1200 5.3580 0.3123
16.1400 5.3646 0.3114
16.1600 5.3712 0.3089
16.1800 5.3778 0.3117
16.2000 5.3845 0.3089
16.2200 5.3913 0.3037
16.2400 5.3980 0.3151
16.2600 5.4046 0.3076
16.2800 5.4113 0.3015
16.3000 5.4180 0.3112
16.3200 5.4246 0.2987
16.3400 5.4313 0.3018
16.3600 5.4379 0.3186
16.3800 5.4446 0.2969
16.4000 5.4513 0.3003
16.4200 5.4580 0.3092
16.4400 5.4647 0.2985
16.4600 5.4714 0.2987
16.4800 5.4781 0.3088
16.5000 5.4847 0.2913
16.5200 5.4913 0.2962
16.5400 5.4979 0.3093
16.5600 5.5046 0.2925
16.5800 5.5113 0.2952
16.6000 5.5180 0.3012
16.6200 5.5247 0.2907
16.6400 5.5314 0.2975
16.6600 5.5380 0.2930
16.6800 5.5447 0.2953
16.7000 5.5512 0.2940
16.7200 5.5579 0.2964
16.7400 5.5646 0.2905
16.7600 5.5713 0.2891
16.7800 5.5780 0.2917
16.8000 5.5847 0.2931
16.8200 5.5913 0.2905
16.8400 5.5980 0.2915
16.8600 5.6047 0.2910
16.8800 5.6113 0.2868
16.9000 5.6179 0.2901
16.9200 5.6246 0.2948
16.9400 5.6313 0.2847
16.9600 5.6380 0.2850
16.9800 5.6446 0.2884
17.0000 5.6513 0.2864
17.0200 5.6580 0.2900
17.0400 5.6647 0.2802
17.0600 5.6713 0.2868
17.0800 5.6779 0.2906
17.1000 5.6846 0.2885
17.1200 5.6913 0.2786
17.1400 5.6980 0.2884
17.1600 5.7047 0.2825
17.1800 5.7114 0.2796
17.2000 5.7180 0.2895
17.2200 5.7247 0.2817
17.2400 5.7313 0.2805
17.2600 5.7379 0.2910
17.2800 5.7446 0.2740
17.3000 5.7513 0.2854
17.3200 5.7580 0.2855
17.3400 5.7647 0.2747
17.3600 5.7714 0.2819
17.3800 5.7780 0.2829
17.4000 5.7847 0.2778
17.4200 5.7913 0.2807
17.4400 5.7979 0.2853
17.4600 5.8046 0.2740
17.4800 5.8113 0.2783
17.5000 5.8180 0.2822
17.5200 5.8246 0.2733
17.5400 5.8313 0.2826
17.5600 5.8380 0.2821
17.5800 5.8447 0.2652
17.6000 5.8513 0.2845
17.6200 5.8579 0.2798
17.6400 5.8645 0.2723
17.6600 5.8712 0.2788
17.6800 5.8780 0.2752
17.7000 5.8846 0.2718
17.7200 5.8913 0.2772
17.7400 5.8980 0.2713
17.7600 5.9047 0.2730
17.7800 5.9113 0.2757
17.8000 5.9179 0.2703
17.8200 5.9246 0.2696
17.8400 5.9313 0.2758
17.8600 5.9381 0.2717
17.8800 5.9447 0.2730
17.9000 5.9514 0.2727
17.9200 5.9580 0.2715
17.9400 5.9647 0.2703
17.9600 5.9713 0.2698
17.9800 5.9779 0.2770
18.0000 5.9846 0.2656
18.0200 5.9913 0.2675
18.0400 5.9980 0.2745
18.0600 6.0047 0.2661
18.0800 6.0114 0.2695
18.1000 6.0181 0.2712
18.1200 6.0247 0.2653
18.1400 6.0313 0.2739
18.1600 6.0379 0.2651
18.1800 6.0445 0.2613
18.2000 6.0512 0.2712
18.2200 6.0579 0.2709
18.2400 6.0646 0.2519
18.2600 6.0713 0.2723
18.2800 6.0780 0.2664
18.3000 6.0847 0.2567
18.3200 6.0913 0.2699
18.3400 6.0979 0.2612
18.3600 6.1045 0.2636
18.3800 6.1112 0.2614
18.4000 6.1180 0.2587
18.4200 6.1246 0.2647
18.4400 6.1313 0.2610
18.4600 6.1380 0.2550
18.4800 6.1446 0.2568
18.5000 6.1513 0.2578
18.5200 6.1579 0.2587
18.5400 6.1646 0.2590
18.5600 6.1713 0.2533
18.5800 6.1780 0.2530
18.6000 6.1847 0.2601
18.6200 6.1914 0.2536
18.6400 6.1980 0.2583
18.6600 6.2047 0.2492
18.6800 6.2113 0.2484
18.7000 6.2179 0.2560
18.7200 6.2246 0.2504
18.7400 6.2313 0.2525
18.7600 6.2380 0.2561
18.7800 6.2447 0.2436
18.8000 6.2514 0.2528
18.8200 6.2580 0.2546
18.8400 6.2647 0.2435
18.8600 6.2713 0.2477
18.8800 6.2779 0.2525
18.9000 6.2845 0.2421
18.9200 6.2913 0.2512
18.9400 6.2980 0.2509
18.9600 6.3046 0.2402
18.9800 6.3113 0.2480
19.0000 6.3180 0.2487
19.0200 6.3247 0.2417
19.0400 6.3313 0.2401
19.0600 6.3379 0.2462
19.0800 6.3445 0.2453
19.1000 6.3512 0.2400
19.1200 6.3579 0.2379
19.1400 6.3646 0.2451
19.1600 6.3713 0.2382
19.1800 6.3780 0.2365
19.2000 6.3847 0.2428
19.2200 6.3913 0.2306
19.2400 6.3979 0.2358
19.2600 6.4046 0.2482
19.2800 6.4113 0.2289
19.3000 6.4180 0.2355
19.3200 6.4247 0.2435
19.3400 6.4314 0.2268
19.3600 6.4381 0.2396
19.3800 6.4447 0.2451
19.4000 6.4513 0.2208
19.4200 6.4579 0.2412
19.4400 6.4646 0.2430
19.4600 6.4713 0.2211
19.4800 6.4780 0.2379
19.5000 6.4847 0.2416
19.5200 6.4913 0.2198
19.5400 6.4980 0.2380
19.5600 6.5047 0.2394
19.5800 6.5113 0.2147
19.6000 6.5180 0.2413
19.6200 6.5246 0.2371
19.6400 6.5313 0.2202
19.6600 6.5380 0.2314
19.6800 6.5446 0.2367
19.7000 6.5513 0.2189
19.7200 6.5580 0.2336
19.7400 6.5647 0.2317
19.7600 6.5713 0.2173
19.7800 6.5779 0.2328
19.8000 6.5845 0.2311
19.8200 6.5912 0.2225
19.8400 6.5979 0.2314
19.8600 6.6047 0.2253
19.8800 6.6113 0.2182
19.9000 6.6180 0.2276
19.9200 6.6247 0.2289
19.9400 6.6313 0.2190
19.9600 6.6379 0.2293
19.9800 6.6446 0.2303
20.0000 6.6513 0.2157
20.0200 6.6580 0.2280
20.0400 6.6647 0.2264
20.0600 6.6713 0.2118
20.0800 6.6780 0.2241
20.1000 6.6847 0.2253
20.1200 6.6913 0.2103
20.1400 6.6980 0.2263
20.1600 6.7046 0.2200
20.1800 6.7113 0.2145
20.2000 6.7180 0.2224
20.2200 6.7247 0.2238
20.2400 6.7313 0.2125
20.2600 6.7381 0.2184
20.2800 6.7447 0.2182
20.3000 6.7513 0.2120
20.3200 6.7579 0.2188
20.3400 6.7646 0.2205
20.3600 6.7713 0.2075
20.3800 6.7780 0.2177
20.4000 6.7847 0.2169
20.4200 6.7914 0.2093
20.4400 6.7980 0.2149
20.4600 6.8047 0.2165
20.4800 6.8113 0.2073
20.5000 6.8179 0.2124
20.5200 6.8246 0.2132
20.5400 6.8313 0.2053
20.5600 6.8380 0.2119
20.5800 6.8446 0.2174
20.6000 6.8513 0.2092
20.6200 6.8580 0.2071
20.6400 6.8646 0.2133
20.6600 6.8713 0.2096
20.6800 6.8779 0.2053
20.7000 6.8846 0.2127
20.7200 6.8913 0.2122
20.7400 6.8980 0.1988
20.7600 6.9047 0.2096
20.7800 6.9114 0.2123
20.8000 6.9181 0.2054
20.8200 6.9247 0.2025
20.8400 6.9314 0.2141
20.8600 6.9380 0.2015
20.8800 6.9446 0.2087
20.9000 6.9513 0.2119
20.9200 6.9580 0.2010
20.9400 6.9647 0.2095
20.9600 6.9714 0.2132
20.9800 6.9780 0.2037
21.0000 6.9847 0.2067
21.0200 6.9913 0.2120
21.0400 6.9979 0.1999
21.0600 7.0046 0.2101
21.0800 7.0112 0.2107
21.1000 7.0179 0.2029
21.1200 7.0246 0.2111
21.1400 7.0313 0.2154
21.1600 7.0380 0.2012
21.1800 7.0447 0.2112
21.2000 7.0513 0.2105
21.2200 7.0579 0.2023
21.2400 7.0645 0.2100
21.2600 7.0712 0.2110
21.2800 7.0779 0.2028
21.3000 7.0847 0.2060
21.3200 7.0914 0.2078
21.3400 7.0980 0.2039
21.3600 7.1047 0.2044
21.3800 7.1113 0.2122
21.4000 7.1179 0.1977
21.4200 7.1246 0.2077
21.4400 7.1312 0.2081
21.4600 7.1380 0.1985
21.4800 7.1447 0.2032
21.5000 7.1513 0.2064
21.5200 7.1580 0.1988
21.5400 7.1647 0.2010
21.5600 7.1714 0.2064
21.5800 7.1780 0.2029
21.6000 7.1846 0.1988
21.6200 7.1913 0.2028
21.6400 7.1980 0.1991
21.6600 7.2047 0.1953
21.6800 7.2114 0.2059
21.7000 7.2180 0.2009
21.7200 7.2247 0.1900
21.7400 7.2314 0.2017
21.7600 7.2380 0.2075
21.7800 7.2446 0.1879
21.8000 7.2512 0.2047
21.8200 7.2579 0.2008
21.8400 7.2647 0.1859
21.8600 7.2714 0.2022
21.8800 7.2780 0.1997
21.9000 7.2847 0.1817
21.9200 7.2913 0.2077
21.9400 7.2979 0.1972
21.9600 7.3045 0.1847
21.9800 7.3112 0.2085
22.0000 7.3179 0.1956
22.0200 7.3246 0.1766
22.0400 7.3313 0.2095
22.0600 7.3380 0.1944
22.0800 7.3447 0.1786
22.1000 7.3513 0.2064
22.1200 7.3579 0.1865
22.1400 7.3646 0.1828
22.1600 7.3713 0.2082
22.1800 7.3780 0.1831
22.2000 7.3847 0.1836
22.2200 7.3914 0.2036
22.2400 7.3981 0.1790
22.2600 7.4047 0.1923
22.2800 7.4114 0.1954
22.3000 7.4180 0.1781
22.3200 7.4246 0.1900
22.3400 7.4312 0.1961
22.3600 7.4380 0.1746
22.3800 7.4447 0.1899
22.4000 7.4514 0.1913
22.4200 7.4581 0.1799
22.4400 7.4647 0.1871
22.4600 7.4714 0.1904
22.4800 7.4780 0.1803
22.5000 7.4846 0.1883
22.5200 7.4912 0.1837
22.5400 7.4980 0.1791
22.5600 7.5047 0.1834
22.5800 7.5113 0.1794
22.6000 7.5180 0.1820
22.6200 7.5247 0.1825
22.6400 7.5313 0.1810
22.6600 7.5380 0.1790
22.6800 7.5446 0.1759
22.7000 7.5512 0.1827
22.7200 7.5579 0.1807
22.7400 7.5646 0.1727
22.7600 7.5713 0.1801
22.7800 7.5780 0.1797
22.8000 7.5846 0.1727
22.8200 7.5913 0.1784
22.8400 7.5979 0.1767
22.8600 7.6046 0.1689
22.8800 7.6112 0.1835
22.9000 7.6180 0.1676
22.9200 7.6247 0.1669
22.9400 7.6314 0.1768
22.9600 7.6381 0.1693
22.9800 7.6447 0.1642
23.0000 7.6513 0.1772
23.0200 7.6580 0.1624
23.0400 7.6646 0.1700
23.0600 7.6713 0.1773
23.0800 7.6780 0.1612
23.1000 7.6847 0.1702
23.1200 7.6914 0.1720
23.1400 7.6980 0.1567
23.1600 7.7047 0.1720
23.1800 7.7113 0.1682
23.2000 7.7180 0.1570
23.2200 7.7246 0.1708
23.2400 7.7312 0.1636
23.2600 7.7379 0.1587
23.2800 7.7446 0.1675
23.3000 7.7513 0.1583
23.3200 7.7580 0.1560
23.3400 7.7647 0.1662
23.3600 7.7713 0.1539
23.3800 7.7779 0.1593
23.4000 7.7845 0.1591
23.4200 7.7912 0.1580
23.4400 7.7979 0.1566
23.4600 7.8046 0.1551
23.4800 7.8113 0.1559
23.5000 7.8180 0.1601
23.5200 7.8246 0.1471
23.5400 7.8313 0.1576
23.5600 7.8380 0.1598
23.5800 7.8446 0.1494
23.6000 7.8513 0.1526
23.6200 7.8580 0.1597
23.6400 7.8646 0.1414
23.6600 7.8713 0.1540
23.6800 7.8780 0.1620
23.7000 7.8847 0.1359
23.7200 7.8914 0.1511
23.7400 7.8980 0.1609
23.7600 7.9046 0.1364
23.7800 7.9112 0.1518
23.8000 7.9179 0.1557
23.8200 7.9246 0.1366
23.8400 7.9313 0.1502
23.8600 7.9380 0.1512
23.8800 7.9447 0.1418
23.9000 7.9514 0.1437
23.9200 7.9580 0.1548
23.9400 7.9646 0.1414
23.9600 7.9712 0.1451
23.9800 7.9779 0.1496
24.0000 7.9847 0.1440
24.0200 7.9914 0.1434
24.0400 7.9980 0.1506
24.0600 8.0047 0.1449
24.0800 8.0113 0.1409
24.1000 8.0180 0.1414
24.1200 8.0246 0.1505
24.1400 8.0312 0.1387
24.1600 8.0379 0.1488
24.1800 8.0446 0.1430
24.2000 8.0513 0.1331
24.2200 8.0579 0.1508
24.2400 8.0646 0.1447
24.2600 8.0713 0.1364
24.2800 8.0779 0.1465
24.3000 8.0846 0.1438
24.3200 8.0912 0.1316
24.3400 8.0979 0.1511
24.3600 8.1046 0.1402
24.3800 8.1114 0.1300
24.4000 8.1181 0.1533
24.4200 8.1248 0.1366
24.4400 8.1314 0.1296
24.4600 8.1380 0.1564
24.4800 8.1446 0.1366
24.5000 8.1513 0.1344
24.5200 8.1580 0.1532
24.5400 8.1647 0.1324
24.5600 8.1714 0.1300
24.5800 8.1780 0.1587
24.6000 8.1847 0.1317
24.6200 8.1914 0.1326
24.6400 8.1980 0.1525
24.6600 8.2046 0.1261
24.6800 8.2112 0.1390
24.7000 8.2179 0.1558
24.7200 8.2246 0.1252
24.7400 8.2313 0.1361
24.7600 8.2380 0.1539
24.7800 8.2447 0.1272
24.8000 8.2514 0.1345
24.8200 8.2580 0.1477
24.8400 8.2646 0.1325
24.8600 8.2712 0.1373
24.8800 8.2779 0.1464
24.9000 8.2846 0.1260
24.9200 8.2913 0.1405
24.9400 8.2980 0.1475
24.9600 8.3047 0.1290
24.9800 8.3113 0.1355
25.0000 8.3180 0.1433
25.0200 8.3246 0.1308
25.0400 8.3312 0.1358
25.0600 8.3379 0.1420
25.0800 8.3447 0.1359
25.1000 8.3514 0.1300
25.1200 8.3580 0.1416
25.1400 8.3647 0.1345
25.1600 8.3714 0.1332
25.1800 8.3780 0.1381
25.2000 8.3846 0.1334
25.2200 8.3913 0.1326
25.2400 8.3980 0.1404
25.2600 8.4047 0.1320
25.2800 8.4113 0.1301
25.3000 8.4180 0.1397
25.3200 8.4247 0.1299
25.3400 8.4314 0.1300
25.3600 8.4380 0.1370
25.3800 8.4446 0.1300
25.4000 8.4512 0.1321
25.4200 8.4579 0.1440
25.4400 8.4646 0.1290
25.4600 8.4713 0.1299
25.4800 8.4780 0.1421
25.5000 8.4847 0.1254
25.5200 8.4914 0.1273
25.5400 8.4980 0.1453
25.5600 8.5046 0.1229
25.5800 8.5112 0.1339
25.6000 8.5179 0.1419
25.6200 8.5246 0.1213
25.6400 8.5313 0.1327
25.6600 8.5380 0.1417
25.6800 8.5447 0.1206
25.7000 8.5513 0.1332
25.7200 8.5580 0.1329
25.7400 8.5646 0.1234
25.7600 8.5713 0.1362
25.7800 8.5779 0.1345
25.8000 8.5846 0.1218
25.8200 8.5913 0.1319
25.8400 8.5980 0.1323
25.8600 8.6047 0.1225
25.8800 8.6114 0.1279
25.9000 8.6180 0.1314
25.9200 8.6246 0.1262
25.9400 8.6312 0.1236
25.9600 8.6379 0.1298
25.9800 8.6446 0.1246
26.0000 8.6514 0.1202
26.0200 8.6581 0.1284
26.0400 8.6647 0.1258
26.0600 8.6714 0.1141
26.0800 8.6780 0.1322
26.1000 8.6846 0.1230
26.1200 8.6913 0.1175
26.1400 8.6980 0.1322
26.1600 8.7047 0.1186
26.1800 8.7113 0.1135
26.2000 8.7180 0.1312
26.2200 8.7247 0.1146
26.2400 8.7313 0.1168
26.2600 8.7380 0.1292
26.2800 8.7446 0.1147
26.3000 8.7512 0.1171
26.3200 8.7579 0.1281
26.3400 8.7646 0.1146
26.3600 8.7713 0.1147
26.3800 8.7780 0.1194
26.4000 8.7847 0.1115
26.4200 8.7914 0.1185
26.4400 8.7980 0.1188
26.4600 8.8046 0.1060
26.4800 8.8112 0.1119
26.5000 8.8179 0.1176
26.5200 8.8246 0.1153
26.5400 8.8314 0.1135
26.5600 8.8381 0.1119
26.5800 8.8447 0.1151
26.6000 8.8514 0.1046
26.6200 8.8580 0.1114
26.6400 8.8646 0.1176
26.6600 8.8712 0.1082
26.6800 8.8779 0.1039
26.7000 8.8847 0.1163
26.7200 8.8914 0.0973
26.7400 8.8980 0.1087
26.7600 8.9047 0.1152
26.7800 8.9114 0.0965
26.8000 8.9180 0.1071
26.8200 8.9246 0.1161
26.8400 8.9312 0.0934
26.8600 8.9379 0.1083
26.8800 8.9446 0.1128
26.9000 8.9513 0.0899
26.9200 8.9580 0.1063
26.9400 8.9647 0.1115
26.9600 8.9714 0.0890
26.9800 8.9780 0.1053
27.0000 8.9846 0.1081
27.0200 8.9912 0.0882
27.0400 8.9979 0.1111
27.0600 9.0046 0.1034
27.0800 9.0113 0.0892
27.1000 9.0180 0.1040
27.1200 9.0247 0.0990
27.1400 9.0313 0.0880
27.1600 9.0380 0.1087
27.1800 9.0446 0.0931
27.2000 9.0512 0.0908
27.2200 9.0579 0.1063
27.2400 9.0646 0.0896
27.2600 9.0713 0.0878
27.2800 9.0780 0.1070
27.3000 9.0847 0.0866
27.3200 9.0914 0.0948
27.3400 9.0980 0.0977
27.3600 9.1046 0.0885
27.3800 9.1113 0.0936
27.4000 9.1179 0.0901
27.4200 9.1246 0.0873
27.4400 9.1314 0.0941
27.4600 9.1380 0.0827
27.4800 9.1447 0.0907
27.5000 9.1514 0.0936
27.5200 9.1580 0.0830
27.5400 9.1646 0.0897
27.5600 9.1712 0.0916
27.5800 9.1779 0.0826
27.6000 9.1846 0.0960
27.6200 9.1913 0.0853
27.6400 9.1980 0.0756
27.6600 9.2047 0.0993
27.6800 9.2113 0.0747
27.7000 9.2180 0.0767
27.7200 9.2246 0.0937
27.7400 9.2312 0.0775
27.7600 9.2379 0.0773
27.7800 9.2446 0.0943
27.8000 9.2513 0.0731
27.8200 9.2580 0.0750
27.8400 9.2646 0.0934
27.8600 9.2713 0.0715
27.8800 9.2780 0.0729
27.9000 9.2846 0.0922
27.9200 9.2913 0.0688
27.9400 9.2979 0.0747
27.9600 9.3046 0.0861
27.9800 9.3113 0.0708
28.0000 9.3180 0.0743
28.0200 9.3247 0.0871
28.0400 9.3314 0.0704
28.0600 9.3381 0.0687
28.0800 9.3447 0.0797
28.1000 9.3512 0.0717
28.1200 9.3579 0.0738
28.1400 9.3646 0.0790
28.1600 9.3713 0.0675
28.1800 9.3780 0.0675
28.2000 9.3847 0.0768
28.2200 9.3914 0.0688
28.2400 9.3980 0.0721
28.2600 9.4046 0.0713
28.2800 9.4113 0.0714
28.3000 9.4179 0.0673
28.3200 9.4246 0.0734
28.3400 9.4313 0.0683
28.3600 9.4380 0.0606
28.3800 9.4447 0.0713
28.4000 9.4514 0.0735
28.4200 9.4580 0.0567
28.4400 9.4646 0.0745
28.4600 9.4712 0.0711
28.4800 9.4778 0.0558
28.5000 9.4845 0.0699
28.5200 9.4913 0.0709
28.5400 9.4980 0.0501
28.5600 9.5046 0.0738
28.5800 9.5113 0.0622
28.6000 9.5180 0.0500
28.6200 9.5246 0.0789
28.6400 9.5312 0.0603
28.6600 9.5379 0.0533
28.6800 9.5446 0.0732
28.7000 9.5513 0.0570
28.7200 9.5580 0.0507
28.7400 9.5647 0.0749
28.7600 9.5714 0.0508
28.7800 9.5780 0.0541
28.8000 9.5847 0.0716
28.8200 9.5913 0.0516
28.8400 9.5980 0.0601
28.8600 9.6046 0.0684
28.8800 9.6113 0.0451
28.9000 9.6180 0.0606
28.9200 9.6247 0.0626
28.9400 9.6314 0.0489
28.9600 9.6380 0.0589
28.9800 9.6446 0.0612
29.0000 9.6512 0.0473
29.0200 9.6579 0.0589
29.0400 9.6645 0.0649
29.0600 9.6713 0.0496
29.0800 9.6780 0.0569
29.1000 9.6847 0.0607
29.1200 9.6913 0.0464
29.1400 9.6980 0.0577
29.1600 9.7046 0.0594
29.1800 9.7112 0.0492
29.2000 9.7179 0.0563
29.2200 9.7246 0.0571
29.2400 9.7313 0.0500
29.2600 9.7380 0.0530
29.2800 9.7447 0.0592
29.3000 9.7513 0.0493
29.3200 9.7580 0.0547
29.3400 9.7647 0.0538
29.3600 9.7713 0.0503
29.3800 9.7779 0.0520
29.4000 9.7846 0.0544
29.4200 9.7913 0.0450
29.4400 9.7980 0.0525
29.4600 9.8047 0.0528
29.4800 9.8114 0.0475
29.5000 9.8181 0.0477
29.5200 9.8247 0.0525
29.5400 9.8313 0.0429
29.5600 9.8379 0.0521
29.5800 9.8446 0.0494
29.6000 9.8513 0.0460
29.6200 9.8580 0.0496
29.6400 9.8647 0.0479
29.6600 9.8714 0.0511
29.6800 9.8780 0.0517
29.7000 9.8846 0.0454
29.7200 9.8912 0.0503
29.7400 9.8979 0.0505
29.7600 9.9046 0.0407
29.7800 9.9113 0.0503
29.8000 9.9180 0.0429
29.8200 9.9246 0.0393
29.8400 9.9313 0.0502
29.8600 9.9380 0.0425
29.8800 9.9446 0.0426
29.9000 9.9513 0.0530
29.9200 9.9579 0.0355
29.9400 9.9646 0.0438
29.9600 9.9713 0.0496
29.9800 9.9779 0.0356
30.0000 9.9846 0.0394
30.0200 9.9913 0.0472
30.0400 9.9980 0.0318
30.0600 10.0047 0.0464
30.0800 10.0113 0.0437
30.1000 10.0179 0.0314
30.1200 10.0246 0.0458
30.1400 10.0313 0.0450
30.1600 10.0380 0.0318
30.1800 10.0447 0.0481
30.2000 10.0514 0.0383
30.2200 10.0580 0.0292
30.2400 10.0647 0.0444
30.2600 10.0713 0.0368
30.2800 10.0779 0.0351
30.3000 10.0846 0.0404
30.3200 10.0913 0.0328
30.3400 10.0980 0.0362
30.3600 10.1047 0.0421
30.3800 10.1114 0.0335
30.4000 10.1180 0.0382
30.4200 10.1247 0.0338
30.4400 10.1313 0.0348
30.4600 10.1379 0.0375
30.4800 10.1446 0.0343
30.5000 10.1513 0.0309
30.5200 10.1580 0.0397
30.5400 10.1647 0.0315
30.5600 10.1714 0.0314
30.5800 10.1781 0.0365
30.6000 10.1847 0.0278
30.6200 10.1912 0.0283
30.6400 10.1978 0.0419
30.6600 10.2045 0.0261
30.6800 10.2112 0.0269
30.7000 10.2180 0.0338
30.7200 10.2246 0.0223
30.7400 10.2313 0.0317
30.7600 10.2380 0.0342
30.7800 10.2446 0.0178
30.8000 10.2513 0.0266
30.8200 10.2579 0.0371
30.8400 10.2646 0.0220
30.8600 10.2713 0.0250
30.8800 10.2780 0.0318
30.9000 10.2847 0.0234
30.9200 10.2914 0.0221
30.9400 10.2981 0.0313
30.9600 10.3047 0.0192
30.9800 10.3113 0.0216
31.0000 10.3179 0.0276
31.0200 10.3246 0.0216
31.0400 10.3313 0.0220
31.0600 10.3380 0.0288
31.0800 10.3447 0.0217
31.1000 10.3514 0.0191
31.1200 10.3580 0.0228
31.1400 10.3647 0.0244
31.1600 10.3713 0.0128
31.1800 10.3779 0.0278
31.2000 10.3846 0.0185
31.2200 10.3913 0.0129
31.2400 10.3980 0.0293
31.2600 10.4047 0.0201
31.2800 10.4113 0.0117
31.3000 10.4180 0.0276
31.3200 10.4246 0.0150
31.3400 10.4313 0.0126
31.3600 10.4379 0.0305
31.3800 10.4446 0.0166
31.4000 10.4513 0.0132
31.4200 10.4580 0.0264
31.4400 10.4646 0.0166
31.4600 10.4713 0.0152
31.4800 10.4780 0.0273
31.5000 10.4847 0.0131
31.5200 10.4913 0.0146
31.5400 10.4979 0.0274
31.5600 10.5045 0.0162
31.5800 10.5112 0.0065
31.6000 10.5180 0.0303
31.6200 10.5247 0.0177
31.6400 10.5314 0.0077
31.6600 10.5380 0.0293
31.6800 10.5447 0.0148
31.7000 10.5513 0.0034
31.7200 10.5579 0.0329
31.7400 10.5646 0.0145
31.7600 10.5713 0.0027
31.7800 10.5780 0.0307
31.8000 10.5847 0.0116
31.8200 10.5914 0.0032
31.8400 10.5980 0.0322
31.8600 10.6047 0.0087
31.8800 10.6113 0.0053
31.9000 10.6179 0.0350
31.9200 10.6246 0.0120
31.9400 10.6313 0.0043
31.9600 10.6380 0.0276
31.9800 10.6446 0.0131
32.0000 10.6513 0.0040
32.0200 10.6580 0.0305
32.0400 10.6647 0.0103
32.0600 10.6713 0.0020
32.0800 10.6779 0.0282
32.1000 10.6845 0.0150
32.1200 10.6912 -0.0017
32.1400 10.6979 0.0263
32.1600 10.7046 0.0072
32.1800 10.7113 0.0069
32.2000 10.7180 0.0272
32.2200 10.7247 0.0050
32.2400 10.7313 0.0004
32.2600 10.7379 0.0300
32.2800 10.7446 0.0036
32.3000 10.7513 0.0016
32.3200 10.7580 0.0260
32.3400 10.7647 -0.0005
32.3600 10.7714 0.0007
32.3800 10.7780 0.0299
32.4000 10.7847 0.0014
32.4200 10.7913 0.0001
32.4400 10.7979 0.0229
32.4600 10.8046 -0.0026
32.4800 10.8113 0.0029
32.5000 10.8180 0.0181
32.5200 10.8247 -0.0013
32.5400 10.8314 0.0019
32.5600 10.8381 0.0146
32.5800 10.8447 -0.0043
32.6000 10.8513 0.0061
32.6200 10.8579 0.0090
32.6400 10.8646 -0.0010
32.6600 10.8712 0.0071
32.6800 10.8780 0.0037
32.7000 10.8847 -0.0041
32.7200 10.8914 0.0106
32.7400 10.8980 -0.0044
32.7600 10.9047 -0.0002
32.7800 10.9113 0.0090
32.8000 10.9179 -0.0011
32.8200 10.9245 -0.0019
32.8400 10.9312 0.0046
32.8600 10.9380 -0.0071
32.8800 10.9446 -0.0010
32.9000 10.9513 0.0047
32.9200 10.9580 -0.0065
32.9400 10.9646 0.0002
32.9600 10.9713 0.0039
32.9800 10.9779 -0.0087
33.0000 10.9846 0.0005
33.0200 10.9913 0.0003
33.0400 10.9980 -0.0121
33.0600 11.0047 0.0033
33.0800 11.0114 -0.0030
33.1000 11.0181 -0.0086
33.1200 11.0247 0.0010
33.1400 11.0313 -0.0072
33.1600 11.0379 -0.0121
33.1800 11.0446 0.0061
33.2000 11.0513 -0.0095
33.2200 11.0580 -0.0143
33.2400 11.0647 0.0018
33.2600 11.0714 -0.0069
33.2800 11.0781 -0.0172
33.3000 11.0847 0.0060
33.3200 11.0913 -0.0111
33.3400 11.0979 -0.0197
33.3600 11.1045 0.0051
33.3800 11.1112 -0.0068
33.4000 11.1180 -0.0254
33.4200 11.1246 0.0022
33.4400 11.1313 -0.0133
33.4600 11.1380 -0.0182
33.4800 11.1447 -0.0001
33.5000 11.1513 -0.0146
33.5200 11.1579 -0.0197
33.5400 11.1645 0.0012
33.5600 11.1712 -0.0164
33.5800 11.1779 -0.0187
33.6000 11.1846 0.0017
33.6200 11.1913 -0.0205
33.6400 11.1980 -0.0180
33.6600 11.2047 -0.0051
33.6800 11.2114 -0.0196
33.7000 11.2180 -0.0151
33.7200 11.2246 -0.0063
33.7400 11.2313 -0.0233
33.7600 11.2380 -0.0131
33.7800 11.2447 -0.0105
33.8000 11.2514 -0.0248
33.8200 11.2580 -0.0158
33.8400 11.2647 -0.0090
33.8600 11.2713 -0.0277
33.8800 11.2779 -0.0130
33.9000 11.2846 -0.0096
33.9200 11.2913 -0.0258
33.9400 11.2980 -0.0135
33.9600 11.3047 -0.0135
33.9800 11.3113 -0.0260
34.0000 11.3180 -0.0153
34.0200 11.3247 -0.0164
34.0400 11.3314 -0.0254
34.0600 11.3380 -0.0144
34.0800 11.3446 -0.0123
34.1000 11.3513 -0.0273
34.1200 11.3580 -0.0211
34.1400 11.3646 -0.0129
34.1600 11.3713 -0.0280
34.1800 11.3780 -0.0200
34.2000 11.3847 -0.0151
34.2200 11.3913 -0.0299
34.2400 11.3979 -0.0224
34.2600 11.4045 -0.0131
34.2800 11.4112 -0.0300
34.3000 11.4179 -0.0169
34.3200 11.4246 -0.0171
34.3400 11.4313 -0.0311
34.3600 11.4380 -0.0176
34.3800 11.4447 -0.0189
34.4000 11.4513 -0.0325
34.4200 11.4579 -0.0160
34.4400 11.4646 -0.0242
34.4600 11.4713 -0.0288
34.4800 11.4780 -0.0123
34.5000 11.4847 -0.0306
34.5200 11.4913 -0.0272
34.5400 11.4980 -0.0139
34.5600 11.5047 -0.0359
34.5800 11.5114 -0.0257
34.6000 11.5180 -0.0137
34.6200 11.5246 -0.0404
34.6400 11.5313 -0.0189
34.6600 11.5380 -0.0239
34.6800 11.5447 -0.0396
34.7000 11.5513 -0.0174
34.7200 11.5580 -0.0273
34.7400 11.5647 -0.0410
34.7600 11.5714 -0.0172
34.7800 11.5779 -0.0306
34.8000 11.5846 -0.0337
34.8200 11.5913 -0.0231
34.8400 11.5980 -0.0333
34.8600 11.6047 -0.0336
34.8800 11.6113 -0.0199
34.9000 11.6180 -0.0401
34.9200 11.6247 -0.0311
34.9400 11.6313 -0.0254
34.9600 11.6379 -0.0416
34.9800 11.6445 -0.0276
35.0000 11.6512 -0.0247
35.0200 11.6579 -0.0447
35.0400 11.6646 -0.0270
35.0600 11.6713 -0.0261
35.0800 11.6780 -0.0445
35.1000 11.6846 -0.0279
35.1200 11.6913 -0.0305
35.1400 11.6979 -0.0447
35.1600 11.7046 -0.0274
35.1800 11.7112 -0.0338
35.2000 11.7180 -0.0456
35.2200 11.7247 -0.0294
35.2400 11.7314 -0.0378
35.2600 11.7381 -0.0448
35.2800 11.7447 -0.0347
35.3000 11.7514 -0.0378
35.3200 11.7580 -0.0444
35.3400 11.7646 -0.0334
35.3600 11.7713 -0.0434
35.3800 11.7780 -0.0390
35.4000 11.7847 -0.0408
35.4200 11.7914 -0.0399
35.4400 11.7980 -0.0408
35.4600 11.8047 -0.0416
35.4800 11.8113 -0.0443
35.5000 11.8179 -0.0402
35.5200 11.8246 -0.0469
35.5400 11.8312 -0.0376
35.5600 11.8379 -0.0427
35.5800 11.8446 -0.0485
35.6000 11.8513 -0.0346
35.6200 11.8580 -0.0452
35.6400 11.8647 -0.0533
35.6600 11.8713 -0.0346
35.6800 11.8779 -0.0505
35.7000 11.8845 -0.0539
35.7200 11.8912 -0.0328
35.7400 11.8979 -0.0565
35.7600 11.9047 -0.0502
35.7800 11.9113 -0.0310
35.8000 11.9180 -0.0593
35.8200 11.9247 -0.0545
35.8400 11.9313 -0.0302
35.8600 11.9379 -0.0605
35.8800 11.9446 -0.0534
35.9000 11.9512 -0.0291
35.9200 11.9580 -0.0634
35.9400 11.9647 -0.0560
35.9600 11.9713 -0.0283
35.9800 11.9780 -0.0671
36.0000 11.9847 -0.0502
36.0200 11.9913 -0.0380
36.0400 11.9980 -0.0697
36.0600 12.0046 -0.0494
36.0800 12.0113 -0.0352
36.1000 12.0180 -0.0713
36.1200 12.0247 -0.0521
36.1400 12.0314 -0.0367
36.1600 12.0381 -0.0703
36.1800 12.0447 -0.0505
36.2000 12.0514 -0.0394
36.2200 12.0580 -0.0678
36.2400 12.0646 -0.0518
36.2600 12.0712 -0.0466
36.2800 12.0779 -0.0612
36.3000 12.0847 -0.0533
36.3200 12.0913 -0.0542
36.3400 12.0980 -0.0611
36.3600 12.1047 -0.0553
36.3800 12.1113 -0.0507
36.4000 12.1179 -0.0600
36.4200 12.1245 -0.0572
36.4400 12.1312 -0.0529
36.4600 12.1379 -0.0525
36.4800 12.1446 -0.0644
36.5000 12.1513 -0.0509
36.5200 12.1580 -0.0517
36.5400 12.1646 -0.0696
36.5600 12.1713 -0.0538
36.5800 12.1780 -0.0516
36.6000 12.1846 -0.0666
36.6200 12.1913 -0.0492
36.6400 12.1980 -0.0582
36.6600 12.2047 -0.0659
36.6800 12.2114 -0.0506
36.7000 12.2181 -0.0626
36.7200 12.2247 -0.0648
36.7400 12.2314 -0.0507
36.7600 12.2380 -0.0651
36.7800 12.2446 -0.0672
36.8000 12.2512 -0.0474
36.8200 12.2579 -0.0661
36.8400 12.2647 -0.0657
36.8600 12.2714 -0.0501
36.8800 12.2781 -0.0647
36.9000 12.2847 -0.0680
36.9200 12.2913 -0.0533
36.9400 12.2979 -0.0674
36.9600 12.3046 -0.0631
36.9800 12.3112 -0.0560
37.0000 12.3179 -0.0655
37.0200 12.3246 -0.0735
37.0400 12.3313 -0.0575
37.0600 12.3380 -0.0652
37.0800 12.3447 -0.0650
37.1000 12.3514 -0.0619
37.1200 12.3580 -0.0660
37.1400 12.3646 -0.0703
37.1600 12.3712 -0.0574
37.1800 12.3779 -0.0690
37.2000 12.3846 -0.0736
37.2200 12.3913 -0.0585
37.2400 12.3980 -0.0702
37.2600 12.4046 -0.0744
37.2800 12.4113 -0.0622
37.3000 12.4179 -0.0716
37.3200 12.4246 -0.0730
37.3400 12.4312 -0.0589
37.3600 12.4380 -0.0780
37.3800 12.4447 -0.0767
37.4000 12.4514 -0.0613
37.4200 12.4580 -0.0789
37.4400 12.4647 -0.0794
37.4600 12.4714 -0.0584
37.4800 12.4780 -0.0819
37.5000 12.4846 -0.0780
37.5200 12.4913 -0.0614
37.5400 12.4980 -0.0797
37.5600 12.5047 -0.0818
37.5800 12.5114 -0.0611
37.6000 12.5180 -0.0829
37.6200 12.5247 -0.0844
37.6400 12.5314 -0.0615
37.6600 12.5380 -0.0876
37.6800 12.5446 -0.0885
37.7000 12.5512 -0.0598
37.7200 12.5579 -0.0871
37.7400 12.5646 -0.0874
37.7600 12.5713 -0.0586
37.7800 12.5780 -0.0887
37.8000 12.5847 -0.0871
37.8200 12.5913 -0.0598
37.8400 12.5980 -0.0970
37.8600 12.6046 -0.0806
37.8800 12.6112 -0.0627
37.9000 12.6179 -0.1026
37.9200 12.6246 -0.0762
37.9400 12.6313 -0.0682
37.9600 12.6380 -0.1062
37.9800 12.6447 -0.0773
38.0000 12.6513 -0.0744
38.0200 12.6580 -0.1046
38.0400 12.6646 -0.0729
38.0600 12.6712 -0.0796
38.0800 12.6779 -0.1026
38.1000 12.6846 -0.0791
38.1200 12.6913 -0.0833
38.1400 12.6980 -0.0989
38.1600 12.7047 -0.0764
38.1800 12.7114 -0.0938
38.2000 12.7180 -0.0964
38.2200 12.7246 -0.0849
38.2400 12.7312 -0.0935
38.2600 12.7379 -0.0917
38.2800 12.7446 -0.0851
38.3000 12.7513 -0.0945
38.3200 12.7580 -0.0960
38.3400 12.7647 -0.0917
38.3600 12.7714 -0.0934
38.3800 12.7780 -0.0955
38.4000 12.7846 -0.0939
38.4200 12.7912 -0.0857
38.4400 12.7979 -0.1010
38.4600 12.8047 -0.0949
38.4800 12.8114 -0.0913
38.5000 12.8180 -0.0989
38.5200 12.8247 -0.0968
38.5400 12.8313 -0.0957
38.5600 12.8380 -0.1061
38.5800 12.8446 -0.0947
38.6000 12.8512 -0.0968
38.6200 12.8579 -0.1055
38.6400 12.8646 -0.0945
38.6600 12.8713 -0.0996
38.6800 12.8780 -0.1124
38.7000 12.8846 -0.0899
38.7200 12.8913 -0.1032
38.7400 12.8980 -0.1113
38.7600 12.9046 -0.0970
38.7800 12.9112 -0.1061
38.8000 12.9179 -0.1110
38.8200 12.9246 -0.0971
38.8400 12.9314 -0.1082
38.8600 12.9380 -0.1080
38.8800 12.9447 -0.1000
38.9000 12.9514 -0.1136
38.9200 12.9580 -0.1053
38.9400 12.9646 -0.0987
38.9600 12.9712 -0.1151
38.9800 12.9779 -0.1085
39.0000 12.9847 -0.0996
39.0200 12.9914 -0.1160
39.0400 12.9981 -0.1036
39.0600 13.0047 -0.1083
39.0800 13.0114 -0.1163
39.1000 13.0180 -0.1060
39.1200 13.0246 -0.1090
39.1400 13.0312 -0.1154
39.1600 13.0379 -0.1023
39.1800 13.0446 -0.1162
39.2000 13.0513 -0.1156
39.2200 13.0580 -0.1061
39.2400 13.0647 -0.1103
39.2600 13.0713 -0.1210
39.2800 13.0780 -0.1127
39.3000 13.0846 -0.1107
39.3200 13.0912 -0.1149
39.3400 13.0979 -0.1155
39.3600 13.1046 -0.1122
39.3800 13.1113 -0.1167
39.4000 13.1180 -0.1192
39.4200 13.1247 -0.1174
39.4400 13.1313 -0.1140
39.4600 13.1380 -0.1179
39.4800 13.1446 -0.1152
39.5000 13.1512 -0.1209
39.5200 13.1579 -0.1223
39.5400 13.1647 -0.1124
39.5600 13.1714 -0.1214
39.5800 13.1780 -0.1263
39.6000 13.1847 -0.1130
39.6200 13.1914 -0.1196
39.6400 13.1980 -0.1244
39.6600 13.2046 -0.1117
39.6800 13.2113 -0.1248
39.7000 13.2179 -0.1225
39.7200 13.2246 -0.1125
39.7400 13.2313 -0.1283
39.7600 13.2380 -0.1267
39.7800 13.2447 -0.1072
39.8000 13.2514 -0.1316
39.8200 13.2580 -0.1297
39.8400 13.2646 -0.1069
39.8600 13.2712 -0.1297
39.8800 13.2779 -0.1300
39.9000 13.2846 -0.1078
39.9200 13.2913 -0.1303
39.9400 13.2980 -0.1254
39.9600 13.3047 -0.1149
39.9800 13.3114 -0.1395
40.0000 13.3180 -0.1180
40.0200 13.3246 -0.1065
40.0400 13.3312 -0.1410
40.0600 13.3379 -0.1226
40.0800 13.3446 -0.1096
40.1000 13.3513 -0.1412
40.1200 13.3580 -0.1200
40.1400 13.3646 -0.1105
40.1600 13.3713 -0.1371
40.1800 13.3780 -0.1206
40.2000 13.3846 -0.1150
40.2200 13.3913 -0.1382
40.2400 13.3979 -0.1145
40.2600 13.4046 -0.1248
40.2800 13.4113 -0.1398
40.3000 13.4180 -0.1146
40.3200 13.4247 -0.1213
40.3400 13.4314 -0.1378
40.3600 13.4380 -0.1192
40.3800 13.4446 -0.1274
40.4000 13.4512 -0.1323
40.4200 13.4579 -0.1192
40.4400 13.4646 -0.1290
40.4600 13.4713 -0.1281
40.4800 13.4780 -0.1233
40.5000 13.4847 -0.1325
40.5200 13.4914 -0.1263
40.5400 13.4980 -0.1194
40.5600 13.5046 -0.1326
40.5800 13.5113 -0.1267
40.6000 13.5179 -0.1237
40.6200 13.5246 -0.1305
40.6400 13.5313 -0.1323
40.6600 13.5380 -0.1253
40.6800 13.5446 -0.1267
40.7000 13.5513 -0.1299
40.7200 13.5580 -0.1327
40.7400 13.5646 -0.1268
40.7600 13.5712 -0.1333
40.7800 13.5779 -0.1316
40.8000 13.5846 -0.1287
40.8200 13.5913 -0.1315
40.8400 13.5980 -0.1327
40.8600 13.6047 -0.1278
40.8800 13.6114 -0.1381
40.9000 13.6180 -0.1350
40.9200 13.6246 -0.1269
40.9400 13.6312 -0.1361
40.9600 13.6379 -0.1383
40.9800 13.6446 -0.1277
41.0000 13.6514 -0.1406
41.0200 13.6581 -0.1351
41.0400 13.6647 -0.1301
41.0600 13.6714 -0.1460
41.0800 13.6781 -0.1362
41.1000 13.6846 -0.1299
41.1200 13.6913 -0.1428
41.1400 13.6979 -0.1419
41.1600 13.7046 -0.1290
41.1800 13.7113 -0.1470
41.2000 13.7180 -0.1410
41.2200 13.7247 -0.1306
41.2400 13.7314 -0.1419
41.2600 13.7380 -0.1474
41.2800 13.7446 -0.1292
41.3000 13.7512 -0.1418
41.3200 13.7579 -0.1461
41.3400 13.7646 -0.1341
41.3600 13.7713 -0.1398
41.3800 13.7780 -0.1529
41.4000 13.7847 -0.1328
41.4200 13.7913 -0.1407
41.4400 13.7980 -0.1510
41.4600 13.8046 -0.1352
41.4800 13.8112 -0.1406
41.5000 13.8179 -0.1512
41.5200 13.8246 -0.1317
41.5400 13.8313 -0.1490
41.5600 13.8380 -0.1518
41.5800 13.8447 -0.1318
41.6000 13.8513 -0.1502
41.6200 13.8580 -0.1519
41.6400 13.8646 -0.1356
41.6600 13.8712 -0.1493
41.6800 13.8779 -0.1554
41.7000 13.8846 -0.1350
41.7200 13.8913 -0.1490
41.7400 13.8980 -0.1512
41.7600 13.9047 -0.1407
41.7800 13.9114 -0.1462
41.8000 13.9181 -0.1507
41.8200 13.9247 -0.1454
41.8400 13.9313 -0.1448
41.8600 13.9379 -0.1500
41.8800 13.9446 -0.1501
41.9000 13.9513 -0.1436
41.9200 13.9580 -0.1536
41.9400 13.9647 -0.1496
41.9600 13.9714 -0.1459
41.9800 13.9781 -0.1579
42.0000 13.9846 -0.1544
42.0200 13.9912 -0.1389
42.0400 13.9979 -0.1584
42.0600 14.0046 -0.1508
42.0800 14.0113 -0.1443
42.1000 14.0180 -0.1651
42.1200 14.0247 -0.1458
42.1400 14.0314 -0.1463
42.1600 14.0380 -0.1659
42.1800 14.0446 -0.1428
42.2000 14.0512 -0.1513
42.2200 14.0579 -0.1699
42.2400 14.0646 -0.1374
42.2600 14.0713 -0.1561
42.2800 14.0780 -0.1697
42.3000 14.0846 -0.1410
42.3200 14.0913 -0.1566
42.3400 14.0980 -0.1693
42.3600 14.1046 -0.1410
42.3800 14.1113 -0.1594
42.4000 14.1179 -0.1621
42.4200 14.1246 -0.1488
42.4400 14.1313 -0.1556
42.4600 14.1380 -0.1603
42.4800 14.1447 -0.1484
42.5000 14.1514 -0.1602
42.5200 14.1581 -0.1589
42.5400 14.1647 -0.1556
42.5600 14.1713 -0.1585
42.5800 14.1779 -0.1554
42.6000 14.1846 -0.1608
42.6200 14.1913 -0.1523
42.6400 14.1980 -0.1621
42.6600 14.2047 -0.1640
42.6800 14.2113 -0.1486
42.7000 14.2180 -0.1629
42.7200 14.2246 -0.1703
42.7400 14.2313 -0.1429
42.7600 14.2379 -0.1680
42.7800 14.2446 -0.1698
42.8000 14.2513 -0.1414
42.8200 14.2580 -0.1728
42.8400 14.2647 -0.1718
42.8600 14.2714 -0.1355
42.8800 14.2780 -0.1793
42.9000 14.2846 -0.1668
42.9200 14.2912 -0.1364
42.9400 14.2979 -0.1815
42.9600 14.3045 -0.1694
42.9800 14.3113 -0.1361
43.0000 14.3179 -0.1831
43.0200 14.3246 -0.1671
43.0400 14.3313 -0.1418
43.0600 14.3380 -0.1859
43.0800 14.3446 -0.1646
43.1000 14.3512 -0.1432
43.1200 14.3579 -0.1838
43.1400 14.3646 -0.1638
43.1600 14.3713 -0.1512
43.1800 14.3780 -0.1870
43.2000 14.3847 -0.1623
43.2200 14.3914 -0.1529
43.2400 14.3981 -0.1848
43.2600 14.4047 -0.1653
43.2800 14.4113 -0.1546
43.3000 14.4179 -0.1847
43.3200 14.4246 -0.1616
43.3400 14.4313 -0.1594
43.3600 14.4380 -0.1866
43.3800 14.4447 -0.1627
43.4000 14.4514 -0.1601
43.4200 14.4580 -0.1874
43.4400 14.4647 -0.1601
43.4600 14.4713 -0.1657
43.4800 14.4779 -0.1819
43.5000 14.4846 -0.1619
43.5200 14.4913 -0.1650
43.5400 14.4980 -0.1854
43.5600 14.5047 -0.1632
43.5800 14.5113 -0.1719
43.6000 14.5180 -0.1835
43.6200 14.5246 -0.1612
43.6400 14.5312 -0.1728
43.6600 14.5379 -0.1813
43.6800 14.5446 -0.1646
43.7000 14.5513 -0.1719
43.7200 14.5580 -0.1796
43.7400 14.5647 -0.1642
43.7600 14.5713 -0.1735
43.7800 14.5780 -0.1764
43.8000 14.5847 -0.1706
43.8200 14.5913 -0.1759
43.8400 14.5979 -0.1756
43.8600 14.6046 -0.1695
43.8800 14.6113 -0.1765
43.9000 14.6180 -0.1765
43.9200 14.6247 -0.1732
43.9400 14.6314 -0.1755
43.9600 14.6381 -0.1741
43.9800 14.6447 -0.1725
44.0000 14.6513 -0.1819
44.0200 14.6579 -0.1696
44.0400 14.6646 -0.1747
44.0600 14.6713 -0.1808
44.0800 14.6780 -0.1770
44.1000 14.6847 -0.1721
44.1200 14.6914 -0.1813
44.1400 14.6980 -0.1771
44.1600 14.7047 -0.1759
44.1800 14.7113 -0.1825
44.2000 14.7179 -0.1716
44.2200 14.7246 -0.1815
44.2400 14.7313 -0.1811
44.2600 14.7380 -0.1739
44.2800 14.7447 -0.1839
44.3000 14.7513 -0.1870
44.3200 14.7580 -0.1728
44.3400 14.7647 -0.1839
44.3600 14.7713 -0.1863
44.3800 14.7779 -0.1763
44.4000 14.7846 -0.1822
44.4200 14.7912 -0.1886
44.4400 14.7979 -0.1756
44.4600 14.8046 -0.1880
44.4800 14.8113 -0.1821
44.5000 14.8181 -0.1806
44.5200 14.8247 -0.1919
44.5400 14.8313 -0.1856
44.5600 14.8379 -0.1792
44.5800 14.8446 -0.1893
44.6000 14.8513 -0.1857
44.6200 14.8580 -0.1884
44.6400 14.8647 -0.1909
44.6600 14.8714 -0.1868
44.6800 14.8780 -0.1858
44.7000 14.8847 -0.1922
44.7200 14.8913 -0.1823
44.7400 14.8979 -0.1900
44.7600 14.9046 -0.1940
44.7800 14.9113 -0.1862
44.8000 14.9180 -0.1958
44.8200 14.9247 -0.1884
44.8400 14.9314 -0.1904
44.8600 14.9380 -0.1987
44.8800 14.9447 -0.1880
44.9000 14.9513 -0.1843
44.9200 14.9579 -0.2054
44.9400 14.9646 -0.1897
44.9600 14.9713 -0.1855
44.9800 14.9780 -0.2071
45.0000 14.9847 -0.1937
45.0200 14.9913 -0.1858
45.0400 14.9980 -0.2085
45.0600 15.0047 -0.1927
45.0800 15.0113 -0.1963
45.1000 15.0178 -0.2018
45.1200 15.0245 -0.1913
45.1400 15.0312 -0.1999
45.1600 15.0380 -0.2066
45.1800 15.0446 -0.1958
45.2000 15.0513 -0.1975
45.2200 15.0580 -0.2051
45.2400 15.0647 -0.1988
45.2600 15.0713 -0.2008
45.2800 15.0779 -0.2049
45.3000 15.0846 -0.1951
45.3200 15.0913 -0.1977
45.3400 15.0980 -0.2052
45.3600 15.1047 -0.2036
45.3800 15.1114 -0.2001
45.4000 15.1181 -0.2044
45.4200 15.1247 -0.2078
45.4400 15.1313 -0.2011
45.4600 15.1379 -0.2098
45.4800 15.1446 -0.2026
45.5000 15.1513 -0.2046
45.5200 15.1580 -0.2117
45.5400 15.1647 -0.2009
45.5600 15.1714 -0.2030
45.5800 15.1780 -0.2193
45.6000 15.1847 -0.2017
45.6200 15.1913 -0.2011
45.6400 15.1979 -0.2164
45.6600 15.2045 -0.2047
45.6800 15.2112 -0.1991
45.7000 15.2180 -0.2201
45.7200 15.2247 -0.2060
45.7400 15.2313 -0.2034
45.7600 15.2380 -0.2182
45.7800 15.2447 -0.2074
45.8000 15.2513 -0.2080
45.8200 15.2579 -0.2159
45.8400 15.2646 -0.2075
45.8600 15.2713 -0.2092
45.8800 15.2780 -0.2165
45.9000 15.2846 -0.2119
45.9200 15.2913 -0.2153
45.9400 15.2980 -0.2184
45.9600 15.3047 -0.2115
45.9800 15.3113 -0.2114
46.0000 15.3179 -0.2250
46.0200 15.3246 -0.2093
46.0400 15.3313 -0.2171
46.0600 15.3380 -0.2200
46.0800 15.3447 -0.2135
46.1000 15.3514 -0.2140
46.1200 15.3581 -0.2237
46.1400 15.3647 -0.2125
46.1600 15.3713 -0.2143
46.1800 15.3779 -0.2185
46.2000 15.3846 -0.2145
46.2200 15.3913 -0.2195
46.2400 15.3980 -0.2206
46.2600 15.4047 -0.2112
46.2800 15.4114 -0.2192
46.3000 15.4181 -0.2194
46.3200 15.4247 -0.2145
46.3400 15.4313 -0.2246
46.3600 15.4379 -0.2165
46.3800 15.4446 -0.2111
46.4000 15.4513 -0.2230
46.4200 15.4580 -0.2158
46.4400 15.4646 -0.2203
46.4600 15.4713 -0.2259
46.4800 15.4780 -0.2060
46.5000 15.4847 -0.2236
46.5200 15.4913 -0.2295
46.5400 15.4979 -0.2112
46.5600 15.5045 -0.2179
46.5800 15.5112 -0.2268
46.6000 15.5179 -0.2107
46.6200 15.5246 -0.2255
46.6400 15.5313 -0.2248
46.6600 15.5380 -0.2179
46.6800 15.5447 -0.2227
46.7000 15.5513 -0.2250
46.7200 15.5579 -0.2193
46.7400 15.5646 -0.2259
46.7600 15.5713 -0.2275
46.7800 15.5780 -0.2210
46.8000 15.5847 -0.2263
46.8200 15.5914 -0.2285
46.8400 15.5981 -0.2172
46.8600 15.6047 -0.2243
46.8800 15.6113 -0.2307
46.9000 15.6179 -0.2208
46.9200 15.6246 -0.2254
46.9400 15.6313 -0.2285
46.9600 15.6380 -0.2239
46.9800 15.6447 -0.2234
47.0000 15.6514 -0.2359
47.0200 15.6580 -0.2201
47.0400 15.6647 -0.2289
47.0600 15.6713 -0.2410
47.0800 15.6779 -0.2148
47.1000 15.6845 -0.2285
47.1200 15.6912 -0.2450
47.1400 15.6979 -0.2179
47.1600 15.7047 -0.2315
47.1800 15.7114 -0.2403
47.2000 15.7180 -0.2173
47.2200 15.7247 -0.2364
47.2400 15.7313 -0.2437
47.2600 15.7379 -0.2114
47.2800 15.7445 -0.2401
47.3000 15.7512 -0.2411
47.3200 15.7580 -0.2194
47.3400 15.7647 -0.2468
47.3600 15.7713 -0.2422
47.3800 15.7780 -0.2223
47.4000 15.7846 -0.2478
47.4200 15.7913 -0.2390
47.4400 15.7979 -0.2274
47.4600 15.8046 -0.2479
47.4800 15.8113 -0.2324
47.5000 15.8180 -0.2286
47.5200 15.8247 -0.2490
47.5400 15.8314 -0.2375
47.5600 15.8380 -0.2312
47.5800 15.8447 -0.2490
47.6000 15.8514 -0.2385
47.6200 15.8580 -0.2402
47.6400 15.8646 -0.2389
47.6600 15.8713 -0.2373
47.6800 15.8780 -0.2436
47.7000 15.8847 -0.2404
47.7200 15.8914 -0.2353
47.7400 15.8980 -0.2501
47.7600 15.9047 -0.2393
47.7800 15.9113 -0.2376
47.8000 15.9179 -0.2469
47.8200 15.9245 -0.2385
47.8400 15.9312 -0.2440
47.8600 15.9380 -0.2467
47.8800 15.9446 -0.2371
47.9000 15.9513 -0.2432
47.9200 15.9580 -0.2481
47.9400 15.9646 -0.2412
47.9600 15.9713 -0.2495
47.9800 15.9779 -0.2455
48.0000 15.9845 -0.2389
48.0200 15.9912 -0.2525
48.0400 15.9979 -0.2421
48.0600 16.0046 -0.2425
48.0800 16.0113 -0.2536
48.1000 16.0180 -0.2318
48.1200 16.0247 -0.2494
48.1400 16.0314 -0.2506
48.1600 16.0380 -0.2392
48.1800 16.0446 -0.2468
48.2000 16.0513 -0.2464
48.2200 16.0580 -0.2356
48.2400 16.0647 -0.2616
48.2600 16.0714 -0.2468
48.2800 16.0780 -0.2357
48.3000 16.0847 -0.2613
48.3200 16.0913 -0.2419
48.3400 16.0979 -0.2388
48.3600 16.1046 -0.2637
48.3800 16.1113 -0.2380
48.4000 16.1180 -0.2478
48.4200 16.1247 -0.2640
48.4400 16.1313 -0.2361
48.4600 16.1380 -0.2512
48.4800 16.1447 -0.2613
48.5000 16.1514 -0.2420
48.5200 16.1580 -0.2554
48.5400 16.1646 -0.2569
48.5600 16.1713 -0.2363
48.5800 16.1780 -0.2601
48.6000 16.1846 -0.2554
48.6200 16.1913 -0.2437
48.6400 16.1980 -0.2598
48.6600 16.2047 -0.2571
48.6800 16.2114 -0.2426
48.7000 16.2179 -0.2565
48.7200 16.2245 -0.2558
48.7400 16.2312 -0.2493
48.7600 16.2379 -0.2556
48.7800 16.2446 -0.2597
48.8000 16.2513 -0.2549
48.8200 16.2580 -0.2600
48.8400 16.2647 -0.2528
48.8600 16.2713 -0.2540
48.8800 16.2779 -0.2619
48.9000 16.2846 -0.2581
48.9200 16.2913 -0.2526
48.9400 16.2980 -0.2624
48.9600 16.3047 -0.2596
48.9800 16.3113 -0.2520
49.0000 16.3180 -0.2606
49.0200 16.3247 -0.2640
49.0400 16.3314 -0.2556
49.0600 16.3380 -0.2580
49.0800 16.3446 -0.2612
49.1000 16.3513 -0.2531
49.1200 16.3580 -0.2656
49.1400 16.3647 -0.2607
49.1600 16.3714 -0.2573
49.1800 16.3781 -0.2642
49.2000 16.3847 -0.2621
49.2200 16.3914 -0.2580
49.2400 16.3980 -0.2645
49.2600 16.4046 -0.2603
49.2800 16.4113 -0.2592
49.3000 16.4180 -0.2623
49.3200 16.4247 -0.2638
49.3400 16.4314 -0.2601
49.3600 16.4380 -0.2680
49.3800 16.4447 -0.2665
49.4000 16.4513 -0.2624
49.4200 16.4579 -0.2681
49.4400 16.4645 -0.2600
49.4600 16.4712 -0.2586
49.4800 16.4779 -0.2709
49.5000 16.4846 -0.2649
49.5200 16.4913 -0.2604
49.5400 16.4980 -0.2687
49.5600 16.5046 -0.2661
49.5800 16.5113 -0.2654
49.6000 16.5180 -0.2681
49.6200 16.5246 -0.2691
49.6400 16.5313 -0.2600
49.6600 16.5380 -0.2693
49.6800 16.5447 -0.2700
49.7000 16.5514 -0.2631
49.7200 16.5580 -0.2657
49.7400 16.5647 -0.2759
49.7600 16.5714 -0.2600
49.7800 16.5780 -0.2688
49.8000 16.5846 -0.2784
49.8200 16.5913 -0.2620
49.8400 16.5980 -0.2711
49.8600 16.6047 -0.2783
49.8800 16.6114 -0.2594
49.9000 16.6180 -0.2734
49.9200 16.6247 -0.2804
49.9400 16.6313 -0.2644
49.9600 16.6380 -0.2723
49.9800 16.6446 -0.2797
50.0000 16.6512 -0.2669
50.0200 16.6579 -0.2752
50.0400 16.6646 -0.2834
50.0600 16.6713 -0.2669
50.0800 16.6780 -0.2785
50.1000 16.6847 -0.2802
50.1200 16.6913 -0.2690
50.1400 16.6979 -0.2824
50.1600 16.7045 -0.2833
50.1800 16.7112 -0.2678
50.2000 16.7179 -0.2803
50.2200 16.7246 -0.2883
50.2400 16.7314 -0.2730
50.2600 16.7380 -0.2791
50.2800 16.7447 -0.2947
50.3000 16.7513 -0.2689
50.3200 16.7579 -0.2904
50.3400 16.7646 -0.2858
50.3600 16.7712 -0.2708
50.3800 16.7779 -0.2942
50.4000 16.7846 -0.2885
50.4200 16.7913 -0.2736
50.4400 16.7980 -0.2921
50.4600 16.8047 -0.2908
50.4800 16.8114 -0.2782
50.5000 16.8180 -0.2963
50.5200 16.8246 -0.2911
50.5400 16.8313 -0.2760
50.5600 16.8380 -0.2972
50.5800 16.8447 -0.2895
50.6000 16.8514 -0.2816
50.6200 16.8580 -0.3014
50.6400 16.8647 -0.2859
50.6600 16.8714 -0.2858
50.6800 16.8780 -0.3044
50.7000 16.8846 -0.2933
50.7200 16.8912 -0.2856
50.7400 16.8979 -0.3033
50.7600 16.9046 -0.2880
50.7800 16.9113 -0.2946
50.8000 16.9180 -0.3046
50.8200 16.9247 -0.2921
50.8400 16.9313 -0.2910
50.8600 16.9379 -0.3053
50.8800 16.9445 -0.2932
50.9000 16.9512 -0.2954
50.9200 16.9579 -0.3067
50.9400 16.9646 -0.2973
50.9600 16.9713 -0.2949
50.9800 16.9780 -0.3041
51.0000 16.9846 -0.3009
51.0200 16.9913 -0.3005
51.0400 16.9979 -0.3032
51.0600 17.0046 -0.3019
51.0800 17.0112 -0.3011
51.1000 17.0179 -0.3019
51.1200 17.0247 -0.3042
51.1400 17.0314 -0.3070
51.1600 17.0380 -0.3093
51.1800 17.0447 -0.3019
51.2000 17.0514 -0.3094
51.2200 17.0580 -0.3037
51.2400 17.0646 -0.3092
51.2600 17.0712 -0.3089
51.2800 17.0779 -0.3088
51.3000 17.0847 -0.3060
51.3200 17.0914 -0.3120
51.3400 17.0980 -0.3044
51.3600 17.1047 -0.3103
51.3800 17.1114 -0.3095
51.4000 17.1180 -0.3063
51.4200 17.1246 -0.3110
51.4400 17.1312 -0.3123
51.4600 17.1379 -0.3144
51.4800 17.1446 -0.3160
51.5000 17.1513 -0.3079
51.5200 17.1580 -0.3162
51.5400 17.1647 -0.3112
51.5600 17.1714 -0.3097
51.5800 17.1780 -0.3206
51.6000 17.1846 -0.3097
51.6200 17.1912 -0.3102
51.6400 17.1979 -0.3190
51.6600 17.2046 -0.3173
51.6800 17.2113 -0.3113
51.7000 17.2180 -0.3177
51.7200 17.2246 -0.3165
51.7400 17.2313 -0.3151
51.7600 17.2380 -0.3148
51.7800 17.2446 -0.3163
51.8000 17.2513 -0.3147
51.8200 17.2579 -0.3181
51.8400 17.2647 -0.3140
51.8600 17.2714 -0.3224
51.8800 17.2781 -0.3167
51.9000 17.2847 -0.3160
51.9200 17.2914 -0.3232
51.9400 17.2980 -0.3133
51.9600 17.3046 -0.3177
51.9800 17.3113 -0.3232
52.0000 17.3180 -0.3169
52.0200 17.3247 -0.3221
52.0400 17.3314 -0.3190
52.0600 17.3380 -0.3122
52.0800 17.3447 -0.3262
52.1000 17.3513 -0.3249
52.1200 17.3580 -0.3149
52.1400 17.3646 -0.3262
52.1600 17.3712 -0.3209
52.1800 17.3779 -0.3152
52.2000 17.3846 -0.3316
52.2200 17.3913 -0.3178
52.2400 17.3980 -0.3227
52.2600 17.4047 -0.3284
52.2800 17.4113 -0.3187
52.3000 17.4180 -0.3233
52.3200 17.4246 -0.3306
52.3400 17.4312 -0.3166
52.3600 17.4379 -0.3234
52.3800 17.4446 -0.3280
52.4000 17.4513 -0.3199
52.4200 17.4580 -0.3228
52.4400 17.4647 -0.3330
52.4600 17.4714 -0.3225
52.4800 17.4780 -0.3274
52.5000 17.4846 -0.3279
52.5200 17.4912 -0.3211
52.5400 17.4979 -0.3277
52.5600 17.5046 -0.3340
52.5800 17.5113 -0.3271
52.6000 17.5180 -0.3252
52.6200 17.5247 -0.3323
52.6400 17.5314 -0.3225
52.6600 17.5380 -0.3300
52.6800 17.5446 -0.3385
52.7000 17.5512 -0.3233
52.7200 17.5579 -0.3229
52.7400 17.5646 -0.3397
52.7600 17.5713 -0.3268
52.7800 17.5780 -0.3254
52.8000 17.5847 -0.3394
52.8200 17.5914 -0.3312
52.8400 17.5980 -0.3233
52.8600 17.6046 -0.3454
52.8800 17.6112 -0.3249
52.9000 17.6179 -0.3321
52.9200 17.6246 -0.3453
52.9400 17.6314 -0.3266
52.9600 17.6380 -0.3287
52.9800 17.6447 -0.3504
53.0000 17.6513 -0.3268
53.0200 17.6580 -0.3359
53.0400 17.6646 -0.3502
53.0600 17.6712 -0.3236
53.0800 17.6779 -0.3350
53.1000 17.6846 -0.3477
53.1200 17.6913 -0.3267
53.1400 17.6980 -0.3421
53.1600 17.7046 -0.3488
53.1800 17.7113 -0.3205
53.2000 17.7180 -0.3451
53.2200 17.7246 -0.3479
53.2400 17.7312 -0.3229
53.2600 17.7379 -0.3389
53.2800 17.7446 -0.3517
53.3000 17.7513 -0.3283
53.3200 17.7581 -0.3500
53.3400 17.7648 -0.3478
53.3600 17.7714 -0.3278
53.3800 17.7780 -0.3544
53.4000 17.7846 -0.3466
53.4200 17.7912 -0.3266
53.4400 17.7979 -0.3551
53.4600 17.8047 -0.3449
53.4800 17.8114 -0.3314
53.5000 17.8181 -0.3592
53.5200 17.8247 -0.3521
53.5400 17.8314 -0.3307
53.5600 17.8380 -0.3530
53.5800 17.8446 -0.3518
53.6000 17.8512 -0.3348
53.6200 17.8579 -0.3542
53.6400 17.8646 -0.3508
53.6600 17.8713 -0.3387
53.6800 17.8780 -0.3567
53.7000 17.8846 -0.3516
53.7200 17.8913 -0.3439
53.7400 17.8980 -0.3632
53.7600 17.9046 -0.3531
53.7800 17.9112 -0.3440
53.8000 17.9178 -0.3604
53.8200 17.9245 -0.3572
53.8400 17.9313 -0.3433
53.8600 17.9380 -0.3683
53.8800 17.9446 -0.3598
53.9000 17.9513 -0.3480
53.9200 17.9580 -0.3673
53.9400 17.9646 -0.3657
53.9600 17.9712 -0.3453
53.9800 17.9779 -0.3699
54.0000 17.9846 -0.3673
54.0200 17.9914 -0.3491
54.0400 17.9980 -0.3690
54.0600 18.0047 -0.3650
54.0800 18.0114 -0.3534
54.1000 18.0180 -0.3737
54.1200 18.0247 -0.3702
54.1400 18.0313 -0.3539
54.1600 18.0379 -0.3721
54.1800 18.0446 -0.3674
54.2000 18.0513 -0.3567
54.2200 18.0580 -0.3731
54.2400 18.0647 -0.3711
54.2600 18.0714 -0.3550
54.2800 18.0780 -0.3791
54.3000 18.0846 -0.3736
54.3200 18.0912 -0.3604
54.3400 18.0979 -0.3752
54.3600 18.1046 -0.3799
54.3800 18.1113 -0.3618
54.4000 18.1180 -0.3763
54.4200 18.1247 -0.3782
54.4400 18.1313 -0.3649
54.4600 18.1380 -0.3749
54.4800 18.1446 -0.3797
54.5000 18.1512 -0.3663
54.5200 18.1579 -0.3749
54.5400 18.1646 -0.3860
54.5600 18.1713 -0.3671
54.5800 18.1780 -0.3757
54.6000 18.1846 -0.3882
54.6200 18.1913 -0.3642
54.6400 18.1980 -0.3807
54.6600 18.2047 -0.3913
54.6800 18.2113 -0.3696
54.7000 18.2179 -0.3837
54.7200 18.2246 -0.3927
54.7400 18.2313 -0.3692
54.7600 18.2380 -0.3833
54.7800 18.2447 -0.3955
54.8000 18.2514 -0.3716
54.8200 18.2581 -0.3878
54.8400 18.2647 -0.3931
54.8600 18.2713 -0.3743
54.8800 18.2779 -0.3920
54.9000 18.2846 -0.4001
54.9200 18.2913 -0.3738
54.9400 18.2980 -0.3938
54.9600 18.3047 -0.3970
54.9800 18.3114 -0.3795
55.0000 18.3180 -0.3943
55.0200 18.3247 -0.4022
55.0400 18.3313 -0.3855
55.0600 18.3379 -0.3948
55.0800 18.3446 -0.3972
55.1000 18.3513 -0.3897
55.1200 18.3580 -0.3949
55.1400 18.3647 -0.4004
55.1600 18.3713 -0.3891
55.1800 18.3780 -0.3943
55.2000 18.3846 -0.4015
55.2200 18.3912 -0.3904
55.2400 18.3979 -0.4014
55.2600 18.4045 -0.4035
55.2800 18.4113 -0.3941
55.3000 18.4180 -0.4023
55.3200 18.4247 -0.4057
55.3400 18.4314 -0.3956
55.3600 18.4380 -0.4087
55.3800 18.4446 -0.3980
55.4000 18.4512 -0.3948
55.4200 18.4579 -0.4093
55.4400 18.4646 -0.4055
55.4600 18.4713 -0.3966
55.4800 18.4780 -0.4152
55.5000 18.4847 -0.4090
55.5200 18.4914 -0.4021
55.5400 18.4980 -0.4082
55.5600 18.5046 -0.4077
55.5800 18.5113 -0.4088
55.6000 18.5179 -0.4068
55.6200 18.5246 -0.4055
55.6400 18.5314 -0.4177
55.6600 18.5380 -0.4058
55.6800 18.5447 -0.4030
55.7000 18.5514 -0.4165
55.7200 18.5580 -0.4097
55.7400 18.5646 -0.4096
55.7600 18.5712 -0.4143
55.7800 18.5779 -0.4030
55.8000 18.5846 -0.4134
55.8200 18.5913 -0.4203
55.8400 18.5980 -0.4025
55.8600 18.6047 -0.4169
55.8800 18.6113 -0.4125
55.9000 18.6180 -0.4055
55.9200 18.6246 -0.4190
55.9400 18.6312 -0.4183
55.9600 18.6379 -0.4042
55.9800 18.6446 -0.4184
56.0000 18.6513 -0.4137
56.0200 18.6580 -0.4100
56.0400 18.6647 -0.4237
56.0600 18.6713 -0.4111
56.0800 18.6780 -0.4067
56.1000 18.6846 -0.4261
56.1200 18.6912 -0.4153
56.1400 18.6979 -0.4096
56.1600 18.7046 -0.4291
56.1800 18.7113 -0.4182
56.2000 18.7180 -0.4116
56.2200 18.7247 -0.4238
56.2400 18.7314 -0.4208
56.2600 18.7381 -0.4160
56.2800 18.7447 -0.4232
56.3000 18.7513 -0.4199
56.3200 18.7579 -0.4192
56.3400 18.7646 -0.4201
56.3600 18.7713 -0.4248
56.3800 18.7780 -0.4183
56.4000 18.7847 -0.4219
56.4200 18.7914 -0.4234
56.4400 18.7981 -0.4225
56.4600 18.8047 -0.4218
56.4800 18.8112 -0.4290
56.5000 18.8179 -0.4165
56.5200 18.8246 -0.4200
56.5400 18.8313 -0.4290
56.5600 18.8380 -0.4200
56.5800 18.8447 -0.4251
56.6000 18.8513 -0.4254
56.6200 18.8580 -0.4204
56.6400 18.8646 -0.4291
56.6600 18.8712 -0.4300
56.6800 18.8779 -0.4210
56.7000 18.8846 -0.4222
56.7200 18.8913 -0.4295
56.7400 18.8979 -0.4220
56.7600 18.9046 -0.4228
56.7800 18.9113 -0.4318
56.8000 18.9180 -0.4221
56.8200 18.9247 -0.4247
56.8400 18.9313 -0.4262
56.8600 18.9379 -0.4262
56.8800 18.9446 -0.4243
56.9000 18.9513 -0.4286
56.9200 18.9580 -0.4243
56.9400 18.9647 -0.4255
56.9600 18.9714 -0.4247
56.9800 18.9781 -0.4289
57.0000 18.9847 -0.4269
57.0200 18.9913 -0.4266
57.0400 18.9979 -0.4235
57.0600 19.0046 -0.4257
57.0800 19.0113 -0.4273
57.1000 19.0180 -0.4283
57.1200 19.0247 -0.4243
57.1400 19.0314 -0.4271
57.1600 19.0380 -0.4302
57.1800 19.0447 -0.4196
57.2000 19.0513 -0.4337
57.2200 19.0579 -0.4322
57.2400 19.0646 -0.4217
57.2600 19.0713 -0.4352
57.2800 19.0780 -0.4317
57.3000 19.0847 -0.4243
57.3200 19.0913 -0.4345
57.3400 19.0980 -0.4331
57.3600 19.1047 -0.4260
57.3800 19.1113 -0.4344
57.4000 19.1179 -0.4409
57.4200 19.1245 -0.4239
57.4400 19.1312 -0.4359
57.4600 19.1379 -0.4399
57.4800 19.1446 -0.4279
57.5000 19.1513 -0.4365
57.5200 19.1580 -0.4394
57.5400 19.1646 -0.4284
57.5600 19.1712 -0.4452
57.5800 19.1779 -0.4437
57.6000 19.1846 -0.4290
57.6200 19.1913 -0.4444
57.6400 19.1980 -0.4538
57.6600 19.2047 -0.4312
57.6800 19.2114 -0.4499
57.7000 19.2181 -0.4528
57.7200 19.2247 -0.4385
57.7400 19.2313 -0.4500
57.7600 19.2380 -0.4531
57.7800 19.2446 -0.4354
57.8000 19.2513 -0.4503
57.8200 19.2580 -0.4596
57.8400 19.2647 -0.4356
57.8600 19.2714 -0.4540
57.8800 19.2781 -0.4594
57.9000 19.2847 -0.4448
57.9200 19.2913 -0.4562
57.9400 19.2979 -0.4632
57.9600 19.3046 -0.4436
57.9800 19.3113 -0.4615
58.0000 19.3180 -0.4661
58.0200 19.3247 -0.4483
58.0400 19.3313 -0.4658
58.0600 19.3380 -0.4698
58.0800 19.3446 -0.4485
58.1000 19.3512 -0.4705
58.1200 19.3579 -0.4685
58.1400 19.3646 -0.4505
58.1600 19.3713 -0.4683
58.1800 19.3780 -0.4785
58.2000 19.3847 -0.4546
58.2200 19.3913 -0.4704
58.2400 19.3980 -0.4783
58.2600 19.4046 -0.4533
58.2800 19.4113 -0.4732
58.3000 19.4180 -0.4762
58.3200 19.4246 -0.4597
58.3400 19.4313 -0.4770
58.3600 19.4380 -0.4779
58.3800 19.4447 -0.4590
58.4000 19.4514 -0.4803
58.4200 19.4580 -0.4805
58.4400 19.4647 -0.4674
58.4600 19.4713 -0.4825
58.4800 19.4779 -0.4756
58.5000 19.4846 -0.4644
58.5200 19.4913 -0.4891
58.5400 19.4980 -0.4790
58.5600 19.5047 -0.4667
58.5800 19.5114 -0.4916
58.6000 19.5180 -0.4811
58.6200 19.5247 -0.4682
58.6400 19.5313 -0.4968
58.6600 19.5379 -0.4777
58.6800 19.5446 -0.4680
58.7000 19.5513 -0.4944
58.7200 19.5580 -0.4843
58.7400 19.5647 -0.4761
58.7600 19.5713 -0.4967
58.7800 19.5780 -0.4844
58.8000 19.5846 -0.4761
58.8200 19.5913 -0.4955
58.8400 19.5979 -0.4817
58.8600 19.6045 -0.4775
58.8800 19.6112 -0.4923
58.9000 19.6180 -0.4885
58.9200 19.6246 -0.4817
58.9400 19.6313 -0.4969
58.9600 19.6380 -0.4850
58.9800 19.6447 -0.4880
59.0000 19.6513 -0.4941
59.0200 19.6579 -0.4851
59.0400 19.6646 -0.4909
59.0600 19.6713 -0.4954
59.0800 19.6780 -0.4872
59.1000 19.6847 -0.4927
59.1200 19.6914 -0.4917
59.1400 19.6980 -0.4928
59.1600 19.7047 -0.4921
59.1800 19.7113 -0.4926
59.2000 19.7179 -0.4922
59.2200 19.7246 -0.4928
59.2400 19.7313 -0.4925
59.2600 19.7380 -0.4962
59.2800 19.7447 -0.4976
59.3000 19.7514 -0.4899
59.3200 19.7581 -0.4986
59.3400 19.7647 -0.4980
59.3600 19.7713 -0.4938
59.3800 19.7779 -0.5001
59.4000 19.7846 -0.4931
59.4200 19.7912 -0.4891
59.4400 19.7980 -0.5072
59.4600 19.8047 -0.4953
59.4800 19.8114 -0.4977
59.5000 19.8180 -0.5025
59.5200 19.8247 -0.4948
59.5400 19.8313 -0.4974
59.5600 19.8379 -0.5074
59.5800 19.8445 -0.4898
59.6000 19.8512 -0.5035
59.6200 19.8580 -0.5067
59.6400 19.8647 -0.4950
59.6600 19.8713 -0.5018
59.6800 19.8780 -0.5045
59.7000 19.8847 -0.5006
59.7200 19.8913 -0.5060
59.7400 19.8979 -0.5042
59.7600 19.9046 -0.4980
59.7800 19.9113 -0.5085
59.8000 19.9180 -0.5061
59.8200 19.9247 -0.5073
59.8400 19.9314 -0.5094
59.8600 19.9381 -0.5057
59.8800 19.9447 -0.5059
59.9000 19.9514 -0.5104
59.9200 19.9580 -0.5063
59.9400 19.9646 -0.5068
59.9600 19.9713 -0.5061
59.9800 19.9780 -0.5152
60.0000 19.9847 -0.5080
60.0200 19.9914 -0.5090
60.0400 19.9980 -0.5160
60.0600 20.0047 -0.5093
60.0800 20.0113 -0.5104
60.1000 20.0179 -0.5190
60.1200 20.0245 -0.5063
60.1400 20.0313 -0.5129
60.1600 20.0380 -0.5222
60.1800 20.0447 -0.5099
60.2000 20.0513 -0.5126
60.2200 20.0580 -0.5210
60.2400 20.0647 -0.5077
60.2600 20.0713 -0.5220
60.2800 20.0779 -0.5218
60.3000 20.0846 -0.5113
60.3200 20.0913 -0.5254
60.3400 20.0980 -0.5176
60.3600 20.1047 -0.5176
60.3800 20.1113 -0.5250
60.4000 20.1180 -0.5235
60.4200 20.1247 -0.5206
60.4400 20.1313 -0.5295
60.4600 20.1379 -0.5223
60.4800 20.1446 -0.5216
60.5000 20.1512 -0.5298
60.5200 20.1580 -0.5278
60.5400 20.1647 -0.5299
60.5600 20.1714 -0.5347
60.5800 20.1780 -0.5240
60.6000 20.1847 -0.5353
60.6200 20.1913 -0.5365
60.6400 20.1979 -0.5279
60.6600 20.2046 -0.5369
60.6800 20.2113 -0.5364
60.7000 20.2180 -0.5294
60.7200 20.2247 -0.5416
60.7400 20.2314 -0.5378
60.7600 20.2380 -0.5358
60.7800 20.2447 -0.5448
60.8000 20.2513 -0.5404
60.8200 20.2579 -0.5376
60.8400 20.2646 -0.5458
60.8600 20.2713 -0.5419
60.8800 20.2780 -0.5381
60.9000 20.2846 -0.5527
60.9200 20.2913 -0.5424
60.9400 20.2980 -0.5288
60.9600 20.3047 -0.4897
60.9800 20.3113 -0.4125
61.0000 20.3179 -0.3509
61.0200 20.3245 -0.2994
61.0400 20.3312 -0.2256
61.0600 20.3379 -0.1866
61.0800 20.3446 -0.1369
61.1000 20.3513 -0.0827
61.1200 20.3580 -0.0584
61.1400 20.3647 -0.0444
61.1600 20.3713 -0.0214
61.1800 20.3779 -0.0177
61.2000 20.3846 0.0011
61.2200 20.3913 0.0092
61.2400 20.3980 0.0196
61.2600 20.4047 0.0458
61.2800 20.4114 0.0708
61.3000 20.4181 0.1026
61.3200 20.4247 0.1299
61.3400 20.4313 0.1526
61.3600 20.4379 0.1865
61.3800 20.4446 0.2134
61.4000 20.4513 0.2339
61.4200 20.4580 0.2692
61.4400 20.4647 0.2893
61.4600 20.4714 0.3108
61.4800 20.4780 0.3360
61.5000 20.4847 0.3542
61.5200 20.4913 0.3718
61.5400 20.4979 0.4084
61.5600 20.5045 0.4319
61.5800 20.5112 0.4491
61.6000 20.5179 0.4860
61.6200 20.5246 0.5102
61.6400 20.5313 0.5292
61.6600 20.5380 0.5706
61.6800 20.5447 0.5862
61.7000 20.5513 0.6119
61.7200 20.5579 0.6432
61.7400 20.5645 0.6699
61.7600 20.5712 0.6884
61.7800 20.5779 0.7248
61.8000 20.5846 0.7461
61.8200 20.5913 0.7670
61.8400 20.5980 0.8072
61.8600 20.6047 0.8226
61.8800 20.6113 0.8464
61.9000 20.6179 0.8844
61.9200 20.6246 0.8992
61.9400 20.6313 0.9170
61.9600 20.6380 0.9399
61.9800 20.6447 0.9192
62.0000 20.6514 0.9186
62.0200 20.6580 0.9202
62.0400 20.6647 0.8998
62.0600 20.6714 0.9017
62.0800 20.6780 0.9106
62.1000 20.6846 0.8990
62.1200 20.6913 0.8972
62.1400 20.6980 0.9012
62.1600 20.7047 0.9001
62.1800 20.7114 0.9050
62.2000 20.7181 0.9102
62.2200 20.7247 0.9041
62.2400 20.7313 0.9105
62.2600 20.7379 0.9108
62.2800 20.7446 0.9130
62.3000 20.7512 0.9175
62.3200 20.7580 0.9150
62.3400 20.7646 0.9104
62.3600 20.7713 0.9149
62.3800 20.7780 0.9151
62.4000 20.7846 0.9090
62.4200 20.7913 0.9154
62.4400 20.7979 0.9160
62.4600 20.8045 0.9111
62.4800 20.8112 0.9108
62.5000 20.8179 0.9184
62.5200 20.8246 0.9064
62.5400 20.8313 0.9098
62.5600 20.8380 0.9130
62.5800 20.8447 0.9120
62.6000 20.8513 0.9125
62.6200 20.8579 0.9143
62.6400 20.8646 0.9122
62.6600 20.8713 0.9166
62.6800 20.8780 0.9083
62.7000 20.8847 0.9093
62.7200 20.8914 0.9142
62.7400 20.8981 0.9076
62.7600 20.9047 0.9035
62.7800 20.9114 0.9121
62.8000 20.9180 0.9045
62.8200 20.9246 0.9075
62.8400 20.9312 0.9080
62.8600 20.9380 0.8963
62.8800 20.9447 0.9029
62.9000 20.9513 0.9007
62.9200 20.9580 0.8943
62.9400 20.9647 0.8974
62.9600 20.9714 0.9022
62.9800 20.9780 0.8890
63.0000 20.9846 0.8982
63.0200 20.9912 0.8967
63.0400 20.9979 0.8945
63.0600 21.0046 0.8972
63.0800 21.0113 0.8945
63.1000 21.0180 0.8916
63.1200 21.0247 0.8930
63.1400 21.0314 0.8875
63.1600 21.0380 0.8843
63.1800 21.0445 0.8872
63.2000 21.0512 0.8861
63.2200 21.0579 0.8755
63.2400 21.0646 0.8829
63.2600 21.0713 0.8799
63.2800 21.0780 0.8803
63.3000 21.0847 0.8775
63.3200 21.0913 0.8746
63.3400 21.0979 0.8770
63.3600 21.1046 0.8770
63.3800 21.1113 0.8750
63.4000 21.1180 0.8701
63.4200 21.1246 0.8743
63.4400 21.1313 0.8734
63.4600 21.1380 0.8692
63.4800 21.1447 0.8670
63.5000 21.1514 0.8701
63.5200 21.1580 0.8645
63.5400 21.1646 0.8666
63.5600 21.1712 0.8620
63.5800 21.1779 0.8662
63.6000 21.1846 0.8636
63.6200 21.1913 0.8598
63.6400 21.1980 0.8569
63.6600 21.2047 0.8609
63.6800 21.2114 0.8569
63.7000 21.2180 0.8530
63.7200 21.2246 0.8597
63.7400 21.2312 0.8571
63.7600 21.2379 0.8461
63.7800 21.2447 0.8546
63.8000 21.2513 0.8469
63.8200 21.2580 0.8482
63.8400 21.2647 0.8506
63.8600 21.2713 0.8457
63.8800 21.2780 0.8443
63.9000 21.2846 0.8480
63.9200 21.2912 0.8469
63.9400 21.2979 0.8374
63.9600 21.3046 0.8457
63.9800 21.3113 0.8431
64.0000 21.3180 0.8381
64.0200 21.3246 0.8430
64.0400 21.3313 0.8443
64.0600 21.3380 0.8372
64.0800 21.3446 0.8377
64.1000 21.3512 0.8371
64.1200 21.3579 0.8300
64.1400 21.3647 0.8323
64.1600 21.3714 0.8352
64.1800 21.3780 0.8269
64.2000 21.3847 0.8379
64.2200 21.3914 0.8331
64.2400 21.3980 0.8277
64.2600 21.4046 0.8324
64.2800 21.4113 0.8284
64.3000 21.4180 0.8245
64.3200 21.4247 0.8353
64.3400 21.4314 0.8279
64.3600 21.4380 0.8221
64.3800 21.4447 0.8374
64.4000 21.4513 0.8283
64.4200 21.4580 0.8248
64.4400 21.4646 0.8326
64.4600 21.4712 0.8280
64.4800 21.4779 0.8171
64.5000 21.4846 0.8228
64.5200 21.4913 0.8229
64.5400 21.4980 0.8192
64.5600 21.5047 0.8248
64.5800 21.5114 0.8206
64.6000 21.5180 0.8151
64.6200 21.5246 0.8243
64.6400 21.5312 0.8190
64.6600 21.5379 0.8184
64.6800 21.5446 0.8181
64.7000 21.5513 0.8177
64.7200 21.5580 0.8093
64.7400 21.5647 0.8197
64.7600 21.5714 0.8168
64.7800 21.5780 0.8102
64.8000 21.5846 0.8136
64.8200 21.5912 0.8150
64.8400 21.5979 0.8078
64.8600 21.6047 0.8127
64.8800 21.6113 0.8133
64.9000 21.6180 0.8029
64.9200 21.6247 0.8066
64.9400 21.6314 0.8084
64.9600 21.6380 0.8013
64.9800 21.6446 0.8131
65.0000 21.6513 0.8103
65.0200 21.6580 0.8023
65.0400 21.6647 0.8125
65.0600 21.6714 0.8066
65.0800 21.6780 0.7990
65.1000 21.6847 0.8007
65.1200 21.6914 0.8055
65.1400 21.6980 0.7948
65.1600 21.7046 0.8047
65.1800 21.7112 0.8028
65.2000 21.7179 0.7955
65.2200 21.7246 0.7999
65.2400 21.7313 0.8009
65.2600 21.7380 0.7890
65.2800 21.7447 0.8046
65.3000 21.7513 0.7909
65.3200 21.7580 0.7871
65.3400 21.7645 0.8087
65.3600 21.7712 0.7892
65.3800 21.7779 0.7868
65.4000 21.7846 0.8067
65.4200 21.7913 0.7924
65.4400 21.7980 0.7862
65.4600 21.8046 0.8043
65.4800 21.8113 0.7906
65.5000 21.8180 0.7845
65.5200 21.8246 0.7983
65.5400 21.8312 0.7882
65.5600 21.8379 0.7879
65.5800 21.8447 0.8025
65.6000 21.8514 0.7869
65.6200 21.8581 0.7910
65.6400 21.8647 0.7958
65.6600 21.8714 0.7882
65.6800 21.8780 0.7840
65.7000 21.8846 0.7972
65.7200 21.8912 0.7867
65.7400 21.8979 0.7826
65.7600 21.9047 0.7895
65.7800 21.9114 0.7877
65.8000 21.9181 0.7793
65.8200 21.9247 0.7935
65.8400 21.9314 0.7876
65.8600 21.9380 0.7753
65.8800 21.9446 0.7883
65.9000 21.9512 0.7881
65.9200 21.9579 0.7763
65.9400 21.9646 0.7937
65.9600 21.9713 0.7822
65.9800 21.9780 0.7703
66.0000 21.9847 0.7911
66.0200 21.9914 0.7793
66.0400 21.9980 0.7731
66.0600 22.0046 0.7886
66.0800 22.0112 0.7787
66.1000 22.0179 0.7665
66.1200 22.0246 0.7895
66.1400 22.0313 0.7713
66.1600 22.0380 0.7681
66.1800 22.0446 0.7818
66.2000 22.0513 0.7650
66.2200 22.0580 0.7673
66.2400 22.0646 0.7876
66.2600 22.0712 0.7647
66.2800 22.0779 0.7674
66.3000 22.0846 0.7811
66.3200 22.0913 0.7608
66.3400 22.0980 0.7671
66.3600 22.1047 0.7801
66.3800 22.1114 0.7595
66.4000 22.1180 0.7617
66.4200 22.1246 0.7739
66.4400 22.1312 0.7617
66.4600 22.1379 0.7624
66.4800 22.1447 0.7694
66.5000 22.1514 0.7537
66.5200 22.1580 0.7605
66.5400 22.1647 0.7694
66.5600 22.1714 0.7484
66.5800 22.1780 0.7595
66.6000 22.1846 0.7623
66.6200 22.1912 0.7542
66.6400 22.1979 0.7537
66.6600 22.2046 0.7615
66.6800 22.2113 0.7481
66.7000 22.2180 0.7489
66.7200 22.2247 0.7581
66.7400 22.2313 0.7469
66.7600 22.2380 0.7468
66.7800 22.2446 0.7595
66.8000 22.2512 0.7430
66.8200 22.2579 0.7458
66.8400 22.2646 0.7583
66.8600 22.2713 0.7465
66.8800 22.2780 0.7399
66.9000 22.2847 0.7542
66.9200 22.2913 0.7453
66.9400 22.2980 0.7354
66.9600 22.3046 0.7514
66.9800 22.3113 0.7444
67.0000 22.3179 0.7344
67.0200 22.3246 0.7420
67.0400 22.3313 0.7399
67.0600 22.3380 0.7360
67.0800 22.3447 0.7454
67.1000 22.3514 0.7373
67.1200 22.3580 0.7278
67.1400 22.3646 0.7397
67.1600 22.3712 0.7472
67.1800 22.3779 0.7269
67.2000 22.3846 0.7394
67.2200 22.3913 0.7351
67.2400 22.3980 0.7235
67.2600 22.4047 0.7376
67.2800 22.4114 0.7362
67.3000 22.4180 0.7199
67.3200 22.4246 0.7409
67.3400 22.4312 0.7309
67.3600 22.4379 0.7186
67.3800 22.4446 0.7421
67.4000 22.4514 0.7278
67.4200 22.4580 0.7105
67.4400 22.4647 0.7398
67.4600 22.4714 0.7268
67.4800 22.4780 0.7079
67.5000 22.4846 0.7343
67.5200 22.4912 0.7232
67.5400 22.4979 0.7117
67.5600 22.5046 0.7296
67.5800 22.5113 0.7173
67.6000 22.5180 0.7106
67.6200 22.5246 0.7355
67.6400 22.5313 0.7053
67.6600 22.5380 0.7139
67.6800 22.5446 0.7304
67.7000 22.5512 0.7045
67.7200 22.5579 0.7106
67.7400 22.5646 0.7289
67.7600 22.5713 0.7042
67.7800 22.5780 0.7091
67.8000 22.5847 0.7220
67.8200 22.5914 0.7028
67.8400 22.5981 0.7058
67.8600 22.6047 0.7183
67.8800 22.6113 0.7037
67.9000 22.6179 0.7090
67.9200 22.6246 0.7158
67.9400 22.6314 0.7000
67.9600 22.6381 0.7104
67.9800 22.6447 0.7071
68.0000 22.6514 0.7040
68.0200 22.6580 0.7056
68.0400 22.6646 0.7050
68.0600 22.6712 0.6959
68.0800 22.6779 0.7027
68.1000 22.6846 0.7058
68.1200 22.6913 0.6977
68.1400 22.6980 0.6961
68.1600 22.7046 0.7032
68.1800 22.7113 0.6943
68.2000 22.7180 0.6955
68.2200 22.7246 0.6992
68.2400 22.7312 0.6967
68.2600 22.7379 0.6910
68.2800 22.7446 0.6974
68.3000 22.7513 0.6903
68.3200 22.7580 0.6914
68.3400 22.7646 0.7009
68.3600 22.7713 0.6870
68.3800 22.7780 0.6898
68.4000 22.7846 0.6976
68.4200 22.7912 0.6813
68.4400 22.7979 0.6945
68.4600 22.8046 0.6930
68.4800 22.8113 0.6793
68.5000 22.8180 0.6933
68.5200 22.8247 0.6907
68.5400 22.8314 0.6768
68.5600 22.8380 0.6934
68.5800 22.8447 0.6908
68.6000 22.8513 0.6713
68.6200 22.8580 0.6936
68.6400 22.8646 0.6805
68.6600 22.8713 0.6770
68.6800 22.8780 0.6938
68.7000 22.8847 0.6732
68.7200 22.8914 0.6746
68.7400 22.8981 0.6958
68.7600 22.9046 0.6686
68.7800 22.9112 0.6773
68.8000 22.9179 0.6918
68.8200 22.9246 0.6676
68.8400 22.9313 0.6728
68.8600 22.9380 0.6899
68.8800 22.9447 0.6611
68.9000 22.9514 0.6837
68.9200 22.9580 0.6854
68.9400 22.9646 0.6608
68.9600 22.9712 0.6851
68.9800 22.9779 0.6818
69.0000 22.9846 0.6589
69.0200 22.9913 0.6820
69.0400 22.9980 0.6776
69.0600 23.0046 0.6582
69.0800 23.0113 0.6781
69.1000 23.0180 0.6659
69.1200 23.0246 0.6645
69.1400 23.0313 0.6777
69.1600 23.0379 0.6674
69.1800 23.0446 0.6616
69.2000 23.0513 0.6707
69.2200 23.0580 0.6669
69.2400 23.0647 0.6668
69.2600 23.0714 0.6601
69.2800 23.0781 0.6667
69.3000 23.0847 0.6679
69.3200 23.0913 0.6560
69.3400 23.0979 0.6635
69.3600 23.1046 0.6709
69.3800 23.1113 0.6517
69.4000 23.1180 0.6657
69.4200 23.1247 0.6656
69.4400 23.1314 0.6502
69.4600 23.1380 0.6662
69.4800 23.1446 0.6621
69.5000 23.1513 0.6512
69.5200 23.1579 0.6693
69.5400 23.1646 0.6582
69.5600 23.1713 0.6479
69.5800 23.1780 0.6720
69.6000 23.1846 0.6479
69.6200 23.1913 0.6557
69.6400 23.1980 0.6733
69.6600 23.2046 0.6415
69.6800 23.2113 0.6540
69.7000 23.2179 0.6749
69.7200 23.2245 0.6372
69.7400 23.2313 0.6564
69.7600 23.2380 0.6698
69.7800 23.2447 0.6352
69.8000 23.2514 0.6531
69.8200 23.2580 0.6680
69.8400 23.2647 0.6345
69.8600 23.2712 0.6565
69.8800 23.2779 0.6602
69.9000 23.2846 0.6368
69.9200 23.2913 0.6596
69.9400 23.2981 0.6521
69.9600 23.3047 0.6360
69.9800 23.3114 0.6613
70.0000 23.3180 0.6419
70.0200 23.3247 0.6391
70.0400 23.3313 0.6602
70.0600 23.3379 0.6442
70.0800 23.3446 0.6430
70.1000 23.3513 0.6494
70.1200 23.3580 0.6416
70.1400 23.3647 0.6416
70.1600 23.3713 0.6461
70.1800 23.3780 0.6381
70.2000 23.3846 0.6418
70.2200 23.3913 0.6444
70.2400 23.3979 0.6395
70.2600 23.4046 0.6411
70.2800 23.4113 0.6423
70.3000 23.4180 0.6381
70.3200 23.4247 0.6404
70.3400 23.4313 0.6300
70.3600 23.4380 0.6387
70.3800 23.4446 0.6396
70.4000 23.4512 0.6286
70.4200 23.4579 0.6368
70.4400 23.4646 0.6417
70.4600 23.4713 0.6271
70.4800 23.4780 0.6312
70.5000 23.4847 0.6371
70.5200 23.4913 0.6230
70.5400 23.4980 0.6322
70.5600 23.5046 0.6348
70.5800 23.5113 0.6250
70.6000 23.5179 0.6329
70.6200 23.5246 0.6261
70.6400 23.5313 0.6262
70.6600 23.5380 0.6318
70.6800 23.5447 0.6242
70.7000 23.5514 0.6275
70.7200 23.5580 0.6228
70.7400 23.5647 0.6247
70.7600 23.5713 0.6192
70.7800 23.5779 0.6262
70.8000 23.5846 0.6262
70.8200 23.5913 0.6147
70.8400 23.5980 0.6200
70.8600 23.6047 0.6264
70.8800 23.6114 0.6135
70.9000 23.6181 0.6178
70.9200 23.6247 0.6269
70.9400 23.6313 0.6141
70.9600 23.6379 0.6163
70.9800 23.6446 0.6249
71.0000 23.6513 0.6082
71.0200 23.6580 0.6174
71.0400 23.6647 0.6287
71.0600 23.6713 0.6079
71.0800 23.6780 0.6120
71.1000 23.6847 0.6249
71.1200 23.6913 0.6027
71.1400 23.6979 0.6139
71.1600 23.7046 0.6252
71.1800 23.7113 0.5968
71.2000 23.7180 0.6142
71.2200 23.7246 0.6171
71.2400 23.7313 0.5990
71.2600 23.7380 0.6099
71.2800 23.7447 0.6140
71.3000 23.7513 0.5955
71.3200 23.7579 0.6155
71.3400 23.7646 0.6125
71.3600 23.7713 0.5972
71.3800 23.7780 0.6075
71.4000 23.7847 0.6127
71.4200 23.7914 0.5972
71.4400 23.7981 0.6097
71.4600 23.8047 0.6090
71.4800 23.8113 0.5915
71.5000 23.8179 0.6046
71.5200 23.8246 0.6101
71.5400 23.8313 0.5893
71.5600 23.8380 0.6036
71.5800 23.8447 0.6034
71.6000 23.8514 0.5869
71.6200 23.8580 0.6055
71.6400 23.8647 0.5993
71.6600 23.8713 0.5895
71.6800 23.8779 0.6002
71.7000 23.8846 0.5986
71.7200 23.8913 0.5882
71.7400 23.8980 0.6063
71.7600 23.9047 0.5926
71.7800 23.9113 0.5844
71.8000 23.9180 0.5939
71.8200 23.9247 0.5920
71.8400 23.9313 0.5871
71.8600 23.9379 0.5960
71.8800 23.9445 0.5899
71.9000 23.9512 0.5863
71.9200 23.9579 0.5901
71.9400 23.9646 0.5927
71.9600 23.9713 0.5865
71.9800 23.9780 0.5851
72.0000 23.9846 0.5855
72.0200 23.9912 0.5814
72.0400 23.9979 0.5851
72.0600 24.0045 0.5895
72.0800 24.0113 0.5816
72.1000 24.0180 0.5794
72.1200 24.0247 0.5830
72.1400 24.0314 0.5798
72.1600 24.0381 0.5845
72.1800 24.0447 0.5832
72.2000 24.0513 0.5734
72.2200 24.0580 0.5811
72.2400 24.0646 0.5849
72.2600 24.0713 0.5722
72.2800 24.0780 0.5834
72.3000 24.0847 0.5844
72.3200 24.0914 0.5722
72.3400 24.0980 0.5755
72.3600 24.1047 0.5858
72.3800 24.1113 0.5713
72.4000 24.1179 0.5781
72.4200 24.1245 0.5870
72.4400 24.1312 0.5708
72.4600 24.1380 0.5753
72.4800 24.1446 0.5831
72.5000 24.1513 0.5673
72.5200 24.1580 0.5761
72.5400 24.1646 0.5750
72.5600 24.1713 0.5663
72.5800 24.1779 0.5778
72.6000 24.1845 0.5780
72.6200 24.1913 0.5647
72.6400 24.1980 0.5749
72.6600 24.2047 0.5729
72.6800 24.2113 0.5579
72.7000 24.2180 0.5795
72.7200 24.2247 0.5718
72.7400 24.2313 0.5591
72.7600 24.2380 0.5799
72.7800 24.2446 0.5695
72.8000 24.2513 0.5540
72.8200 24.2580 0.5819
72.8400 24.2647 0.5653
72.8600 24.2714 0.5596
72.8800 24.2780 0.5742
72.9000 24.2847 0.5633
72.9200 24.2913 0.5595
72.9400 24.2979 0.5727
72.9600 24.3046 0.5611
72.9800 24.3113 0.5646
73.0000 24.3180 0.5666
73.0200 24.3247 0.5572
73.0400 24.3314 0.5671
73.0600 24.3380 0.5682
73.0800 24.3447 0.5566
73.1000 24.3513 0.5635
73.1200 24.3579 0.5596
73.1400 24.3646 0.5592
73.1600 24.3713 0.5673
73.1800 24.3780 0.5507
73.2000 24.3847 0.5623
73.2200 24.3913 0.5636
73.2400 24.3980 0.5542
73.2600 24.4047 0.5586
73.2800 24.4113 0.5581
73.3000 24.4179 0.5491
73.3200 24.4246 0.5634
73.3400 24.4312 0.5558
73.3600 24.4379 0.5526
73.3800 24.4446 0.5607
73.4000 24.4513 0.5515
73.4200 24.4580 0.5481
73.4400 24.4647 0.5581
73.4600 24.4713 0.5469
73.4800 24.4779 0.5465
73.5000 24.4846 0.5546
73.5200 24.4913 0.5461
73.5400 24.4980 0.5445
73.5600 24.5047 0.5548
73.5800 24.5114 0.5442
73.6000 24.5180 0.5341
73.6200 24.5247 0.5528
73.6400 24.5313 0.5412
73.6600 24.5379 0.5373
73.6800 24.5446 0.5544
73.7000 24.5513 0.5400
73.7200 24.5580 0.5368
73.7400 24.5647 0.5542
73.7600 24.5714 0.5328
73.7800 24.5780 0.5364
73.8000 24.5847 0.5427
73.8200 24.5913 0.5338
73.8400 24.5979 0.5331
73.8600 24.6046 0.5525
73.8800 24.6112 0.5336
73.9000 24.6180 0.5255
73.9200 24.6247 0.5381
73.9400 24.6313 0.5374
73.9600 24.6380 0.5304
73.9800 24.6447 0.5358
74.0000 24.6513 0.5350
74.0200 24.6579 0.5253
74.0400 24.6645 0.5336
74.0600 24.6712 0.5326
74.0800 24.6779 0.5248
74.1000 24.6847 0.5338
74.1200 24.6913 0.5320
74.1400 24.6980 0.5199
74.1600 24.7047 0.5366
74.1800 24.7113 0.5292
74.2000 24.7179 0.5190
74.2200 24.7246 0.5282
74.2400 24.7313 0.5360
74.2600 24.7380 0.5117
74.2800 24.7447 0.5293
74.3000 24.7514 0.5292
74.3200 24.7581 0.5121
74.3400 24.7647 0.5352
74.3600 24.7714 0.5266
74.3800 24.7780 0.5070
74.4000 24.7846 0.5378
74.4200 24.7913 0.5217
74.4400 24.7980 0.5091
74.4600 24.8047 0.5296
74.4800 24.8114 0.5270
74.5000 24.8180 0.5096
74.5200 24.8247 0.5322
74.5400 24.8313 0.5221
74.5600 24.8379 0.5057
74.5800 24.8445 0.5364
74.6000 24.8512 0.5278
74.6200 24.8580 0.5095
74.6400 24.8647 0.5205
74.6600 24.8713 0.5222
74.6800 24.8780 0.5110
74.7000 24.8847 0.5249
74.7200 24.8913 0.5222
74.7400 24.8979 0.5146
74.7600 24.9046 0.5171
74.7800 24.9113 0.5208
74.8000 24.9180 0.5128
74.8200 24.9246 0.5218
74.8400 24.9313 0.5194
74.8600 24.9380 0.5070
74.8800 24.9447 0.5198
74.9000 24.9513 0.5284
74.9200 24.9579 0.5019
74.9400 24.9646 0.5194
74.9600 24.9712 0.5352
74.9800 24.9780 0.5014
75.0000 24.9847 0.5053
75.0200 24.9914 0.5387
75.0400 24.9980 0.5013
75.0600 25.0047 0.5031
75.0800 25.0113 0.5343
75.1000 25.0179 0.4987
75.1200 25.0246 0.5063
75.1400 25.0313 0.5312
75.1600 25.0380 0.4950
75.1800 25.0447 0.5067
75.2000 25.0514 0.5293
75.2200 25.0581 0.4901
75.2400 25.0647 0.5088
75.2600 25.0714 0.5245
75.2800 25.0779 0.4918
75.3000 25.0846 0.5088
75.3200 25.0912 0.5179
75.3400 25.0980 0.4880
75.3600 25.1046 0.5126
75.3800 25.1113 0.5192
75.4000 25.1180 0.4865
75.4200 25.1247 0.5049
75.4400 25.1313 0.5162
75.4600 25.1379 0.4875
75.4800 25.1445 0.5134
75.5000 25.1512 0.5151
75.5200 25.1579 0.4881
75.5400 25.1646 0.5002
75.5600 25.1713 0.5120
75.5800 25.1780 0.4974
75.6000 25.1847 0.5010
75.6200 25.1913 0.4998
75.6400 25.1979 0.4873
75.6600 25.2046 0.5024
75.6800 25.2113 0.5050
75.7000 25.2180 0.4911
75.7200 25.2247 0.4978
75.7400 25.2314 0.4988
75.7600 25.2380 0.4834
75.7800 25.2447 0.5003
75.8000 25.2513 0.4993
75.8200 25.2580 0.4828
75.8400 25.2646 0.4929
75.8600 25.2713 0.4991
75.8800 25.2780 0.4842
75.9000 25.2847 0.4906
75.9200 25.2914 0.4966
75.9400 25.2981 0.4793
75.9600 25.3047 0.4872
75.9800 25.3114 0.4941
76.0000 25.3180 0.4788
76.0200 25.3246 0.4922
76.0400 25.3312 0.4881
76.0600 25.3379 0.4763
76.0800 25.3446 0.4891
76.1000 25.3513 0.4869
76.1200 25.3580 0.4754
76.1400 25.3647 0.4892
76.1600 25.3713 0.4801
76.1800 25.3779 0.4729
76.2000 25.3845 0.4918
76.2200 25.3912 0.4776
76.2400 25.3979 0.4746
76.2600 25.4046 0.4848
76.2800 25.4113 0.4741
76.3000 25.4180 0.4746
76.3200 25.4246 0.4840
76.3400 25.4313 0.4649
76.3600 25.4379 0.4803
76.3800 25.4446 0.4796
76.4000 25.4512 0.4674
76.4200 25.4580 0.4737
76.4400 25.4647 0.4823
76.4600 25.4714 0.4691
76.4800 25.4780 0.4775
76.5000 25.4847 0.4745
76.5200 25.4914 0.4676
76.5400 25.4980 0.4802
76.5600 25.5046 0.4729
76.5800 25.5113 0.4691
76.6000 25.5180 0.4819
76.6200 25.5247 0.4653
76.6400 25.5314 0.4700
76.6600 25.5381 0.4777
76.6800 25.5447 0.4619
76.7000 25.5513 0.4686
76.7200 25.5579 0.4739
76.7400 25.5646 0.4636
76.7600 25.5712 0.4694
76.7800 25.5779 0.4762
76.8000 25.5846 0.4564
76.8200 25.5913 0.4678
76.8400 25.5979 0.4698
76.8600 25.6046 0.4601
76.8800 25.6113 0.4671
76.9000 25.6179 0.4722
76.9200 25.6245 0.4564
76.9400 25.6312 0.4691
76.9600 25.6379 0.4685
76.9800 25.6446 0.4606
77.0000 25.6513 0.4615
77.0200 25.6580 0.4716
77.0400 25.6647 0.4561
77.0600 25.6714 0.4605
77.0800 25.6780 0.4699
77.1000 25.6846 0.4576
77.1200 25.6912 0.4599
77.1400 25.6979 0.4666
77.1600 25.7047 0.4559
77.1800 25.7113 0.4619
77.2000 25.7180 0.4653
77.2200 25.7247 0.4488
77.2400 25.7314 0.4597
77.2600 25.7380 0.4635
77.2800 25.7446 0.4512
77.3000 25.7512 0.4560
77.3200 25.7580 0.4628
77.3400 25.7647 0.4472
77.3600 25.7714 0.4592
77.3800 25.7780 0.4640
77.4000 25.7847 0.4502
77.4200 25.7914 0.4536
77.4400 25.7980 0.4581
77.4600 25.8046 0.4416
77.4800 25.8113 0.4537
77.5000 25.8179 0.4586
77.5200 25.8246 0.4459
77.5400 25.8313 0.4458
77.5600 25.8380 0.4595
77.5800 25.8447 0.4466
77.6000 25.8514 0.4439
77.6200 25.8580 0.4588
77.6400 25.8646 0.4449
77.6600 25.8712 0.4392
77.6800 25.8779 0.4506
77.7000 25.8846 0.4449
77.7200 25.8913 0.4418
77.7400 25.8980 0.4506
77.7600 25.9047 0.4360
77.7800 25.9113 0.4419
77.8000 25.9179 0.4542
77.8200 25.9246 0.4389
77.8400 25.9312 0.4347
77.8600 25.9379 0.4464
77.8800 25.9447 0.4398
77.9000 25.9513 0.4343
77.9200 25.9580 0.4431
77.9400 25.9647 0.4407
77.9600 25.9714 0.4302
77.9800 25.9780 0.4417
78.0000 25.9846 0.4353
78.0200 25.9912 0.4325
78.0400 25.9979 0.4439
78.0600 26.0046 0.4325
78.0800 26.0113 0.4224
78.1000 26.0180 0.4425
78.1200 26.0247 0.4357
78.1400 26.0314 0.4195
78.1600 26.0380 0.4369
78.1800 26.0446 0.4354
78.2000 26.0512 0.4249
78.2200 26.0579 0.4386
78.2400 26.0647 0.4313
78.2600 26.0714 0.4157
78.2800 26.0780 0.4392
78.3000 26.0847 0.4279
78.3200 26.0913 0.4166
78.3400 26.0980 0.4335
78.3600 26.1046 0.4251
78.3800 26.1112 0.4119
78.4000 26.1179 0.4347
78.4200 26.1246 0.4238
78.4400 26.1313 0.4136
78.4600 26.1379 0.4289
78.4800 26.1446 0.4230
78.5000 26.1513 0.4083
78.5200 26.1580 0.4318
78.5400 26.1646 0.4219
78.5600 26.1712 0.4112
78.5800 26.1779 0.4259
78.6000 26.1847 0.4113
78.6200 26.1914 0.4115
78.6400 26.1980 0.4250
78.6600 26.2047 0.4139
78.6800 26.2114 0.4071
78.7000 26.2180 0.4209
78.7200 26.2246 0.4139
78.7400 26.2313 0.4049
78.7600 26.2380 0.4198
78.7800 26.2447 0.4164
78.8000 26.2514 0.3979
78.8200 26.2580 0.4146
78.8400 26.2647 0.4153
78.8600 26.2713 0.3983
78.8800 26.2780 0.4170
78.9000 26.2846 0.4135
78.9200 26.2912 0.3933
78.9400 26.2979 0.4192
78.9600 26.3046 0.4093
78.9800 26.3113 0.3949
79.0000 26.3180 0.4162
79.0200 26.3247 0.4107
79.0400 26.3314 0.3887
79.0600 26.3380 0.4140
79.0800 26.3446 0.4133
79.1000 26.3512 0.3946
79.1200 26.3579 0.4080
79.1400 26.3646 0.4048
79.1600 26.3713 0.3932
79.1800 26.3780 0.4078
79.2000 26.3847 0.4048
79.2200 26.3914 0.3912
79.2400 26.3980 0.4072
79.2600 26.4046 0.4026
79.2800 26.4112 0.3973
79.3000 26.4179 0.4053
79.3200 26.4247 0.3987
79.3400 26.4313 0.3922
79.3600 26.4380 0.4039
79.3800 26.4447 0.3988
79.4000 26.4514 0.3948
79.4200 26.4580 0.4013
79.4400 26.4646 0.3943
79.4600 26.4713 0.3929
79.4800 26.4779 0.4034
79.5000 26.4846 0.3911
79.5200 26.4913 0.3977
79.5400 26.4980 0.3989
79.5600 26.5047 0.3916
79.5800 26.5114 0.3968
79.6000 26.5180 0.3998
79.6200 26.5246 0.3899
79.6400 26.5312 0.3968
79.6600 26.5379 0.3968
79.6800 26.5446 0.3871
79.7000 26.5513 0.4026
79.7200 26.5580 0.3938
79.7400 26.5647 0.3886
79.7600 26.5714 0.3973
79.7800 26.5780 0.3929
79.8000 26.5846 0.3914
79.8200 26.5912 0.3939
79.8400 26.5979 0.3902
79.8600 26.6046 0.3885
79.8800 26.6113 0.3944
79.9000 26.6179 0.3924
79.9200 26.6246 0.3858
79.9400 26.6313 0.4025
79.9600 26.6380 0.3843
79.9800 26.6446 0.3852
80.0000 26.6513 0.3994
80.0200 26.6579 0.3868
80.0400 26.6646 0.3851
80.0600 26.6714 0.3972
80.0800 26.6780 0.3813
80.1000 26.6847 0.3869
80.1200 26.6914 0.3996
80.1400 26.6980 0.3787
80.1600 26.7046 0.3902
80.1800 26.7112 0.3976
80.2000 26.7179 0.3755
80.2200 26.7246 0.3927
80.2400 26.7314 0.3959
80.2600 26.7380 0.3756
80.2800 26.7447 0.3936
80.3000 26.7514 0.3856
80.3200 26.7580 0.3737
80.3400 26.7646 0.3921
80.3600 26.7712 0.3870
80.3800 26.7779 0.3740
80.4000 26.7846 0.3888
80.4200 26.7913 0.3802
80.4400 26.7980 0.3792
80.4600 26.8047 0.3861
80.4800 26.8113 0.3752
80.5000 26.8180 0.3738
80.5200 26.8246 0.3842
80.5400 26.8312 0.3736
80.5600 26.8379 0.3779
80.5800 26.8446 0.3825
80.6000 26.8513 0.3746
80.6200 26.8580 0.3688
80.6400 26.8646 0.3771
80.6600 26.8713 0.3803
80.6800 26.8780 0.3668
80.7000 26.8846 0.3728
80.7200 26.8912 0.3762
80.7400 26.8979 0.3646
80.7600 26.9046 0.3694
80.7800 26.9114 0.3808
80.8000 26.9181 0.3619
80.8200 26.9247 0.3729
80.8400 26.9314 0.3699
80.8600 26.9380 0.3579
80.8800 26.9446 0.3732
80.9000 26.9512 0.3771
80.9200 26.9579 0.3577
80.9400 26.9647 0.3663
80.9600 26.9714 0.3678
80.9800 26.9780 0.3607
81.0000 26.9847 0.3655
81.0200 26.9914 0.3670
81.0400 26.9980 0.3587
81.0600 27.0046 0.3600
81.0800 27.0113 0.3595
81.1000 27.0179 0.3609
81.1200 27.0246 0.3591
81.1400 27.0313 0.3546
81.1600 27.0380 0.3635
81.1800 27.0446 0.3614
81.2000 27.0513 0.3549
81.2200 27.0580 0.3608
81.2400 27.0646 0.3564
81.2600 27.0712 0.3569
81.2800 27.0779 0.3642
81.3000 27.0846 0.3542
81.3200 27.0913 0.3566
81.3400 27.0980 0.3536
81.3600 27.1047 0.3503
81.3800 27.1113 0.3540
81.4000 27.1180 0.3504
81.4200 27.1246 0.3475
81.4400 27.1313 0.3594
81.4600 27.1380 0.3461
81.4800 27.1447 0.3436
81.5000 27.1513 0.3569
81.5200 27.1580 0.3525
81.5400 27.1647 0.3406
81.5600 27.1713 0.3525
81.5800 27.1780 0.3432
81.6000 27.1846 0.3441
81.6200 27.1913 0.3592
81.6400 27.1979 0.3409
81.6600 27.2046 0.3481
81.6800 27.2113 0.3518
81.7000 27.2180 0.3391
81.7200 27.2247 0.3441
81.7400 27.2314 0.3553
81.7600 27.2380 0.3389
81.7800 27.2446 0.3407
81.8000 27.2512 0.3482
81.8200 27.2579 0.3414
81.8400 27.2646 0.3442
81.8600 27.2714 0.3492
81.8800 27.2780 0.3394
81.9000 27.2847 0.3438
81.9200 27.2914 0.3470
81.9400 27.2980 0.3376
81.9600 27.3046 0.3364
81.9800 27.3112 0.3504
82.0000 27.3179 0.3395
82.0200 27.3246 0.3342
82.0400 27.3313 0.3446
82.0600 27.3380 0.3434
82.0800 27.3446 0.3374
82.1000 27.3513 0.3467
82.1200 27.3580 0.3351
82.1400 27.3646 0.3350
82.1600 27.3712 0.3475
82.1800 27.3779 0.3353
82.2000 27.3846 0.3372
82.2200 27.3913 0.3443
82.2400 27.3980 0.3361
82.2600 27.4048 0.3344
82.2800 27.4114 0.3378
82.3000 27.4181 0.3355
82.3200 27.4247 0.3346
82.3400 27.4313 0.3425
82.3600 27.4379 0.3355
82.3800 27.4446 0.3334
82.4000 27.4514 0.3378
82.4200 27.4581 0.3287
82.4400 27.4647 0.3358
82.4600 27.4714 0.3363
82.4800 27.4780 0.3267
82.5000 27.4846 0.3273
82.5200 27.4913 0.3393
82.5400 27.4979 0.3308
82.5600 27.5046 0.3301
82.5800 27.5113 0.3273
82.6000 27.5180 0.3277
82.6200 27.5246 0.3229
82.6400 27.5313 0.3338
82.6600 27.5380 0.3295
82.6800 27.5446 0.3180
82.7000 27.5512 0.3306
82.7200 27.5578 0.3312
82.7400 27.5645 0.3206
82.7600 27.5713 0.3291
82.7800 27.5780 0.3253
82.8000 27.5847 0.3171
82.8200 27.5913 0.3297
82.8400 27.5980 0.3176
82.8600 27.6046 0.3165
82.8800 27.6112 0.3324
82.9000 27.6179 0.3172
82.9200 27.6246 0.3169
82.9400 27.6313 0.3330
82.9600 27.6380 0.3103
82.9800 27.6447 0.3198
83.0000 27.6514 0.3236
83.0200 27.6580 0.3117
83.0400 27.6647 0.3169
83.0600 27.6713 0.3252
83.0800 27.6780 0.3122
83.1000 27.6847 0.3147
83.1200 27.6913 0.3156
83.1400 27.6980 0.3110
83.1600 27.7047 0.3195
83.1800 27.7114 0.3136
83.2000 27.7181 0.3115
83.2200 27.7247 0.3121
83.2400 27.7313 0.3098
83.2600 27.7379 0.3187
83.2800 27.7446 0.3150
83.3000 27.7513 0.3095
83.3200 27.7580 0.3168
83.3400 27.7647 0.3102
83.3600 27.7713 0.3062
83.3800 27.7780 0.3168
83.4000 27.7846 0.3101
83.4200 27.7912 0.3051
83.4400 27.7978 0.3206
83.4600 27.8045 0.3040
83.4800 27.8113 0.3090
83.5000 27.8180 0.3162
83.5200 27.8247 0.3029
83.5400 27.8313 0.3081
83.5600 27.8380 0.3124
83.5800 27.8447 0.2995
83.6000 27.8513 0.3133
83.6200 27.8579 0.3105
83.6400 27.8646 0.3048
83.6600 27.8713 0.3057
83.6800 27.8780 0.3109
83.7000 27.8847 0.3022
83.7200 27.8914 0.3027
83.7400 27.8981 0.3073
83.7600 27.9047 0.3001
83.7800 27.9113 0.3037
83.8000 27.9179 0.3057
83.8200 27.9246 0.3021
83.8400 27.9313 0.2982
83.8600 27.9380 0.3029
83.8800 27.9447 0.3012
83.9000 27.9514 0.2974
83.9200 27.9580 0.3009
83.9400 27.9647 0.3015
83.9600 27.9713 0.2909
83.9800 27.9779 0.3053
84.0000 27.9846 0.3027
84.0200 27.9913 0.2881
84.0400 27.9980 0.3023
84.0600 28.0047 0.3064
84.0800 28.0113 0.2818
84.1000 28.0180 0.3024
84.1200 28.0247 0.3025
84.1400 28.0313 0.2834
84.1600 28.0379 0.3016
84.1800 28.0445 0.2967
84.2000 28.0512 0.2817
84.2200 28.0579 0.3028
84.2400 28.0646 0.2955
84.2600 28.0713 0.2792
84.2800 28.0780 0.3032
84.3000 28.0847 0.2933
84.3200 28.0913 0.2781
84.3400 28.0979 0.3027
84.3600 28.1046 0.2963
84.3800 28.1113 0.2758
84.4000 28.1180 0.3012
84.4200 28.1247 0.2877
84.4400 28.1314 0.2785
84.4600 28.1381 0.2964
84.4800 28.1447 0.2850
84.5000 28.1513 0.2765
84.5200 28.1579 0.3012
84.5400 28.1646 0.2839
84.5600 28.1713 0.2799
84.5800 28.1780 0.2898
84.6000 28.1847 0.2875
84.6200 28.1913 0.2784
84.6400 28.1980 0.2859
84.6600 28.2047 0.2857
84.6800 28.2113 0.2800
84.7000 28.2179 0.2923
84.7200 28.2245 0.2814
84.7400 28.2313 0.2766
84.7600 28.2380 0.2910
84.7800 28.2447 0.2808
84.8000 28.2513 0.2771
84.8200 28.2580 0.2864
84.8400 28.2647 0.2797
84.8600 28.2713 0.2775
84.8800 28.2779 0.2817
84.9000 28.2845 0.2866
84.9200 28.2913 0.2677
84.9400 28.2980 0.2810
84.9600 28.3047 0.2848
84.9800 28.3113 0.2738
85.0000 28.3180 0.2840
85.0200 28.3246 0.2786
85.0400 28.3313 0.2689
85.0600 28.3379 0.2864
85.0800 28.3446 0.2765
85.1000 28.3513 0.2709
85.1200 28.3580 0.2828
85.1400 28.3647 0.2768
85.1600 28.3714 0.2631
85.1800 28.3780 0.2834
85.2000 28.3847 0.2750
85.2200 28.3913 0.2682
85.2400 28.3979 0.2814
85.2600 28.4046 0.2725
85.2800 28.4113 0.2681
85.3000 28.4180 0.2773
85.3200 28.4247 0.2698
85.3400 28.4314 0.2679
85.3600 28.4380 0.2740
85.3800 28.4447 0.2662
85.4000 28.4513 0.2704
85.4200 28.4579 0.2691
85.4400 28.4646 0.2721
85.4600 28.4713 0.2687
85.4800 28.4780 0.2690
85.5000 28.4847 0.2657
85.5200 28.4913 0.2683
85.5400 28.4980 0.2626
85.5600 28.5046 0.2729
85.5800 28.5113 0.2572
85.6000 28.5179 0.2646
85.6200 28.5245 0.2753
85.6400 28.5313 0.2562
85.6600 28.5380 0.2639
85.6800 28.5446 0.2740
85.7000 28.5513 0.2545
85.7200 28.5580 0.2628
85.7400 28.5647 0.2680
85.7600 28.5713 0.2530
85.7800 28.5779 0.2666
85.8000 28.5846 0.2712
85.8200 28.5913 0.2501
85.8400 28.5980 0.2609
85.8600 28.6047 0.2647
85.8800 28.6114 0.2496
85.9000 28.6181 0.2604
85.9200 28.6247 0.2586
85.9400 28.6313 0.2502
85.9600 28.6379 0.2585
85.9800 28.6446 0.2641
86.0000 28.6513 0.2519
86.0200 28.6580 0.2557
86.0400 28.6647 0.2607
86.0600 28.6714 0.2507
86.0800 28.6780 0.2483
86.1000 28.6847 0.2573
86.1200 28.6913 0.2477
86.1400 28.6979 0.2536
86.1600 28.7046 0.2595
86.1800 28.7113 0.2506
86.2000 28.7180 0.2452
86.2200 28.7247 0.2545
86.2400 28.7313 0.2483
86.2600 28.7380 0.2452
86.2800 28.7447 0.2568
86.3000 28.7513 0.2442
86.3200 28.7579 0.2492
86.3400 28.7645 0.2574
86.3600 28.7712 0.2459
86.3800 28.7779 0.2417
86.4000 28.7846 0.2580
86.4200 28.7913 0.2458
86.4400 28.7980 0.2421
86.4600 28.8046 0.2525
86.4800 28.8112 0.2432
86.5000 28.8179 0.2415
86.5200 28.8246 0.2526
86.5400 28.8313 0.2357
86.5600 28.8380 0.2386
86.5800 28.8447 0.2523
86.6000 28.8514 0.2384
86.6200 28.8581 0.2349
86.6400 28.8647 0.2488
86.6600 28.8714 0.2332
86.6800 28.8780 0.2340
86.7000 28.8846 0.2540
86.7200 28.8913 0.2318
86.7400 28.8980 0.2277
86.7600 28.9047 0.2478
86.7800 28.9114 0.2336
86.8000 28.9180 0.2318
86.8200 28.9247 0.2471
86.8400 28.9313 0.2257
86.8600 28.9379 0.2308
86.8800 28.9445 0.2452
86.9000 28.9512 0.2334
86.9200 28.9580 0.2298
86.9400 28.9646 0.2485
86.9600 28.9713 0.2290
86.9800 28.9780 0.2301
87.0000 28.9847 0.2385
87.0200 28.9913 0.2300
87.0400 28.9979 0.2291
87.0600 29.0045 0.2451
87.0800 29.0113 0.2274
87.1000 29.0180 0.2255
87.1200 29.0247 0.2395
87.1400 29.0313 0.2316
87.1600 29.0380 0.2253
87.1800 29.0447 0.2403
87.2000 29.0513 0.2272
87.2200 29.0579 0.2233
87.2400 29.0646 0.2418
87.2600 29.0713 0.2261
87.2800 29.0780 0.2227
87.3000 29.0847 0.2413
87.3200 29.0914 0.2300
87.3400 29.0981 0.2168
87.3600 29.1047 0.2388
87.3800 29.1113 0.2255
87.4000 29.1179 0.2155
87.4200 29.1246 0.2369
87.4400 29.1313 0.2276
87.4600 29.1380 0.2153
87.4800 29.1447 0.2340
87.5000 29.1514 0.2210
87.5200 29.1580 0.2235
87.5400 29.1647 0.2330
87.5600 29.1713 0.2167
87.5800 29.1779 0.2155
87.6000 29.1846 0.2367
87.6200 29.1913 0.2174
87.6400 29.1980 0.2160
87.6600 29.2046 0.2333
87.6800 29.2113 0.2188
87.7000 29.2180 0.2177
87.7200 29.2247 0.2250
87.7400 29.2313 0.2139
87.7600 29.2379 0.2192
87.7800 29.2446 0.2248
87.8000 29.2512 0.2110
87.8200 29.2579 0.2180
87.8400 29.2646 0.2205
87.8600 29.2713 0.2102
87.8800 29.2780 0.2180
87.9000 29.2847 0.2203
87.9200 29.2913 0.2089
87.9400 29.2979 0.2223
87.9600 29.3046 0.2178
87.9800 29.3113 0.2151
88.0000 29.3180 0.2161
88.0200 29.3247 0.2097
88.0400 29.3314 0.2093
88.0600 29.3380 0.2151
88.0800 29.3447 0.2108
88.1000 29.3513 0.2139
88.1200 29.3579 0.2106
88.1400 29.3646 0.2097
88.1600 29.3713 0.2125
88.1800 29.3780 0.2063
88.2000 29.3847 0.2076
88.2200 29.3913 0.2139
88.2400 29.3980 0.2059
88.2600 29.4047 0.2043
88.2800 29.4114 0.2102
88.3000 29.4179 0.2072
88.3200 29.4245 0.2103
88.3400 29.4312 0.2044
88.3600 29.4379 0.2054
88.3800 29.4446 0.2063
88.4000 29.4513 0.2057
88.4200 29.4580 0.1990
88.4400 29.4647 0.2070
88.4600 29.4713 0.2025
88.4800 29.4779 0.2009
88.5000 29.4845 0.2062
88.5200 29.4912 0.2021
88.5400 29.4980 0.1996
88.5600 29.5047 0.2042
88.5800 29.5113 0.2001
88.6000 29.5180 0.2044
88.6200 29.5247 0.1995
88.6400 29.5313 0.1981
88.6600 29.5379 0.1996
88.6800 29.5446 0.2046
88.7000 29.5513 0.1953
88.7200 29.5580 0.1960
88.7400 29.5647 0.2005
88.7600 29.5713 0.1946
88.7800 29.5780 0.2007
88.8000 29.5847 0.1990
88.8200 29.5914 0.1923
88.8400 29.5980 0.1972
88.8600 29.6046 0.1981
88.8800 29.6113 0.1910
88.9000 29.6180 0.1973
88.9200 29.6247 0.1927
88.9400 29.6314 0.1924
88.9600 29.6380 0.1957
88.9800 29.6447 0.1895
89.0000 29.6513 0.1889
89.0200 29.6579 0.1999
89.0400 29.6645 0.1902
89.0600 29.6712 0.1930
89.0800 29.6780 0.1921
89.1000 29.6847 0.1869
89.1200 29.6913 0.1895
89.1400 29.6980 0.1963
89.1600 29.7047 0.1864
89.1800 29.7113 0.1921
89.2000 29.7179 0.1931
89.2200 29.7246 0.1812
89.2400 29.7312 0.1952
89.2600 29.7379 0.1934
89.2800 29.7446 0.1787
89.3000 29.7513 0.1862
89.3200 29.7580 0.1905
89.3400 29.7647 0.1814
89.3600 29.7713 0.1906
89.3800 29.7780 0.1876
89.4000 29.7846 0.1825
89.4200 29.7912 0.1875
89.4400 29.7979 0.1878
89.4600 29.8047 0.1797
89.4800 29.8113 0.1913
89.5000 29.8180 0.1791
89.5200 29.8247 0.1771
89.5400 29.8314 0.1844
89.5600 29.8380 0.1843
89.5800 29.8446 0.1780
89.6000 29.8512 0.1858
89.6200 29.8580 0.1804
89.6400 29.8647 0.1709
89.6600 29.8714 0.1835
89.6800 29.8781 0.1840
89.7000 29.8847 0.1715
89.7200 29.8914 0.1814
89.7400 29.8980 0.1746
89.7600 29.9046 0.1717
89.7800 29.9112 0.1839
89.8000 29.9179 0.1733
89.8200 29.9246 0.1712
89.8400 29.9313 0.1790
89.8600 29.9380 0.1727
89.8800 29.9447 0.1691
89.9000 29.9513 0.1768
89.9200 29.9579 0.1658
89.9400 29.9646 0.1777
89.9600 29.9712 0.1740
89.9800 29.9779 0.1657
90.0000 29.9846 0.1748
90.0200 29.9913 0.1698
90.0400 29.9980 0.1613
90.0600 30.0047 0.1784
90.0800 30.0113 0.1638
90.1000 30.0179 0.1654
90.1200 30.0246 0.1786
90.1400 30.0313 0.1596
90.1600 30.0380 0.1647
90.1800 30.0447 0.1751
90.2000 30.0514 0.1577
90.2200 30.0581 0.1658
90.2400 30.0647 0.1718
90.2600 30.0714 0.1573
90.2800 30.0780 0.1678
90.3000 30.0846 0.1671
90.3200 30.0913 0.1572
90.3400 30.0980 0.1685
90.3600 30.1047 0.1657
90.3800 30.1114 0.1552
90.4000 30.1180 0.1644
90.4200 30.1247 0.1638
90.4400 30.1314 0.1552
90.4600 30.1380 0.1692
90.4800 30.1446 0.1626
90.5000 30.1512 0.1538
90.5200 30.1579 0.1699
90.5400 30.1646 0.1606
90.5600 30.1713 0.1587
90.5800 30.1780 0.1643
90.6000 30.1847 0.1567
90.6200 30.1913 0.1621
90.6400 30.1979 0.1617
90.6600 30.2045 0.1568
90.6800 30.2112 0.1657
90.7000 30.2179 0.1588
90.7200 30.2246 0.1546
90.7400 30.2313 0.1622
90.7600 30.2380 0.1589
90.7800 30.2447 0.1550
90.8000 30.2513 0.1612
90.8200 30.2580 0.1587
90.8400 30.2646 0.1536
90.8600 30.2712 0.1640
90.8800 30.2779 0.1555
90.9000 30.2847 0.1500
90.9200 30.2913 0.1610
90.9400 30.2980 0.1524
90.9600 30.3047 0.1480
90.9800 30.3114 0.1626
91.0000 30.3180 0.1561
91.0200 30.3246 0.1515
91.0400 30.3313 0.1571
91.0600 30.3380 0.1557
91.0800 30.3447 0.1505
91.1000 30.3514 0.1588
91.1200 30.3580 0.1514
91.1400 30.3647 0.1537
91.1600 30.3714 0.1554
91.1800 30.3780 0.1475
91.2000 30.3846 0.1502
91.2200 30.3912 0.1585
91.2400 30.3979 0.1501
91.2600 30.4046 0.1436
91.2800 30.4113 0.1529
91.3000 30.4179 0.1463
91.3200 30.4246 0.1493
91.3400 30.4313 0.1531
91.3600 30.4379 0.1419
91.3800 30.4446 0.1481
91.4000 30.4512 0.1549
91.4200 30.4579 0.1380
91.4400 30.4646 0.1475
91.4600 30.4713 0.1475
91.4800 30.4780 0.1439
91.5000 30.4847 0.1400
91.5200 30.4914 0.1453
91.5400 30.4980 0.1406
91.5600 30.5046 0.1471
91.5800 30.5112 0.1436
91.6000 30.5180 0.1390
91.6200 30.5247 0.1429
91.6400 30.5314 0.1428
91.6600 30.5380 0.1352
91.6800 30.5447 0.1439
91.7000 30.5514 0.1391
91.7200 30.5580 0.1360
91.7400 30.5646 0.1394
91.7600 30.5712 0.1431
91.7800 30.5779 0.1426
91.8000 30.5846 0.1360
91.8200 30.5913 0.1391
91.8400 30.5980 0.1371
91.8600 30.6047 0.1391
91.8800 30.6114 0.1359
91.9000 30.6180 0.1379
91.9200 30.6246 0.1311
91.9400 30.6313 0.1363
91.9600 30.6379 0.1348
91.9800 30.6446 0.1329
92.0000 30.6513 0.1386
92.0200 30.6580 0.1363
92.0400 30.6647 0.1222
92.0600 30.6714 0.1358
92.0800 30.6780 0.1346
92.1000 30.6846 0.1282
92.1200 30.6912 0.1346
92.1400 30.6979 0.1343
92.1600 30.7046 0.1217
92.1800 30.7113 0.1364
92.2000 30.7180 0.1334
92.2200 30.7247 0.1204
92.2400 30.7313 0.1310
92.2600 30.7380 0.1290
92.2800 30.7446 0.1208
92.3000 30.7512 0.1357
92.3200 30.7579 0.1322
92.3400 30.7646 0.1198
92.3600 30.7713 0.1310
92.3800 30.7780 0.1293
92.4000 30.7847 0.1175
92.4200 30.7914 0.1277
92.4400 30.7980 0.1302
92.4600 30.8046 0.1153
92.4800 30.8113 0.1274
92.5000 30.8179 0.1241
92.5200 30.8247 0.1227
92.5400 30.8314 0.1276
92.5600 30.8380 0.1242
92.5800 30.8447 0.1132
92.6000 30.8514 0.1255
92.6200 30.8580 0.1216
92.6400 30.8646 0.1142
92.6600 30.8712 0.1299
92.6800 30.8779 0.1178
92.7000 30.8847 0.1093
92.7200 30.8914 0.1304
92.7400 30.8980 0.1171
92.7600 30.9047 0.1159
92.7800 30.9114 0.1279
92.8000 30.9180 0.1133
92.8200 30.9246 0.1183
92.8400 30.9312 0.1250
92.8600 30.9379 0.1138
92.8800 30.9446 0.1212
92.9000 30.9513 0.1219
92.9200 30.9580 0.1078
92.9400 30.9646 0.1233
92.9600 30.9713 0.1158
92.9800 30.9780 0.1091
93.0000 30.9846 0.1227
93.0200 30.9912 0.1155
93.0400 30.9979 0.1101
93.0600 31.0046 0.1239
93.0800 31.0113 0.1061
93.1000 31.0180 0.1163
93.1200 31.0247 0.1174
93.1400 31.0314 0.1074
93.1600 31.0380 0.1145
93.1800 31.0446 0.1168
93.2000 31.0512 0.1095
93.2200 31.0579 0.1145
93.2400 31.0647 0.1138
93.2600 31.0714 0.1074
93.2800 31.0780 0.1142
93.3000 31.0847 0.1142
93.3200 31.0913 0.1088
93.3400 31.0980 0.1077
93.3600 31.1046 0.1086
93.3800 31.1112 0.1109
93.4000 31.1179 0.1106
93.4200 31.1246 0.1055
93.4400 31.1313 0.1107
93.4600 31.1380 0.1024
93.4800 31.1447 0.1053
93.5000 31.1514 0.1087
93.5200 31.1580 0.1045
93.5400 31.1646 0.1056
93.5600 31.1712 0.1122
93.5800 31.1779 0.0995
93.6000 31.1846 0.1081
93.6200 31.1913 0.1093
93.6400 31.1980 0.0972
93.6600 31.2047 0.1053
93.6800 31.2114 0.1053
93.7000 31.2180 0.0922
93.7200 31.2246 0.1084
93.7400 31.2312 0.1044
93.7600 31.2379 0.0949
93.7800 31.2446 0.1066
93.8000 31.2513 0.0993
93.8200 31.2580 0.0972
93.8400 31.2647 0.1050
93.8600 31.2714 0.0944
93.8800 31.2780 0.0907
93.9000 31.2846 0.1087
93.9200 31.2913 0.0886
93.9400 31.2979 0.0962
93.9600 31.3046 0.1058
93.9800 31.3113 0.0824
94.0000 31.3180 0.0976
94.0200 31.3247 0.1022
94.0400 31.3314 0.0774
94.0600 31.3380 0.0995
94.0800 31.3446 0.0980
94.1000 31.3512 0.0794
94.1200 31.3579 0.1007
94.1400 31.3646 0.1013
94.1600 31.3713 0.0785
94.1800 31.3780 0.0983
94.2000 31.3847 0.0933
94.2200 31.3913 0.0826
94.2400 31.3980 0.1012
94.2600 31.4046 0.0881
94.2800 31.4112 0.0817
94.3000 31.4179 0.0984
94.3200 31.4246 0.0813
94.3400 31.4313 0.0827
94.3600 31.4380 0.0949
94.3800 31.4446 0.0819
94.4000 31.4513 0.0886
94.4200 31.4580 0.0851
94.4400 31.4646 0.0821
94.4600 31.4712 0.0887
94.4800 31.4779 0.0887
94.5000 31.4846 0.0749
94.5200 31.4913 0.0930
94.5400 31.4980 0.0801
94.5600 31.5047 0.0774
94.5800 31.5114 0.0901
94.6000 31.5180 0.0795
94.6200 31.5246 0.0814
94.6400 31.5312 0.0884
94.6600 31.5379 0.0732
94.6800 31.5446 0.0866
94.7000 31.5513 0.0859
94.7200 31.5580 0.0677
94.7400 31.5647 0.0845
94.7600 31.5714 0.0837
94.7800 31.5780 0.0656
94.8000 31.5846 0.0892
94.8200 31.5912 0.0842
94.8400 31.5979 0.0662
94.8600 31.6046 0.0862
94.8800 31.6113 0.0824
94.9000 31.6180 0.0648
94.9200 31.6247 0.0869
94.9400 31.6313 0.0812
94.9600 31.6380 0.0648
94.9800 31.6446 0.0826
95.0000 31.6512 0.0782
95.0200 31.6579 0.0672
95.0400 31.6646 0.0754
95.0600 31.6713 0.0780
95.0800 31.6780 0.0667
95.1000 31.6846 0.0765
95.1200 31.6913 0.0763
95.1400 31.6980 0.0653
95.1600 31.7046 0.0723
95.1800 31.7112 0.0851
95.2000 31.7179 0.0604
95.2200 31.7246 0.0695
95.2400 31.7313 0.0803
95.2600 31.7380 0.0590
95.2800 31.7447 0.0719
95.3000 31.7514 0.0800
95.3200 31.7580 0.0565
95.3400 31.7646 0.0717
95.3600 31.7712 0.0791
95.3800 31.7779 0.0555
95.4000 31.7847 0.0692
95.4200 31.7914 0.0734
95.4400 31.7981 0.0580
95.4600 31.8047 0.0687
95.4800 31.8114 0.0736
95.5000 31.8180 0.0522
95.5200 31.8246 0.0725
95.5400 31.8313 0.0698
95.5600 31.8379 0.0523
95.5800 31.8446 0.0652
95.6000 31.8513 0.0655
95.6200 31.8580 0.0577
95.6400 31.8646 0.0659
95.6600 31.8713 0.0592
95.6800 31.8780 0.0573
95.7000 31.8846 0.0642
95.7200 31.8912 0.0633
95.7400 31.8979 0.0552
95.7600 31.9046 0.0644
95.7800 31.9113 0.0605
95.8000 31.9180 0.0521
95.8200 31.9247 0.0601
95.8400 31.9313 0.0585
95.8600 31.9380 0.0554
95.8800 31.9446 0.0534
95.9000 31.9512 0.0647
95.9200 31.9579 0.0470
95.9400 31.9646 0.0536
95.9600 31.9713 0.0601
95.9800 31.9780 0.0510
96.0000 31.9847 0.0527
96.0200 31.9914 0.0588
96.0400 31.9980 0.0458
96.0600 32.0047 0.0565
96.0800 32.0113 0.0574
96.1000 32.0179 0.0489
96.1200 32.0246 0.0533
96.1400 32.0313 0.0552
96.1600 32.0380 0.0427
96.1800 32.0447 0.0514
96.2000 32.0514 0.0513
96.2200 32.0580 0.0434
96.2400 32.0647 0.0502
96.2600 32.0713 0.0535
96.2800 32.0779 0.0450
96.3000 32.0846 0.0502
96.3200 32.0913 0.0502
96.3400 32.0980 0.0431
96.3600 32.1047 0.0508
96.3800 32.1113 0.0516
96.4000 32.1180 0.0409
96.4200 32.1246 0.0458
96.4400 32.1312 0.0512
96.4600 32.1379 0.0419
96.4800 32.1446 0.0440
96.5000 32.1513 0.0453
96.5200 32.1580 0.0448
96.5400 32.1646 0.0419
96.5600 32.1713 0.0487
96.5800 32.1780 0.0403
96.6000 32.1846 0.0406
96.6200 32.1912 0.0417
96.6400 32.1979 0.0429
96.6600 32.2046 0.0430
96.6800 32.2113 0.0417
96.7000 32.2180 0.0376
96.7200 32.2247 0.0387
96.7400 32.2314 0.0429
96.7600 32.2381 0.0423
96.7800 32.2447 0.0379
96.8000 32.2513 0.0430
96.8200 32.2579 0.0410
96.8400 32.2646 0.0394
96.8600 32.2713 0.0402
96.8800 32.2781 0.0337
96.9000 32.2847 0.0387
96.9200 32.2914 0.0368
96.9400 32.2980 0.0348
96.9600 32.3047 0.0360
96.9800 32.3113 0.0376
97.0000 32.3179 0.0344
97.0200 32.3246 0.0396
97.0400 32.3313 0.0314
97.0600 32.3380 0.0318
97.0800 32.3446 0.0447
97.1000 32.3513 0.0321
97.1200 32.3580 0.0240
97.1400 32.3646 0.0412
97.1600 32.3712 0.0344
97.1800 32.3778 0.0322
97.2000 32.3845 0.0351
97.2200 32.3913 0.0306
97.2400 32.3980 0.0308
97.2600 32.4046 0.0374
97.2800 32.4113 0.0258
97.3000 32.4180 0.0335
97.3200 32.4246 0.0351
97.3400 32.4312 0.0234
97.3600 32.4379 0.0359
97.3800 32.4446 0.0319
97.4000 32.4513 0.0283
97.4200 32.4580 0.0308
97.4400 32.4647 0.0301
97.4600 32.4714 0.0217
97.4800 32.4781 0.0371
97.5000 32.4847 0.0270
97.5200 32.4913 0.0246
97.5400 32.4980 0.0384
97.5600 32.5046 0.0236
97.5800 32.5113 0.0190
97.6000 32.5180 0.0338
97.6200 32.5247 0.0225
97.6400 32.5314 0.0256
97.6600 32.5381 0.0282
97.6800 32.5447 0.0160
97.7000 32.5513 0.0289
97.7200 32.5579 0.0329
97.7400 32.5645 0.0147
97.7600 32.5713 0.0268
97.7800 32.5780 0.0263
97.8000 32.5847 0.0130
97.8200 32.5914 0.0251
97.8400 32.5980 0.0203
97.8600 32.6047 0.0151
97.8800 32.6112 0.0300
97.9000 32.6179 0.0160
97.9200 32.6245 0.0138
97.9400 32.6313 0.0266
97.9600 32.6380 0.0060
97.9800 32.6446 0.0178
98.0000 32.6513 0.0219
98.0200 32.6580 0.0083
98.0400 32.6647 0.0141
98.0600 32.6713 0.0201
98.0800 32.6779 0.0069
98.1000 32.6846 0.0195
98.1200 32.6913 0.0131
98.1400 32.6980 0.0097
98.1600 32.7047 0.0174
98.1800 32.7114 0.0090
98.2000 32.7181 0.0102
98.2200 32.7247 0.0146
98.2400 32.7313 0.0030
98.2600 32.7379 0.0143
98.2800 32.7446 0.0148
98.3000 32.7513 -0.0023
98.3200 32.7580 0.0088
98.3400 32.7647 0.0086
98.3600 32.7714 0.0015
98.3800 32.7780 0.0092
98.4000 32.7847 0.0071
98.4200 32.7913 -0.0004
98.4400 32.7979 0.0046
98.4600 32.8046 -0.0004
98.4800 32.8113 0.0032
98.5000 32.8180 0.0035
98.5200 32.8247 0.0002
98.5400 32.8313 0.0017
98.5600 32.8380 0.0014
98.5800 32.8447 -0.0026
98.6000 32.8513 0.0026
98.6200 32.8579 -0.0029
98.6400 32.8645 0.0012
98.6600 32.8712 -0.0005
98.6800 32.8779 -0.0052
98.7000 32.8846 0.0008
98.7200 32.8913 -0.0003
98.7400 32.8980 -0.0053
98.7600 32.9047 0.0012
98.7800 32.9113 -0.0067
98.8000 32.9179 -0.0058
98.8200 32.9246 0.0073
98.8400 32.9313 -0.0114
98.8600 32.9380 -0.0117
98.8800 32.9447 0.0061
98.9000 32.9514 -0.0144
98.9200 32.9581 -0.0113
98.9400 32.9647 0.0082
98.9600 32.9713 -0.0185
98.9800 32.9779 -0.0133
99.0000 32.9846 0.0020
99.0200 32.9913 -0.0133
99.0400 32.9980 -0.0154
99.0600 33.0047 0.0022
99.0800 33.0113 -0.0225
99.1000 33.0180 -0.0140
99.1200 33.0247 -0.0028
99.1400 33.0313 -0.0155
99.1600 33.0379 -0.0102
99.1800 33.0445 -0.0101
99.2000 33.0512 -0.0137
99.2200 33.0579 -0.0112
99.2400 33.0646 -0.0147
99.2600 33.0713 -0.0125
99.2800 33.0780 -0.0130
99.3000 33.0847 -0.0165
99.3200 33.0913 -0.0122
99.3400 33.0979 -0.0111
99.3600 33.1045 -0.0176
99.3800 33.1113 -0.0151
99.4000 33.1180 -0.0169
99.4200 33.1247 -0.0230
99.4400 33.1313 -0.0112
99.4600 33.1380 -0.0172
99.4800 33.1446 -0.0217
99.5000 33.1513 -0.0141
99.5200 33.1579 -0.0214
99.5400 33.1646 -0.0271
99.5600 33.1713 -0.0139
99.5800 33.1780 -0.0218
99.6000 33.1847 -0.0236
99.6200 33.1913 -0.0137
99.6400 33.1980 -0.0281
99.6600 33.2047 -0.0297
99.6800 33.2113 -0.0091
99.7000 33.2180 -0.0272
99.7200 33.2246 -0.0238
99.7400 33.2313 -0.0181
99.7600 33.2380 -0.0349
99.7800 33.2447 -0.0216
99.8000 33.2514 -0.0171
99.8200 33.2581 -0.0396
99.8400 33.2647 -0.0220
99.8600 33.2713 -0.0147
99.8800 33.2779 -0.0366
99.9000 33.2846 -0.0167
99.9200 33.2913 -0.0199
99.9400 33.2980 -0.0420
99.9600 33.3047 -0.0231
99.9800 33.3113 -0.0200
100.0000 33.3180 -0.0367
100.0200 33.3247 -0.0210
100.0400 33.3313 -0.0290
100.0600 33.3379 -0.0360
100.0800 33.3445 -0.0211
100.1000 33.3513 -0.0292
100.1200 33.3580 -0.0372
100.1400 33.3646 -0.0216
100.1600 33.3713 -0.0339
100.1800 33.3780 -0.0330
100.2000 33.3847 -0.0248
100.2200 33.3913 -0.0318
100.2400 33.3979 -0.0334
100.2600 33.4046 -0.0303
100.2800 33.4113 -0.0304
100.3000 33.4180 -0.0345
100.3200 33.4247 -0.0336
100.3400 33.4314 -0.0327
100.3600 33.4381 -0.0329
100.3800 33.4447 -0.0346
100.4000 33.4513 -0.0291
100.4200 33.4579 -0.0365
100.4400 33.4646 -0.0345
100.4600 33.4713 -0.0288
100.4800 33.4780 -0.0395
100.5000 33.4847 -0.0390
100.5200 33.4914 -0.0282
100.5400 33.4980 -0.0400
100.5600 33.5047 -0.0345
100.5800 33.5113 -0.0309
100.6000 33.5179 -0.0404
100.6200 33.5246 -0.0350
100.6400 33.5313 -0.0283
100.6600 33.5380 -0.0462
100.6800 33.5447 -0.0307
100.7000 33.5513 -0.0398
100.7200 33.5580 -0.0453
100.7400 33.5647 -0.0282
100.7600 33.5713 -0.0416
100.7800 33.5779 -0.0438
100.8000 33.5845 -0.0287
100.8200 33.5912 -0.0443
100.8400 33.5979 -0.0443
100.8600 33.6046 -0.0281
100.8800 33.6113 -0.0435
100.9000 33.6180 -0.0467
100.9200 33.6246 -0.0327
100.9400 33.6313 -0.0443
100.9600 33.6379 -0.0437
100.9800 33.6445 -0.0307
101.0000 33.6513 -0.0552
101.0200 33.6580 -0.0391
101.0400 33.6647 -0.0384
101.0600 33.6714 -0.0546
101.0800 33.6780 -0.0374
101.1000 33.6847 -0.0377
101.1200 33.6914 -0.0562
101.1400 33.6980 -0.0394
101.1600 33.7046 -0.0408
101.1800 33.7113 -0.0522
101.2000 33.7180 -0.0414
101.2200 33.7247 -0.0463
101.2400 33.7313 -0.0533
101.2600 33.7380 -0.0390
101.2800 33.7447 -0.0512
101.3000 33.7513 -0.0519
101.3200 33.7579 -0.0429
101.3400 33.7646 -0.0539
101.3600 33.7712 -0.0504
101.3800 33.7780 -0.0459
101.4000 33.7846 -0.0520
101.4200 33.7913 -0.0565
101.4400 33.7980 -0.0462
101.4600 33.8047 -0.0526
101.4800 33.8113 -0.0551
101.5000 33.8179 -0.0497
101.5200 33.8245 -0.0489
101.5400 33.8313 -0.0578
101.5600 33.8380 -0.0516
101.5800 33.8447 -0.0487
101.6000 33.8513 -0.0573
101.6200 33.8580 -0.0498
101.6400 33.8647 -0.0521
101.6600 33.8713 -0.0628
101.6800 33.8779 -0.0500
101.7000 33.8846 -0.0543
101.7200 33.8913 -0.0619
101.7400 33.8980 -0.0498
101.7600 33.9047 -0.0561
101.7800 33.9113 -0.0688
101.8000 33.9180 -0.0483
101.8200 33.9247 -0.0566
101.8400 33.9313 -0.0710
101.8600 33.9379 -0.0478
101.8800 33.9445 -0.0573
101.9000 33.9512 -0.0686
101.9200 33.9580 -0.0527
101.9400 33.9647 -0.0606
101.9600 33.9714 -0.0707
101.9800 33.9780 -0.0456
102.0000 33.9847 -0.0669
102.0200 33.9913 -0.0737
102.0400 33.9979 -0.0513
102.0600 34.0045 -0.0626
102.0800 34.0112 -0.0732
102.1000 34.0180 -0.0519
102.1200 34.0247 -0.0684
102.1400 34.0313 -0.0666
102.1600 34.0380 -0.0589
102.1800 34.0447 -0.0709
102.2000 34.0513 -0.0670
102.2200 34.0579 -0.0598
102.2400 34.0646 -0.0765
102.2600 34.0712 -0.0656
102.2800 34.0779 -0.0632
102.3000 34.0846 -0.0728
102.3200 34.0913 -0.0667
102.3400 34.0980 -0.0659
102.3600 34.1047 -0.0757
102.3800 34.1113 -0.0714
102.4000 34.1179 -0.0635
102.4200 34.1246 -0.0771
102.4400 34.1313 -0.0674
102.4600 34.1380 -0.0668
102.4800 34.1447 -0.0768
102.5000 34.1514 -0.0679
102.5200 34.1581 -0.0668
102.5400 34.1647 -0.0799
102.5600 34.1713 -0.0723
102.5800 34.1779 -0.0733
102.6000 34.1846 -0.0717
102.6200 34.1913 -0.0787
102.6400 34.1980 -0.0741
102.6600 34.2047 -0.0762
102.6800 34.2114 -0.0728
102.7000 34.2180 -0.0747
102.7200 34.2247 -0.0755
102.7400 34.2314 -0.0773
102.7600 34.2380 -0.0757
102.7800 34.2446 -0.0767
102.8000 34.2512 -0.0801
102.8200 34.2579 -0.0774
102.8400 34.2646 -0.0779
102.8600 34.2713 -0.0795
102.8800 34.2780 -0.0810
102.9000 34.2847 -0.0789
102.9200 34.2913 -0.0785
102.9400 34.2979 -0.0873
102.9600 34.3045 -0.0830
102.9800 34.3112 -0.0678
103.0000 34.3179 -0.0914
103.0200 34.3246 -0.0889
103.0400 34.3313 -0.0739
103.0600 34.3380 -0.0876
103.0800 34.3447 -0.0851
103.1000 34.3513 -0.0707
103.1200 34.3579 -0.0993
103.1400 34.3646 -0.0927
103.1600 34.3713 -0.0644
103.1800 34.3780 -0.1005
103.2000 34.3847 -0.1046
103.2200 34.3914 -0.0673
103.2400 34.3980 -0.0928
103.2600 34.4047 -0.0979
103.2800 34.4114 -0.0778
103.3000 34.4180 -0.0959
103.3200 34.4246 -0.0937
103.3400 34.4313 -0.0764
103.3600 34.4380 -0.0912
103.3800 34.4447 -0.0991
103.4000 34.4514 -0.0823
103.4200 34.4580 -0.0927
103.4400 34.4647 -0.0946
103.4600 34.4713 -0.0827
103.4800 34.4779 -0.0927
103.5000 34.4845 -0.1030
103.5200 34.4912 -0.0816
103.5400 34.4979 -0.0939
103.5600 34.5047 -0.0983
103.5800 34.5113 -0.0857
103.6000 34.5180 -0.0966
103.6200 34.5247 -0.1023
103.6400 34.5313 -0.0872
103.6600 34.5379 -0.0985
103.6800 34.5445 -0.0947
103.7000 34.5512 -0.0869
103.7200 34.5579 -0.1042
103.7400 34.5646 -0.1013
103.7600 34.5713 -0.0886
103.7800 34.5780 -0.1011
103.8000 34.5847 -0.0999
103.8200 34.5913 -0.0956
103.8400 34.5980 -0.1042
103.8600 34.6046 -0.1031
103.8800 34.6112 -0.0972
103.9000 34.6179 -0.1054
103.9200 34.6246 -0.1035
103.9400 34.6313 -0.0986
103.9600 34.6380 -0.1038
103.9800 34.6447 -0.1048
104.0000 34.6514 -0.1020
104.0200 34.6580 -0.1040
104.0400 34.6646 -0.1137
104.0600 34.6712 -0.0984
104.0800 34.6780 -0.1066
104.1000 34.6847 -0.1113
104.1200 34.6914 -0.1045
104.1400 34.6981 -0.1060
104.1600 34.7047 -0.1148
104.1800 34.7114 -0.1013
104.2000 34.7180 -0.1085
104.2200 34.7246 -0.1109
104.2400 34.7312 -0.1050
104.2600 34.7379 -0.1093
104.2800 34.7446 -0.1175
104.3000 34.7513 -0.1019
104.3200 34.7580 -0.1056
104.3400 34.7647 -0.1209
104.3600 34.7713 -0.1052
104.3800 34.7780 -0.1122
104.4000 34.7846 -0.1160
104.4200 34.7912 -0.1083
104.4400 34.7979 -0.1149
104.4600 34.8046 -0.1188
104.4800 34.8113 -0.1062
104.5000 34.8180 -0.1216
104.5200 34.8247 -0.1194
104.5400 34.8313 -0.1046
104.5600 34.8380 -0.1187
104.5800 34.8446 -0.1230
104.6000 34.8512 -0.1049
104.6200 34.8580 -0.1162
104.6400 34.8647 -0.1249
104.6600 34.8714 -0.1133
104.6800 34.8781 -0.1227
104.7000 34.8847 -0.1302
104.7200 34.8914 -0.1132
104.7400 34.8980 -0.1216
104.7600 34.9046 -0.1303
104.7800 34.9112 -0.1132
104.8000 34.9179 -0.1262
104.8200 34.9247 -0.1296
104.8400 34.9314 -0.1133
104.8600 34.9380 -0.1293
104.8800 34.9447 -0.1321
104.9000 34.9514 -0.1144
104.9200 34.9580 -0.1350
104.9400 34.9646 -0.1273
104.9600 34.9712 -0.1160
104.9800 34.9779 -0.1330
105.0000 34.9846 -0.1324
105.0200 34.9913 -0.1185
105.0400 34.9980 -0.1360
105.0600 35.0047 -0.1276
105.0800 35.0114 -0.1241
105.1000 35.0180 -0.1377
105.1200 35.0245 -0.1278
105.1400 35.0312 -0.1215
105.1600 35.0379 -0.1434
105.1800 35.0446 -0.1301
105.2000 35.0513 -0.1244
105.2200 35.0580 -0.1408
105.2400 35.0647 -0.1344
105.2600 35.0713 -0.1240
105.2800 35.0780 -0.1408
105.3000 35.0846 -0.1336
105.3200 35.0912 -0.1238
105.3400 35.0979 -0.1395
105.3600 35.1046 -0.1326
105.3800 35.1113 -0.1319
105.4000 35.1180 -0.1401
105.4200 35.1247 -0.1308
105.4400 35.1314 -0.1286
105.4600 35.1380 -0.1424
105.4800 35.1446 -0.1343
105.5000 35.1512 -0.1289
105.5200 35.1579 -0.1403
105.5400 35.1647 -0.1376
105.5600 35.1714 -0.1272
105.5800 35.1780 -0.1447
105.6000 35.1847 -0.1353
105.6200 35.1914 -0.1276
105.6400 35.1980 -0.1424
105.6600 35.2046 -0.1426
105.6800 35.2112 -0.1249
105.7000 35.2179 -0.1450
105.7200 35.2246 -0.1471
105.7400 35.2313 -0.1259
105.7600 35.2380 -0.1469
105.7800 35.2446 -0.1400
105.8000 35.2513 -0.1284
105.8200 35.2580 -0.1516
105.8400 35.2646 -0.1323
105.8600 35.2712 -0.1251
105.8800 35.2779 -0.1549
105.9000 35.2846 -0.1375
105.9200 35.2913 -0.1281
105.9400 35.2980 -0.1482
105.9600 35.3047 -0.1420
105.9800 35.3114 -0.1329
106.0000 35.3180 -0.1539
106.0200 35.3246 -0.1346
106.0400 35.3312 -0.1367
106.0600 35.3379 -0.1524
106.0800 35.3447 -0.1382
106.1000 35.3514 -0.1387
106.1200 35.3580 -0.1571
106.1400 35.3647 -0.1359
106.1600 35.3714 -0.1394
106.1800 35.3780 -0.1572
106.2000 35.3846 -0.1420
106.2200 35.3913 -0.1375
106.2400 35.3979 -0.1559
106.2600 35.4046 -0.1411
106.2800 35.4113 -0.1438
106.3000 35.4180 -0.1553
106.3200 35.4247 -0.1406
106.3400 35.4314 -0.1473
106.3600 35.4380 -0.1590
106.3800 35.4446 -0.1444
106.4000 35.4513 -0.1398
106.4200 35.4579 -0.1588
106.4400 35.4646 -0.1450
106.4600 35.4713 -0.1374
106.4800 35.4780 -0.1571
106.5000 35.4847 -0.1525
106.5200 35.4914 -0.1383
106.5400 35.4980 -0.1597
106.5600 35.5046 -0.1533
106.5800 35.5112 -0.1478
106.6000 35.5179 -0.1517
106.6200 35.5246 -0.1507
106.6400 35.5313 -0.1529
106.6600 35.5380 -0.1569
106.6800 35.5447 -0.1513
106.7000 35.5513 -0.1519
106.7200 35.5580 -0.1545
106.7400 35.5646 -0.1549
106.7600 35.5712 -0.1570
106.7800 35.5779 -0.1525
106.8000 35.5846 -0.1554
106.8200 35.5913 -0.1621
106.8400 35.5980 -0.1522
106.8600 35.6047 -0.1514
106.8800 35.6114 -0.1649
106.9000 35.6180 -0.1488
106.9200 35.6246 -0.1569
106.9400 35.6313 -0.1683
106.9600 35.6379 -0.1501
106.9800 35.6446 -0.1597
107.0000 35.6513 -0.1685
107.0200 35.6580 -0.1440
107.0400 35.6647 -0.1642
107.0600 35.6714 -0.1716
107.0800 35.6780 -0.1515
107.1000 35.6846 -0.1633
107.1200 35.6912 -0.1653
107.1400 35.6979 -0.1481
107.1600 35.7046 -0.1712
107.1800 35.7113 -0.1633
107.2000 35.7180 -0.1557
107.2200 35.7247 -0.1690
107.2400 35.7313 -0.1657
107.2600 35.7380 -0.1573
107.2800 35.7446 -0.1728
107.3000 35.7512 -0.1648
107.3200 35.7579 -0.1585
107.3400 35.7646 -0.1715
107.3600 35.7713 -0.1654
107.3800 35.7780 -0.1652
107.4000 35.7846 -0.1682
107.4200 35.7913 -0.1665
107.4400 35.7980 -0.1665
107.4600 35.8046 -0.1697
107.4800 35.8113 -0.1646
107.5000 35.8179 -0.1689
107.5200 35.8246 -0.1715
107.5400 35.8313 -0.1681
107.5600 35.8380 -0.1691
107.5800 35.8447 -0.1706
107.6000 35.8514 -0.1708
107.6200 35.8580 -0.1772
107.6400 35.8646 -0.1669
107.6600 35.8713 -0.1698
107.6800 35.8779 -0.1709
107.7000 35.8847 -0.1686
107.7200 35.8914 -0.1729
107.7400 35.8980 -0.1784
107.7600 35.9047 -0.1734
107.7800 35.9113 -0.1693
107.8000 35.9180 -0.1754
107.8200 35.9246 -0.1744
107.8400 35.9313 -0.1757
107.8600 35.9379 -0.1772
107.8800 35.9446 -0.1772
107.9000 35.9513 -0.1737
107.9200 35.9580 -0.1771
107.9400 35.9647 -0.1801
107.9600 35.9713 -0.1807
107.9800 35.9780 -0.1719
108.0000 35.9846 -0.1802
108.0200 35.9912 -0.1787
108.0400 35.9979 -0.1764
108.0600 36.0046 -0.1770
108.0800 36.0113 -0.1884
108.1000 36.0180 -0.1771
108.1200 36.0247 -0.1796
108.1400 36.0314 -0.1869
108.1600 36.0380 -0.1815
108.1800 36.0446 -0.1843
108.2000 36.0512 -0.1849
108.2200 36.0579 -0.1757
108.2400 36.0646 -0.1880
108.2600 36.0713 -0.1854
108.2800 36.0780 -0.1838
108.3000 36.0847 -0.1875
108.3200 36.0914 -0.1871
108.3400 36.0980 -0.1838
108.3600 36.1046 -0.1896
108.3800 36.1113 -0.1886
108.4000 36.1180 -0.1851
108.4200 36.1247 -0.1889
108.4400 36.1314 -0.1861
108.4600 36.1380 -0.1960
108.4800 36.1447 -0.1883
108.5000 36.1514 -0.1916
108.5200 36.1580 -0.1967
108.5400 36.1646 -0.1893
108.5600 36.1712 -0.1876
108.5800 36.1779 -0.2003
108.6000 36.1846 -0.1871
108.6200 36.1913 -0.1925
108.6400 36.1980 -0.2031
108.6600 36.2047 -0.1856
108.6800 36.2114 -0.1961
108.7000 36.2180 -0.2068
108.7200 36.2246 -0.1868
108.7400 36.2312 -0.1957
108.7600 36.2379 -0.2015
108.7800 36.2446 -0.1881
108.8000 36.2513 -0.2021
108.8200 36.2580 -0.2058
108.8400 36.2646 -0.1837
108.8600 36.2713 -0.2072
108.8800 36.2780 -0.2091
108.9000 36.2846 -0.1845
108.9200 36.2913 -0.2085
108.9400 36.2979 -0.2017
108.9600 36.3046 -0.1943
108.9800 36.3113 -0.2115
109.0000 36.3180 -0.2025
109.0200 36.3247 -0.1936
109.0400 36.3314 -0.2129
109.0600 36.3381 -0.2031
109.0800 36.3447 -0.1970
109.1000 36.3513 -0.2100
109.1200 36.3579 -0.2017
109.1400 36.3646 -0.2003
109.1600 36.3713 -0.2127
109.1800 36.3780 -0.1978
109.2000 36.3847 -0.2102
109.2200 36.3914 -0.2112
109.2400 36.3980 -0.1975
109.2600 36.4046 -0.2120
109.2800 36.4112 -0.2128
109.3000 36.4179 -0.1998
109.3200 36.4246 -0.2103
109.3400 36.4313 -0.2168
109.3600 36.4380 -0.2024
109.3800 36.4446 -0.2123
109.4000 36.4513 -0.2153
109.4200 36.4580 -0.2049
109.4400 36.4646 -0.2141
109.4600 36.4712 -0.2166
109.4800 36.4779 -0.2007
109.5000 36.4846 -0.2131
109.5200 36.4913 -0.2174
109.5400 36.4980 -0.2037
109.5600 36.5046 -0.2145
109.5800 36.5113 -0.2254
109.6000 36.5180 -0.2044
109.6200 36.5246 -0.2181
109.6400 36.5312 -0.2233
109.6600 36.5379 -0.2076
109.6800 36.5446 -0.2182
109.7000 36.5513 -0.2203
109.7200 36.5580 -0.2089
109.7400 36.5647 -0.2217
109.7600 36.5714 -0.2202
109.7800 36.5780 -0.2087
109.8000 36.5846 -0.2249
109.8200 36.5912 -0.2221
109.8400 36.5979 -0.2127
109.8600 36.6046 -0.2260
109.8800 36.6114 -0.2230
109.9000 36.6181 -0.2154
109.9200 36.6247 -0.2300
109.9400 36.6314 -0.2231
109.9600 36.6380 -0.2190
109.9800 36.6446 -0.2272
110.0000 36.6512 -0.2262
110.0200 36.6579 -0.2191
110.0400 36.6646 -0.2294
110.0600 36.6713 -0.2300
110.0800 36.6780 -0.2202
110.1000 36.6846 -0.2296
110.1200 36.6913 -0.2303
110.1400 36.6980 -0.2216
110.1600 36.7046 -0.2370
110.1800 36.7112 -0.2293
110.2000 36.7178 -0.2238
110.2200 36.7245 -0.2320
110.2400 36.7313 -0.2365
110.2600 36.7380 -0.2272
110.2800 36.7447 -0.2362
110.3000 36.7513 -0.2348
110.3200 36.7580 -0.2230
110.3400 36.7646 -0.2366
110.3600 36.7713 -0.2371
110.3800 36.7779 -0.2278
110.4000 36.7846 -0.2361
110.4200 36.7913 -0.2379
110.4400 36.7980 -0.2323
110.4600 36.8047 -0.2380
110.4800 36.8114 -0.2381
110.5000 36.8180 -0.2327
110.5200 36.8247 -0.2389
110.5400 36.8313 -0.2458
110.5600 36.8379 -0.2287
110.5800 36.8446 -0.2396
110.6000 36.8513 -0.2427
110.6200 36.8580 -0.2336
110.6400 36.8647 -0.2415
110.6600 36.8714 -0.2412
110.6800 36.8781 -0.2348
110.7000 36.8847 -0.2469
110.7200 36.8913 -0.2426
110.7400 36.8979 -0.2296
110.7600 36.9046 -0.2452
110.7800 36.9113 -0.2495
110.8000 36.9180 -0.2363
110.8200 36.9247 -0.2452
110.8400 36.9314 -0.2454
110.8600 36.9380 -0.2390
110.8800 36.9446 -0.2454
110.9000 36.9512 -0.2470
110.9200 36.9579 -0.2417
110.9400 36.9646 -0.2427
110.9600 36.9713 -0.2519
110.9800 36.9780 -0.2415
111.0000 36.9846 -0.2489
111.0200 36.9913 -0.2505
111.0400 36.9980 -0.2445
111.0600 37.0046 -0.2474
111.0800 37.0113 -0.2562
111.1000 37.0179 -0.2400
111.1200 37.0246 -0.2513
111.1400 37.0313 -0.2492
111.1600 37.0380 -0.2502
111.1800 37.0447 -0.2504
111.2000 37.0514 -0.2507
111.2200 37.0581 -0.2489
111.2400 37.0647 -0.2503
111.2600 37.0713 -0.2533
111.2800 37.0779 -0.2470
111.3000 37.0846 -0.2506
111.3200 37.0913 -0.2550
111.3400 37.0981 -0.2500
111.3600 37.1047 -0.2507
111.3800 37.1114 -0.2570
111.4000 37.1180 -0.2518
111.4200 37.1247 -0.2558
111.4400 37.1313 -0.2577
111.4600 37.1379 -0.2515
111.4800 37.1446 -0.2477
111.5000 37.1513 -0.2613
111.5200 37.1580 -0.2534
111.5400 37.1646 -0.2530
111.5600 37.1713 -0.2622
111.5800 37.1780 -0.2612
111.6000 37.1846 -0.2515
111.6200 37.1912 -0.2650
111.6400 37.1979 -0.2571
111.6600 37.2045 -0.2533
111.6800 37.2112 -0.2594
111.7000 37.2180 -0.2627
111.7200 37.2246 -0.2590
111.7400 37.2313 -0.2602
111.7600 37.2380 -0.2665
111.7800 37.2446 -0.2615
111.8000 37.2513 -0.2634
111.8200 37.2579 -0.2640
111.8400 37.2646 -0.2592
111.8600 37.2713 -0.2639
111.8800 37.2780 -0.2677
111.9000 37.2847 -0.2577
111.9200 37.2914 -0.2664
111.9400 37.2980 -0.2715
111.9600 37.3047 -0.2601
111.9800 37.3113 -0.2643
112.0000 37.3180 -0.2708
112.0200 37.3246 -0.2580
112.0400 37.3313 -0.2664
112.0600 37.3380 -0.2712
112.0800 37.3447 -0.2641
112.1000 37.3514 -0.2661
112.1200 37.3581 -0.2722
112.1400 37.3647 -0.2645
112.1600 37.3713 -0.2702
112.1800 37.3779 -0.2700
112.2000 37.3846 -0.2682
112.2200 37.3913 -0.2668
112.2400 37.3980 -0.2692
112.2600 37.4047 -0.2727
112.2800 37.4113 -0.2674
112.3000 37.4180 -0.2766
112.3200 37.4246 -0.2744
112.3400 37.4313 -0.2680
112.3600 37.4379 -0.2760
112.3800 37.4445 -0.2770
112.4000 37.4513 -0.2675
112.4200 37.4580 -0.2809
112.4400 37.4646 -0.2791
112.4600 37.4713 -0.2656
112.4800 37.4780 -0.2825
112.5000 37.4847 -0.2862
112.5200 37.4913 -0.2608
112.5400 37.4979 -0.2874
112.5600 37.5046 -0.2827
112.5800 37.5113 -0.2656
112.6000 37.5180 -0.2919
112.6200 37.5247 -0.2854
112.6400 37.5314 -0.2646
112.6600 37.5381 -0.2991
112.6800 37.5447 -0.2817
112.7000 37.5513 -0.2703
112.7200 37.5579 -0.2982
112.7400 37.5646 -0.2800
112.7600 37.5713 -0.2737
112.7800 37.5780 -0.3053
112.8000 37.5847 -0.2822
112.8200 37.5914 -0.2747
112.8400 37.5980 -0.3076
112.8600 37.6047 -0.2773
112.8800 37.6113 -0.2804
112.9000 37.6179 -0.3052
112.9200 37.6246 -0.2764
112.9400 37.6313 -0.2834
112.9600 37.6380 -0.3057
112.9800 37.6447 -0.2799
113.0000 37.6513 -0.2867
113.0200 37.6580 -0.3082
113.0400 37.6647 -0.2829
113.0600 37.6713 -0.2852
113.0800 37.6779 -0.3093
113.1000 37.6845 -0.2807
113.1200 37.6912 -0.2860
113.1400 37.6979 -0.3126
113.1600 37.7046 -0.2847
113.1800 37.7113 -0.2856
113.2000 37.7180 -0.3168
113.2200 37.7247 -0.2849
113.2400 37.7313 -0.2886
113.2600 37.7379 -0.3163
113.2800 37.7446 -0.2855
113.3000 37.7513 -0.2920
113.3200 37.7580 -0.3149
113.3400 37.7647 -0.2895
113.3600 37.7714 -0.2961
113.3800 37.7781 -0.3152
113.4000 37.7847 -0.2883
113.4200 37.7913 -0.3002
113.4400 37.7979 -0.3189
113.4600 37.8046 -0.2891
113.4800 37.8113 -0.3031
113.5000 37.8180 -0.3212
113.5200 37.8247 -0.2876
113.5400 37.8313 -0.3083
113.5600 37.8380 -0.3166
113.5800 37.8447 -0.2952
113.6000 37.8513 -0.3110
113.6200 37.8579 -0.3162
113.6400 37.8645 -0.2920
113.6600 37.8713 -0.3112
113.6800 37.8780 -0.3188
113.7000 37.8846 -0.2995
113.7200 37.8913 -0.3153
113.7400 37.8980 -0.3190
113.7600 37.9047 -0.3042
113.7800 37.9113 -0.3188
113.8000 37.9179 -0.3189
113.8200 37.9245 -0.3028
113.8400 37.9312 -0.3229
113.8600 37.9380 -0.3219
113.8800 37.9446 -0.3099
113.9000 37.9513 -0.3186
113.9200 37.9580 -0.3200
113.9400 37.9647 -0.3166
113.9600 37.9713 -0.3202
113.9800 37.9779 -0.3157
114.0000 37.9846 -0.3225
114.0200 37.9913 -0.3179
114.0400 37.9980 -0.3181
114.0600 38.0047 -0.3214
114.0800 38.0114 -0.3217
114.1000 38.0181 -0.3205
114.1200 38.0247 -0.3263
114.1400 38.0313 -0.3133
114.1600 38.0379 -0.3264
114.1800 38.0446 -0.3244
114.2000 38.0513 -0.3186
114.2200 38.0580 -0.3276
114.2400 38.0647 -0.3219
114.2600 38.0714 -0.3233
114.2800 38.0781 -0.3331
114.3000 38.0847 -0.3240
114.3200 38.0913 -0.3239
114.3400 38.0979 -0.3293
114.3600 38.1045 -0.3232
114.3800 38.1112 -0.3300
114.4000 38.1180 -0.3326
114.4200 38.1246 -0.3298
114.4400 38.1313 -0.3278
114.4600 38.1380 -0.3298
114.4800 38.1447 -0.3305
114.5000 38.1513 -0.3381
114.5200 38.1579 -0.3238
114.5400 38.1645 -0.3362
114.5600 38.1712 -0.3382
114.5800 38.1780 -0.3244
114.6000 38.1846 -0.3421
114.6200 38.1913 -0.3373
114.6400 38.1979 -0.3199
114.6600 38.2046 -0.3525
114.6800 38.2113 -0.3330
114.7000 38.2180 -0.3234
114.7200 38.2246 -0.3528
114.7400 38.2313 -0.3288
114.7600 38.2380 -0.3272
114.7800 38.2447 -0.3611
114.8000 38.2514 -0.3282
114.8200 38.2581 -0.3295
114.8400 38.2647 -0.3592
114.8600 38.2713 -0.3295
114.8800 38.2779 -0.3331
114.9000 38.2846 -0.3533
114.9200 38.2913 -0.3324
114.9400 38.2980 -0.3373
114.9600 38.3047 -0.3551
114.9800 38.3114 -0.3345
115.0000 38.3180 -0.3439
115.0200 38.3247 -0.3538
115.0400 38.3313 -0.3395
115.0600 38.3379 -0.3412
115.0800 38.3446 -0.3516
115.1000 38.3513 -0.3434
115.1200 38.3580 -0.3452
115.1400 38.3647 -0.3530
115.1600 38.3713 -0.3476
115.1800 38.3780 -0.3432
115.2000 38.3847 -0.3580
115.2200 38.3913 -0.3507
115.2400 38.3979 -0.3417
115.2600 38.4045 -0.3583
115.2800 38.4112 -0.3515
115.3000 38.4179 -0.3457
115.3200 38.4246 -0.3575
115.3400 38.4313 -0.3532
115.3600 38.4380 -0.3487
115.3800 38.4446 -0.3575
115.4000 38.4513 -0.3518
115.4200 38.4579 -0.3547
115.4400 38.4645 -0.3585
115.4600 38.4712 -0.3586
115.4800 38.4780 -0.3521
115.5000 38.4847 -0.3597
115.5200 38.4914 -0.3575
115.5400 38.4980 -0.3565
115.5600 38.5047 -0.3612
115.5800 38.5114 -0.3604
115.6000 38.5180 -0.3597
115.6200 38.5246 -0.3623
115.6400 38.5313 -0.3569
115.6600 38.5380 -0.3631
115.6800 38.5447 -0.3646
115.7000 38.5514 -0.3614
115.7200 38.5580 -0.3606
115.7400 38.5647 -0.3633
115.7600 38.5713 -0.3658
115.7800 38.5779 -0.3655
115.8000 38.5845 -0.3653
115.8200 38.5912 -0.3706
115.8400 38.5979 -0.3620
115.8600 38.6046 -0.3697
115.8800 38.6113 -0.3721
115.9000 38.6180 -0.3605
115.9200 38.6247 -0.3742
115.9400 38.6313 -0.3709
115.9600 38.6379 -0.3615
115.9800 38.6445 -0.3719
116.0000 38.6512 -0.3767
116.0200 38.6580 -0.3659
116.0400 38.6647 -0.3784
116.0600 38.6713 -0.3716
116.0800 38.6780 -0.3659
116.1000 38.6847 -0.3794
116.1200 38.6913 -0.3749
116.1400 38.6980 -0.3705
116.1600 38.7046 -0.3809
116.1800 38.7113 -0.3700
116.2000 38.7180 -0.3735
116.2200 38.7247 -0.3834
116.2400 38.7314 -0.3744
116.2600 38.7380 -0.3722
116.2800 38.7447 -0.3840
116.3000 38.7514 -0.3765
116.3200 38.7580 -0.3774
116.3400 38.7646 -0.3812
116.3600 38.7712 -0.3720
116.3800 38.7780 -0.3797
116.4000 38.7847 -0.3852
116.4200 38.7914 -0.3792
116.4400 38.7980 -0.3751
116.4600 38.8047 -0.3860
116.4800 38.8113 -0.3843
116.5000 38.8179 -0.3764
116.5200 38.8245 -0.3840
116.5400 38.8312 -0.3853
116.5600 38.8379 -0.3746
116.5800 38.8447 -0.3848
116.6000 38.8513 -0.3865
116.6200 38.8580 -0.3759
116.6400 38.8647 -0.3883
116.6600 38.8713 -0.3958
116.6800 38.8780 -0.3713
116.7000 38.8846 -0.3890
116.7200 38.8912 -0.4001
116.7400 38.8979 -0.3730
116.7600 38.9046 -0.3840
116.7800 38.9113 -0.4071
116.8000 38.9180 -0.3714
116.8200 38.9247 -0.3896
116.8400 38.9314 -0.4095
116.8600 38.9380 -0.3688
116.8800 38.9446 -0.3990
116.9000 38.9513 -0.4047
116.9200 38.9580 -0.3666
116.9400 38.9647 -0.4049
116.9600 38.9714 -0.4147
116.9800 38.9781 -0.3612
117.0000 38.9847 -0.4102
117.0200 38.9913 -0.4110
117.0400 38.9979 -0.3710
117.0600 39.0046 -0.4107
117.0800 39.0112 -0.4062
117.1000 39.0180 -0.3729
117.1200 39.0247 -0.4190
117.1400 39.0314 -0.4052
117.1600 39.0380 -0.3764
117.1800 39.0447 -0.4203
117.2000 39.0514 -0.4064
117.2200 39.0580 -0.3822
117.2400 39.0646 -0.4201
117.2600 39.0712 -0.4062
117.2800 39.0779 -0.3863
117.3000 39.0846 -0.4205
117.3200 39.0913 -0.4074
117.3400 39.0980 -0.3951
117.3600 39.1047 -0.4197
117.3800 39.1113 -0.4048
117.4000 39.1179 -0.4030
117.4200 39.1245 -0.4211
117.4400 39.1312 -0.4015
117.4600 39.1379 -0.4037
117.4800 39.1446 -0.4210
117.5000 39.1513 -0.4091
117.5200 39.1580 -0.4093
117.5400 39.1647 -0.4201
117.5600 39.1713 -0.4083
117.5800 39.1780 -0.4137
117.6000 39.1846 -0.4160
117.6200 39.1912 -0.4126
117.6400 39.1980 -0.4190
117.6600 39.2047 -0.4188
117.6800 39.2114 -0.4102
117.7000 39.2180 -0.4242
117.7200 39.2247 -0.4188
117.7400 39.2314 -0.4112
117.7600 39.2380 -0.4243
117.7800 39.2446 -0.4193
117.8000 39.2513 -0.4162
117.8200 39.2580 -0.4259
117.8400 39.2647 -0.4190
117.8600 39.2714 -0.4184
117.8800 39.2780 -0.4320
117.9000 39.2847 -0.4220
117.9200 39.2913 -0.4225
117.9400 39.2979 -0.4279
117.9600 39.3046 -0.4175
117.9800 39.3112 -0.4159
118.0000 39.3179 -0.4357
118.0200 39.3247 -0.4224
118.0400 39.3313 -0.4232
118.0600 39.3380 -0.4347
118.0800 39.3447 -0.4267
118.1000 39.3513 -0.4241
118.1200 39.3580 -0.4364
118.1400 39.3646 -0.4234
118.1600 39.3712 -0.4269
118.1800 39.3779 -0.4372
118.2000 39.3846 -0.4263
118.2200 39.3913 -0.4300
118.2400 39.3980 -0.4412
118.2600 39.4047 -0.4272
118.2800 39.4114 -0.4350
118.3000 39.4180 -0.4428
118.3200 39.4246 -0.4242
118.3400 39.4312 -0.4384
118.3600 39.4379 -0.4416
118.3800 39.4446 -0.4244
118.4000 39.4513 -0.4419
118.4200 39.4580 -0.4484
118.4400 39.4647 -0.4216
118.4600 39.4714 -0.4443
118.4800 39.4780 -0.4480
118.5000 39.4846 -0.4270
118.5200 39.4912 -0.4427
118.5400 39.4979 -0.4527
118.5600 39.5047 -0.4291
118.5800 39.5114 -0.4477
118.6000 39.5180 -0.4529
118.6200 39.5247 -0.4326
118.6400 39.5314 -0.4476
118.6600 39.5380 -0.4542
118.6800 39.5446 -0.4309
118.7000 39.5512 -0.4516
118.7200 39.5579 -0.4545
118.7400 39.5646 -0.4417
118.7600 39.5713 -0.4471
118.7800 39.5780 -0.4507
118.8000 39.5847 -0.4483
118.8200 39.5913 -0.4519
118.8400 39.5980 -0.4479
118.8600 39.6046 -0.4527
118.8800 39.6112 -0.4561
118.9000 39.6179 -0.4428
118.9200 39.6246 -0.4485
118.9400 39.6313 -0.4579
118.9600 39.6380 -0.4589
118.9800 39.6447 -0.4478
119.0000 39.6513 -0.4496
119.0200 39.6580 -0.4608
119.0400 39.6646 -0.4732
119.0600 39.6712 -0.4376
119.0800 39.6780 -0.4551
119.1000 39.6847 -0.4737
119.1200 39.6914 -0.4503
119.1400 39.6981 -0.4668
119.1600 39.7047 -0.4624
119.1800 39.7114 -0.4464
119.2000 39.7180 -0.4856
119.2200 39.7246 -0.4587
119.2400 39.7312 -0.4399
119.2600 39.7379 -0.4817
119.2800 39.7447 -0.4716
119.3000 39.7514 -0.4434
119.3200 39.7580 -0.4662
119.3400 39.7647 -0.4738
119.3600 39.7714 -0.4629
119.3800 39.7780 -0.4697
119.4000 39.7846 -0.4657
119.4200 39.7912 -0.4571
119.4400 39.7979 -0.4742
119.4600 39.8046 -0.4752
119.4800 39.8113 -0.4500
119.5000 39.8180 -0.4765
119.5200 39.8247 -0.4819
119.5400 39.8314 -0.4514
119.5600 39.8380 -0.4807
119.5800 39.8446 -0.4848
119.6000 39.8512 -0.4559
119.6200 39.8579 -0.4845
119.6400 39.8646 -0.4777
119.6600 39.8713 -0.4644
119.6800 39.8780 -0.4908
119.7000 39.8846 -0.4743
119.7200 39.8913 -0.4658
119.7400 39.8980 -0.4998
119.7600 39.9046 -0.4758
119.7800 39.9112 -0.4647
119.8000 39.9179 -0.4945
119.8200 39.9246 -0.4819
119.8400 39.9314 -0.4790
119.8600 39.9380 -0.4939
119.8800 39.9447 -0.4794
119.9000 39.9514 -0.4826
119.9200 39.9580 -0.5007
119.9400 39.9646 -0.4803
119.9600 39.9712 -0.4836
119.9800 39.9779 -0.4907
120.0000 39.9846 -0.4938
120.0200 39.9914 -0.4857
120.0400 39.9980 -0.4916
120.0470 40.0003 -0.5033
