Raw Data
Time Displacement Force
(s) (mm) (N)
0.0000 0.0000 0.3704
0.0200 0.0000 0.3825
0.0400 0.0010 0.4108
0.0600 0.0047 0.4046
0.0800 0.0102 0.3742
0.1000 0.0160 0.3812
0.1200 0.0220 0.3942
0.1400 0.0289 0.3881
0.1600 0.0363 0.3796
0.1800 0.0437 0.3725
0.2000 0.0509 0.3817
0.2200 0.0577 0.3766
0.2400 0.0643 0.3807
0.2600 0.0709 0.3819
0.2800 0.0775 0.3824
0.3000 0.0843 0.3847
0.3200 0.0911 0.3818
0.3400 0.0978 0.3767
0.3600 0.1044 0.3833
0.3800 0.1111 0.3903
0.4000 0.1178 0.3805
0.4200 0.1244 0.3783
0.4400 0.1311 0.3989
0.4600 0.1377 0.3786
0.4800 0.1444 0.3797
0.5000 0.1511 0.3946
0.5200 0.1578 0.3849
0.5400 0.1645 0.3837
0.5600 0.1712 0.3917
0.5800 0.1778 0.3835
0.6000 0.1844 0.3801
0.6200 0.1910 0.3989
0.6400 0.1977 0.3905
0.6600 0.2044 0.3838
0.6800 0.2111 0.3929
0.7000 0.2178 0.3874
0.7200 0.2245 0.3813
0.7400 0.2311 0.3931
0.7600 0.2378 0.3923
0.7800 0.2444 0.3844
0.8000 0.2510 0.3858
0.8200 0.2577 0.3945
0.8400 0.2644 0.3780
0.8600 0.2711 0.3919
0.8800 0.2777 0.3917
0.9000 0.2844 0.3740
0.9200 0.2911 0.3959
0.9400 0.2978 0.3907
0.9600 0.3044 0.3745
0.9800 0.3110 0.3961
1.0000 0.3177 0.3888
1.0200 0.3244 0.3731
1.0400 0.3311 0.3970
1.0600 0.3377 0.3879
1.0800 0.3444 0.3762
1.1000 0.3511 0.3967
1.1200 0.3578 0.3846
1.1400 0.3644 0.3744
1.1600 0.3710 0.3948
1.1800 0.3777 0.3811
1.2000 0.3844 0.3808
1.2200 0.3911 0.3880
1.2400 0.3978 0.3783
1.2600 0.4045 0.3784
1.2800 0.4112 0.3919
1.3000 0.4178 0.3778
1.3200 0.4244 0.3794
1.3400 0.4310 0.3863
1.3600 0.4377 0.3797
1.3800 0.4444 0.3785
1.4000 0.4511 0.3866
1.4200 0.4578 0.3777
1.4400 0.4645 0.3738
1.4600 0.4711 0.3861
1.4800 0.4778 0.3776
1.5000 0.4844 0.3714
1.5200 0.4910 0.3845
1.5400 0.4977 0.3857
1.5600 0.5044 0.3700
1.5800 0.5111 0.3781
1.6000 0.5178 0.3820
1.6200 0.5244 0.3694
1.6400 0.5311 0.3821
1.6600 0.5378 0.3834
1.6800 0.5444 0.3617
1.7000 0.5510 0.3826
1.7200 0.5576 0.3776
1.7400 0.5643 0.3657
1.7600 0.5710 0.3789
1.7800 0.5777 0.3752
1.8000 0.5844 0.3609
1.8200 0.5911 0.3766
1.8400 0.5978 0.3747
1.8600 0.6044 0.3623
1.8800 0.6110 0.3777
1.9000 0.6177 0.3687
1.9200 0.6244 0.3609
1.9400 0.6311 0.3774
1.9600 0.6378 0.3668
1.9800 0.6445 0.3604
2.0000 0.6512 0.3713
2.0200 0.6578 0.3719
2.0400 0.6645 0.3607
2.0600 0.6711 0.3703
2.0800 0.6777 0.3683
2.1000 0.6844 0.3555
2.1200 0.6911 0.3724
2.1400 0.6978 0.3664
2.1600 0.7044 0.3610
2.1800 0.7111 0.3670
2.2000 0.7178 0.3665
2.2200 0.7244 0.3538
2.2400 0.7310 0.3705
2.2600 0.7377 0.3669
2.2800 0.7444 0.3512
2.3000 0.7511 0.3670
2.3200 0.7578 0.3650
2.3400 0.7644 0.3550
2.3600 0.7711 0.3686
2.3800 0.7778 0.3551
2.4000 0.7844 0.3526
2.4200 0.7910 0.3695
2.4400 0.7977 0.3583
2.4600 0.8044 0.3509
2.4800 0.8111 0.3679
2.5000 0.8178 0.3558
2.5200 0.8244 0.3491
2.5400 0.8311 0.3725
2.5600 0.8378 0.3504
2.5800 0.8444 0.3548
2.6000 0.8511 0.3669
2.6200 0.8577 0.3545
2.6400 0.8644 0.3567
2.6600 0.8711 0.3643
2.6800 0.8778 0.3483
2.7000 0.8845 0.3579
2.7200 0.8911 0.3635
2.7400 0.8978 0.3497
2.7600 0.9044 0.3518
2.7800 0.9110 0.3618
2.8000 0.9177 0.3502
2.8200 0.9244 0.3575
2.8400 0.9311 0.3546
2.8600 0.9378 0.3508
2.8800 0.9445 0.3498
2.9000 0.9512 0.3574
2.9200 0.9578 0.3531
2.9400 0.9645 0.3503
2.9600 0.9711 0.3548
2.9800 0.9777 0.3538
3.0000 0.9844 0.3556
3.0200 0.9911 0.3517
3.0400 0.9977 0.3546
3.0600 1.0044 0.3475
3.0800 1.0111 0.3519
3.1000 1.0178 0.3555
3.1200 1.0244 0.3478
3.1400 1.0310 0.3499
3.1600 1.0377 0.3550
3.1800 1.0443 0.3472
3.2000 1.0510 0.3588
3.2200 1.0577 0.3499
3.2400 1.0644 0.3454
3.2600 1.0711 0.3548
3.2800 1.0778 0.3543
3.3000 1.0844 0.3465
3.3200 1.0910 0.3519
3.3400 1.0977 0.3503
3.3600 1.1044 0.3480
3.3800 1.1111 0.3547
3.4000 1.1178 0.3463
3.4200 1.1245 0.3498
3.4400 1.1312 0.3500
3.4600 1.1378 0.3421
3.4800 1.1445 0.3538
3.5000 1.1511 0.3468
3.5200 1.1577 0.3447
3.5400 1.1644 0.3525
3.5600 1.1711 0.3378
3.5800 1.1778 0.3488
3.6000 1.1845 0.3520
3.6200 1.1912 0.3348
3.6400 1.1978 0.3483
3.6600 1.2045 0.3486
3.6800 1.2111 0.3275
3.7000 1.2177 0.3532
3.7200 1.2243 0.3490
3.7400 1.2310 0.3301
3.7600 1.2378 0.3500
3.7800 1.2444 0.3424
3.8000 1.2511 0.3277
3.8200 1.2578 0.3566
3.8400 1.2644 0.3360
3.8600 1.2710 0.3251
3.8800 1.2776 0.3584
3.9000 1.2843 0.3366
3.9200 1.2910 0.3268
3.9400 1.2978 0.3525
3.9600 1.3044 0.3357
3.9800 1.3111 0.3236
4.0000 1.3178 0.3488
4.0200 1.3244 0.3327
4.0400 1.3310 0.3327
4.0600 1.3377 0.3476
4.0800 1.3444 0.3244
4.1000 1.3511 0.3309
4.1200 1.3578 0.3506
4.1400 1.3645 0.3258
4.1600 1.3712 0.3358
4.1800 1.3779 0.3386
4.2000 1.3845 0.3285
4.2200 1.3911 0.3301
4.2400 1.3977 0.3405
4.2600 1.4044 0.3268
4.2800 1.4111 0.3350
4.3000 1.4178 0.3345
4.3200 1.4245 0.3309
4.3400 1.4312 0.3325
4.3600 1.4378 0.3287
4.3800 1.4444 0.3310
4.4000 1.4510 0.3360
4.4200 1.4577 0.3309
4.4400 1.4643 0.3312
4.4600 1.4711 0.3314
4.4800 1.4778 0.3263
4.5000 1.4844 0.3346
4.5200 1.4911 0.3302
4.5400 1.4978 0.3302
4.5600 1.5044 0.3324
4.5800 1.5110 0.3255
4.6000 1.5177 0.3275
4.6200 1.5243 0.3381
4.6400 1.5310 0.3254
4.6600 1.5378 0.3320
4.6800 1.5445 0.3309
4.7000 1.5511 0.3294
4.7200 1.5578 0.3292
4.7400 1.5645 0.3272
4.7600 1.5711 0.3232
4.7800 1.5777 0.3353
4.8000 1.5844 0.3325
4.8200 1.5911 0.3155
4.8400 1.5978 0.3345
4.8600 1.6045 0.3323
4.8800 1.6111 0.3206
4.9000 1.6178 0.3319
4.9200 1.6245 0.3281
4.9400 1.6311 0.3181
4.9600 1.6377 0.3275
4.9800 1.6443 0.3312
5.0000 1.6511 0.3186
5.0200 1.6578 0.3281
5.0400 1.6645 0.3250
5.0600 1.6711 0.3119
5.0800 1.6778 0.3329
5.1000 1.6845 0.3223
5.1200 1.6911 0.3244
5.1400 1.6977 0.3219
5.1600 1.7044 0.3253
5.1800 1.7111 0.3188
5.2000 1.7177 0.3162
5.2200 1.7244 0.3251
5.2400 1.7311 0.3174
5.2600 1.7378 0.3175
5.2800 1.7445 0.3214
5.3000 1.7511 0.3143
5.3200 1.7577 0.3190
5.3400 1.7643 0.3224
5.3600 1.7710 0.3138
5.3800 1.7778 0.3130
5.4000 1.7845 0.3193
5.4200 1.7911 0.3094
5.4400 1.7978 0.3107
5.4600 1.8044 0.3206
5.4800 1.8111 0.3153
5.5000 1.8177 0.3151
5.5200 1.8244 0.3155
5.5400 1.8311 0.3132
5.5600 1.8378 0.3087
5.5800 1.8444 0.3207
5.6000 1.8511 0.3123
5.6200 1.8578 0.3094
5.6400 1.8645 0.3174
5.6600 1.8711 0.3111
5.6800 1.8777 0.3080
5.7000 1.8844 0.3251
5.7200 1.8911 0.3068
5.7400 1.8978 0.3090
5.7600 1.9045 0.3178
5.7800 1.9112 0.3098
5.8000 1.9178 0.3067
5.8200 1.9245 0.3138
5.8400 1.9311 0.3103
5.8600 1.9377 0.3078
5.8800 1.9443 0.3184
5.9000 1.9511 0.3090
5.9200 1.9578 0.3061
5.9400 1.9645 0.3124
5.9600 1.9711 0.3102
5.9800 1.9778 0.3091
6.0000 1.9844 0.3135
6.0200 1.9911 0.3057
6.0400 1.9977 0.3113
6.0600 2.0043 0.3118
6.0800 2.0110 0.3090
6.1000 2.0177 0.3082
6.1200 2.0244 0.3113
6.1400 2.0311 0.3057
6.1600 2.0378 0.3078
6.1800 2.0444 0.3040
6.2000 2.0511 0.3077
6.2200 2.0577 0.3059
6.2400 2.0644 0.3089
6.2600 2.0710 0.3061
6.2800 2.0778 0.3032
6.3000 2.0845 0.3020
6.3200 2.0912 0.3083
6.3400 2.0979 0.3004
6.3600 2.1045 0.3034
6.3800 2.1111 0.3061
6.4000 2.1177 0.2966
6.4200 2.1244 0.3090
6.4400 2.1311 0.3058
6.4600 2.1378 0.2964
6.4800 2.1445 0.3038
6.5000 2.1512 0.3078
6.5200 2.1578 0.2962
6.5400 2.1645 0.3041
6.5600 2.1711 0.2996
6.5800 2.1777 0.2975
6.6000 2.1843 0.3043
6.6200 2.1910 0.2960
6.6400 2.1977 0.2963
6.6600 2.2044 0.3110
6.6800 2.2111 0.2930
6.7000 2.2178 0.3011
6.7200 2.2245 0.3007
6.7400 2.2311 0.2926
6.7600 2.2377 0.3036
6.7800 2.2443 0.2999
6.8000 2.2510 0.2909
6.8200 2.2577 0.3021
6.8400 2.2644 0.2942
6.8600 2.2711 0.2922
6.8800 2.2778 0.3014
6.9000 2.2845 0.2902
6.9200 2.2911 0.2931
6.9400 2.2977 0.3031
6.9600 2.3044 0.2886
6.9800 2.3111 0.2927
7.0000 2.3178 0.2985
7.0200 2.3245 0.2874
7.0400 2.3311 0.2975
7.0600 2.3378 0.2951
7.0800 2.3445 0.2852
7.1000 2.3512 0.2893
7.1200 2.3578 0.2966
7.1400 2.3644 0.2883
7.1600 2.3711 0.2982
7.1800 2.3778 0.2859
7.2000 2.3845 0.2889
7.2200 2.3911 0.2992
7.2400 2.3978 0.2917
7.2600 2.4045 0.2912
7.2800 2.4112 0.2969
7.3000 2.4178 0.2865
7.3200 2.4244 0.2918
7.3400 2.4310 0.2975
7.3600 2.4377 0.2873
7.3800 2.4444 0.2912
7.4000 2.4511 0.2927
7.4200 2.4578 0.2889
7.4400 2.4645 0.2933
7.4600 2.4711 0.2949
7.4800 2.4777 0.2914
7.5000 2.4843 0.2929
7.5200 2.4910 0.2935
7.5400 2.4977 0.2927
7.5600 2.5044 0.2844
7.5800 2.5111 0.2919
7.6000 2.5177 0.2917
7.6200 2.5244 0.2873
7.6400 2.5311 0.2852
7.6600 2.5377 0.2951
7.6800 2.5443 0.2829
7.7000 2.5510 0.2874
7.7200 2.5577 0.2961
7.7400 2.5645 0.2830
7.7600 2.5712 0.2883
7.7800 2.5778 0.2893
7.8000 2.5845 0.2835
7.8200 2.5911 0.2907
7.8400 2.5977 0.2832
7.8600 2.6043 0.2863
7.8800 2.6110 0.2912
7.9000 2.6177 0.2773
7.9200 2.6245 0.2769
7.9400 2.6312 0.2945
7.9600 2.6378 0.2765
7.9800 2.6445 0.2662
8.0000 2.6511 0.3001
8.0200 2.6577 0.2758
8.0400 2.6643 0.2662
8.0600 2.6710 0.2980
8.0800 2.6777 0.2771
8.1000 2.6844 0.2627
8.1200 2.6911 0.2966
8.1400 2.6978 0.2732
8.1600 2.7045 0.2693
8.1800 2.7111 0.2868
8.2000 2.7177 0.2701
8.2200 2.7243 0.2704
8.2400 2.7310 0.2860
8.2600 2.7377 0.2666
8.2800 2.7444 0.2698
8.3000 2.7511 0.2866
8.3200 2.7577 0.2647
8.3400 2.7644 0.2701
8.3600 2.7711 0.2823
8.3800 2.7777 0.2631
8.4000 2.7843 0.2721
8.4200 2.7910 0.2790
8.4400 2.7977 0.2616
8.4600 2.8045 0.2711
8.4800 2.8111 0.2730
8.5000 2.8178 0.2686
8.5200 2.8245 0.2672
8.5400 2.8311 0.2711
8.5600 2.8377 0.2644
8.5800 2.8444 0.2686
8.6000 2.8511 0.2679
8.6200 2.8578 0.2657
8.6400 2.8645 0.2628
8.6600 2.8712 0.2694
8.6800 2.8778 0.2663
8.7000 2.8845 0.2638
8.7200 2.8911 0.2689
8.7400 2.8977 0.2694
8.7600 2.9044 0.2616
8.7800 2.9111 0.2704
8.8000 2.9177 0.2670
8.8200 2.9244 0.2591
8.8400 2.9311 0.2729
8.8600 2.9378 0.2691
8.8800 2.9445 0.2534
8.9000 2.9511 0.2696
8.9200 2.9577 0.2726
8.9400 2.9643 0.2529
8.9600 2.9710 0.2738
8.9800 2.9777 0.2661
9.0000 2.9844 0.2540
9.0200 2.9911 0.2728
9.0400 2.9978 0.2683
9.0600 3.0045 0.2526
9.0800 3.0111 0.2698
9.1000 3.0178 0.2605
9.1200 3.0244 0.2556
9.1400 3.0310 0.2707
9.1600 3.0377 0.2634
9.1800 3.0444 0.2555
9.2000 3.0511 0.2676
9.2200 3.0578 0.2614
9.2400 3.0645 0.2557
9.2600 3.0712 0.2672
9.2800 3.0778 0.2620
9.3000 3.0844 0.2534
9.3200 3.0910 0.2637
9.3400 3.0977 0.2615
9.3600 3.1044 0.2564
9.3800 3.1111 0.2652
9.4000 3.1178 0.2593
9.4200 3.1245 0.2534
9.4400 3.1312 0.2590
9.4600 3.1378 0.2647
9.4800 3.1444 0.2522
9.5000 3.1510 0.2588
9.5200 3.1577 0.2623
9.5400 3.1645 0.2536
9.5600 3.1711 0.2572
9.5800 3.1778 0.2667
9.6000 3.1845 0.2496
9.6200 3.1911 0.2520
9.6400 3.1978 0.2605
9.6600 3.2044 0.2536
9.6800 3.2110 0.2518
9.7000 3.2177 0.2623
9.7200 3.2244 0.2524
9.7400 3.2311 0.2506
9.7600 3.2377 0.2594
9.7800 3.2444 0.2502
9.8000 3.2511 0.2479
9.8200 3.2577 0.2582
9.8400 3.2644 0.2479
9.8600 3.2710 0.2510
9.8800 3.2777 0.2609
9.9000 3.2844 0.2417
9.9200 3.2912 0.2536
9.9400 3.2979 0.2622
9.9600 3.3046 0.2412
9.9800 3.3112 0.2511
10.0000 3.3178 0.2623
10.0200 3.3244 0.2356
10.0400 3.3310 0.2558
10.0600 3.3378 0.2596
10.0800 3.3445 0.2388
10.1000 3.3512 0.2537
10.1200 3.3578 0.2522
10.1400 3.3645 0.2332
10.1600 3.3711 0.2599
10.1800 3.3778 0.2504
10.2000 3.3844 0.2371
10.2200 3.3910 0.2569
10.2400 3.3977 0.2484
10.2600 3.4044 0.2357
10.2800 3.4111 0.2543
10.3000 3.4178 0.2471
10.3200 3.4245 0.2408
10.3400 3.4311 0.2491
10.3600 3.4378 0.2344
10.3800 3.4443 0.2441
10.4000 3.4510 0.2507
10.4200 3.4577 0.2402
10.4400 3.4644 0.2403
10.4600 3.4711 0.2463
10.4800 3.4778 0.2384
10.5000 3.4845 0.2459
10.5200 3.4911 0.2421
10.5400 3.4977 0.2381
10.5600 3.5043 0.2454
10.5800 3.5110 0.2393
10.6000 3.5177 0.2383
10.6200 3.5245 0.2479
10.6400 3.5312 0.2323
10.6600 3.5378 0.2371
10.6800 3.5445 0.2419
10.7000 3.5512 0.2358
10.7200 3.5578 0.2375
10.7400 3.5644 0.2399
10.7600 3.5711 0.2336
10.7800 3.5777 0.2410
10.8000 3.5844 0.2353
10.8200 3.5911 0.2338
10.8400 3.5978 0.2426
10.8600 3.6045 0.2351
10.8800 3.6112 0.2305
10.9000 3.6178 0.2382
10.9200 3.6244 0.2329
10.9400 3.6310 0.2327
10.9600 3.6377 0.2383
10.9800 3.6444 0.2289
11.0000 3.6511 0.2366
11.0200 3.6578 0.2315
11.0400 3.6645 0.2294
11.0600 3.6711 0.2360
11.0800 3.6777 0.2337
11.1000 3.6843 0.2352
11.1200 3.6910 0.2365
11.1400 3.6977 0.2281
11.1600 3.7044 0.2359
11.1800 3.7111 0.2383
11.2000 3.7178 0.2250
11.2200 3.7244 0.2300
11.2400 3.7311 0.2434
11.2600 3.7378 0.2246
11.2800 3.7444 0.2268
11.3000 3.7510 0.2378
11.3200 3.7577 0.2330
11.3400 3.7644 0.2270
11.3600 3.7711 0.2307
11.3800 3.7778 0.2312
11.4000 3.7845 0.2243
11.4200 3.7912 0.2352
11.4400 3.7978 0.2267
11.4600 3.8044 0.2209
11.4800 3.8110 0.2410
11.5000 3.8177 0.2275
11.5200 3.8244 0.2128
11.5400 3.8311 0.2404
11.5600 3.8378 0.2332
11.5800 3.8445 0.2188
11.6000 3.8512 0.2301
11.6200 3.8578 0.2300
11.6400 3.8644 0.2221
11.6600 3.8710 0.2363
11.6800 3.8777 0.2214
11.7000 3.8844 0.2233
11.7200 3.8911 0.2414
11.7400 3.8978 0.2239
11.7600 3.9044 0.2213
11.7800 3.9111 0.2377
11.8000 3.9178 0.2228
11.8200 3.9244 0.2243
11.8400 3.9310 0.2375
11.8600 3.9377 0.2147
11.8800 3.9444 0.2300
11.9000 3.9511 0.2396
11.9200 3.9578 0.2094
11.9400 3.9645 0.2317
11.9600 3.9711 0.2369
11.9800 3.9778 0.2050
12.0000 3.9844 0.2381
12.0200 3.9910 0.2281
12.0400 3.9977 0.2108
12.0600 4.0044 0.2337
12.0800 4.0111 0.2241
12.1000 4.0178 0.2078
12.1200 4.0245 0.2406
12.1400 4.0312 0.2208
12.1600 4.0378 0.2049
12.1800 4.0444 0.2408
12.2000 4.0511 0.2212
12.2200 4.0577 0.2063
12.2400 4.0645 0.2408
12.2600 4.0711 0.2149
12.2800 4.0778 0.2139
12.3000 4.0845 0.2339
12.3200 4.0911 0.2119
12.3400 4.0978 0.2103
12.3600 4.1044 0.2323
12.3800 4.1110 0.2126
12.4000 4.1177 0.2094
12.4200 4.1244 0.2275
12.4400 4.1311 0.2104
12.4600 4.1378 0.2141
12.4800 4.1445 0.2226
12.5000 4.1511 0.2077
12.5200 4.1578 0.2114
12.5400 4.1644 0.2214
12.5600 4.1710 0.2109
12.5800 4.1777 0.2138
12.6000 4.1844 0.2192
12.6200 4.1911 0.2118
12.6400 4.1978 0.2083
12.6600 4.2044 0.2210
12.6800 4.2111 0.2149
12.7000 4.2177 0.2081
12.7200 4.2244 0.2197
12.7400 4.2310 0.2148
12.7600 4.2377 0.2092
12.7800 4.2444 0.2163
12.8000 4.2511 0.2086
12.8200 4.2578 0.2105
12.8400 4.2645 0.2168
12.8600 4.2712 0.2136
12.8800 4.2778 0.2075
12.9000 4.2844 0.2078
12.9200 4.2910 0.2155
12.9400 4.2977 0.2090
12.9600 4.3044 0.2079
12.9800 4.3111 0.2071
13.0000 4.3178 0.2106
13.0200 4.3245 0.2072
13.0400 4.3312 0.2076
13.0600 4.3378 0.2075
13.0800 4.3444 0.2061
13.1000 4.3510 0.2133
13.1200 4.3577 0.2102
13.1400 4.3644 0.1977
13.1600 4.3711 0.2183
13.1800 4.3778 0.2087
13.2000 4.3844 0.1993
13.2200 4.3911 0.2121
13.2400 4.3978 0.2103
13.2600 4.4044 0.2023
13.2800 4.4110 0.2110
13.3000 4.4177 0.2059
13.3200 4.4244 0.2071
13.3400 4.4311 0.2180
13.3600 4.4377 0.1954
13.3800 4.4444 0.2058
13.4000 4.4511 0.2185
13.4200 4.4578 0.1968
13.4400 4.4644 0.2040
13.4600 4.4710 0.2134
13.4800 4.4777 0.1964
13.5000 4.4844 0.2069
13.5200 4.4911 0.2079
13.5400 4.4978 0.1991
13.5600 4.5045 0.2031
13.5800 4.5112 0.2117
13.6000 4.5178 0.1901
13.6200 4.5244 0.2068
13.6400 4.5310 0.2148
13.6600 4.5377 0.1953
13.6800 4.5444 0.2011
13.7000 4.5511 0.2100
13.7200 4.5578 0.1926
13.7400 4.5645 0.2014
13.7600 4.5711 0.2073
13.7800 4.5778 0.1974
13.8000 4.5844 0.2060
13.8200 4.5910 0.2056
13.8400 4.5977 0.1935
13.8600 4.6044 0.2099
13.8800 4.6111 0.2026
13.9000 4.6178 0.1886
13.9200 4.6244 0.2094
13.9400 4.6311 0.2026
13.9600 4.6378 0.1887
13.9800 4.6444 0.2008
14.0000 4.6510 0.2015
14.0200 4.6576 0.1935
14.0400 4.6643 0.2026
14.0600 4.6710 0.2000
14.0800 4.6777 0.1919
14.1000 4.6844 0.2005
14.1200 4.6911 0.1990
14.1400 4.6977 0.1882
14.1600 4.7044 0.2030
14.1800 4.7110 0.2005
14.2000 4.7177 0.1932
14.2200 4.7244 0.1947
14.2400 4.7311 0.1969
14.2600 4.7378 0.1938
14.2800 4.7445 0.1970
14.3000 4.7512 0.1957
14.3200 4.7578 0.1882
14.3400 4.7645 0.1982
14.3600 4.7711 0.1945
14.3800 4.7778 0.1912
14.4000 4.7845 0.1983
14.4200 4.7911 0.1885
14.4400 4.7978 0.1962
14.4600 4.8045 0.1997
14.4800 4.8112 0.1881
14.5000 4.8178 0.1900
14.5200 4.8244 0.1933
14.5400 4.8310 0.1928
14.5600 4.8377 0.1954
14.5800 4.8443 0.1922
14.6000 4.8511 0.1852
14.6200 4.8577 0.1981
14.6400 4.8644 0.1860
14.6600 4.8711 0.1877
14.6800 4.8778 0.2018
14.7000 4.8844 0.1784
14.7200 4.8910 0.1900
14.7400 4.8977 0.2005
14.7600 4.9044 0.1751
14.7800 4.9111 0.1951
14.8000 4.9178 0.1993
14.8200 4.9245 0.1733
14.8400 4.9311 0.1924
14.8600 4.9378 0.2001
14.8800 4.9444 0.1774
14.9000 4.9511 0.1896
14.9200 4.9577 0.1949
14.9400 4.9644 0.1784
14.9600 4.9711 0.1921
14.9800 4.9778 0.1914
15.0000 4.9845 0.1799
15.0200 4.9912 0.1913
15.0400 4.9978 0.1930
15.0600 5.0045 0.1762
15.0800 5.0110 0.1902
15.1000 5.0177 0.1941
15.1200 5.0244 0.1870
15.1400 5.0311 0.1845
15.1600 5.0378 0.1886
15.1800 5.0445 0.1865
15.2000 5.0512 0.1895
15.2200 5.0578 0.1785
15.2400 5.0644 0.1860
15.2600 5.0710 0.1885
15.2800 5.0777 0.1862
15.3000 5.0844 0.1837
15.3200 5.0911 0.1870
15.3400 5.0978 0.1876
15.3600 5.1044 0.1828
15.3800 5.1111 0.1884
15.4000 5.1178 0.1870
15.4200 5.1244 0.1833
15.4400 5.1310 0.1868
15.4600 5.1377 0.1873
15.4800 5.1443 0.1788
15.5000 5.1510 0.1859
15.5200 5.1577 0.1902
15.5400 5.1644 0.1716
15.5600 5.1711 0.1770
15.5800 5.1778 0.2004
15.6000 5.1844 0.1681
15.6200 5.1910 0.1818
15.6400 5.1977 0.1986
15.6600 5.2044 0.1754
15.6800 5.2111 0.1743
15.7000 5.2178 0.1939
15.7200 5.2245 0.1725
15.7400 5.2312 0.1793
15.7600 5.2378 0.1921
15.7800 5.2444 0.1739
15.8000 5.2510 0.1771
15.8200 5.2577 0.1885
15.8400 5.2644 0.1731
15.8600 5.2711 0.1777
15.8800 5.2778 0.1796
15.9000 5.2845 0.1720
15.9200 5.2912 0.1838
15.9400 5.2978 0.1756
15.9600 5.3045 0.1694
15.9800 5.3111 0.1853
16.0000 5.3177 0.1780
16.0200 5.3243 0.1690
16.0400 5.3310 0.1820
16.0600 5.3378 0.1750
16.0800 5.3445 0.1692
16.1000 5.3511 0.1786
16.1200 5.3578 0.1766
16.1400 5.3644 0.1729
16.1600 5.3710 0.1777
16.1800 5.3776 0.1733
16.2000 5.3843 0.1774
16.2200 5.3911 0.1749
16.2400 5.3978 0.1699
16.2600 5.4044 0.1710
16.2800 5.4111 0.1736
16.3000 5.4178 0.1734
16.3200 5.4244 0.1715
16.3400 5.4310 0.1709
16.3600 5.4377 0.1772
16.3800 5.4444 0.1727
16.4000 5.4511 0.1669
16.4200 5.4578 0.1744
16.4400 5.4645 0.1745
16.4600 5.4712 0.1656
16.4800 5.4779 0.1700
16.5000 5.4845 0.1757
16.5200 5.4911 0.1674
16.5400 5.4977 0.1728
16.5600 5.5044 0.1717
16.5800 5.5111 0.1655
16.6000 5.5178 0.1733
16.6200 5.5245 0.1726
16.6400 5.5312 0.1651
16.6600 5.5378 0.1774
16.6800 5.5444 0.1704
16.7000 5.5510 0.1676
16.7200 5.5577 0.1747
16.7400 5.5644 0.1714
16.7600 5.5711 0.1661
16.7800 5.5778 0.1776
16.8000 5.5845 0.1736
16.8200 5.5911 0.1638
16.8400 5.5978 0.1746
16.8600 5.6044 0.1650
16.8800 5.6110 0.1668
16.9000 5.6177 0.1814
16.9200 5.6244 0.1639
16.9400 5.6311 0.1636
16.9600 5.6378 0.1761
16.9800 5.6444 0.1600
17.0000 5.6511 0.1687
17.0200 5.6578 0.1832
17.0400 5.6645 0.1573
17.0600 5.6711 0.1620
17.0800 5.6777 0.1802
17.1000 5.6844 0.1606
17.1200 5.6911 0.1743
17.1400 5.6978 0.1711
17.1600 5.7045 0.1600
17.1800 5.7112 0.1709
17.2000 5.7178 0.1765
17.2200 5.7245 0.1497
17.2400 5.7311 0.1766
17.2600 5.7377 0.1808
17.2800 5.7444 0.1509
17.3000 5.7511 0.1673
17.3200 5.7578 0.1829
17.3400 5.7645 0.1519
17.3600 5.7712 0.1703
17.3800 5.7778 0.1729
17.4000 5.7845 0.1499
17.4200 5.7911 0.1726
17.4400 5.7977 0.1750
17.4600 5.8044 0.1507
17.4800 5.8111 0.1704
17.5000 5.8177 0.1736
17.5200 5.8244 0.1483
17.5400 5.8311 0.1734
17.5600 5.8378 0.1672
17.5800 5.8444 0.1505
17.6000 5.8511 0.1679
17.6200 5.8577 0.1649
17.6400 5.8643 0.1563
17.6600 5.8710 0.1711
17.6800 5.8777 0.1575
17.7000 5.8844 0.1575
17.7200 5.8911 0.1655
17.7400 5.8978 0.1547
17.7600 5.9044 0.1572
17.7800 5.9111 0.1718
17.8000 5.9177 0.1504
17.8200 5.9244 0.1559
17.8400 5.9311 0.1673
17.8600 5.9378 0.1460
17.8800 5.9445 0.1616
17.9000 5.9512 0.1605
17.9200 5.9578 0.1455
17.9400 5.9645 0.1612
17.9600 5.9711 0.1570
17.9800 5.9777 0.1451
18.0000 5.9844 0.1624
18.0200 5.9911 0.1573
18.0400 5.9978 0.1432
18.0600 6.0045 0.1614
18.0800 6.0112 0.1558
18.1000 6.0178 0.1401
18.1200 6.0245 0.1648
18.1400 6.0311 0.1498
18.1600 6.0377 0.1500
18.1800 6.0443 0.1596
18.2000 6.0510 0.1480
18.2200 6.0577 0.1485
18.2400 6.0644 0.1566
18.2600 6.0711 0.1446
18.2800 6.0778 0.1481
18.3000 6.0845 0.1558
18.3200 6.0911 0.1440
18.3400 6.0977 0.1509
18.3600 6.1043 0.1593
18.3800 6.1110 0.1416
18.4000 6.1177 0.1478
18.4200 6.1244 0.1570
18.4400 6.1311 0.1387
18.4600 6.1378 0.1477
18.4800 6.1444 0.1547
18.5000 6.1511 0.1436
18.5200 6.1577 0.1481
18.5400 6.1644 0.1547
18.5600 6.1711 0.1361
18.5800 6.1778 0.1498
18.6000 6.1845 0.1527
18.6200 6.1912 0.1366
18.6400 6.1979 0.1483
18.6600 6.2045 0.1532
18.6800 6.2111 0.1334
18.7000 6.2177 0.1502
18.7200 6.2244 0.1544
18.7400 6.2311 0.1338
18.7600 6.2378 0.1519
18.7800 6.2445 0.1515
18.8000 6.2512 0.1233
18.8200 6.2578 0.1521
18.8400 6.2645 0.1557
18.8600 6.2711 0.1265
18.8800 6.2777 0.1447
18.9000 6.2843 0.1533
18.9200 6.2910 0.1291
18.9400 6.2977 0.1438
18.9600 6.3044 0.1512
18.9800 6.3111 0.1302
19.0000 6.3178 0.1496
19.0200 6.3244 0.1426
19.0400 6.3311 0.1235
19.0600 6.3377 0.1497
19.0800 6.3443 0.1443
19.1000 6.3510 0.1227
19.1200 6.3577 0.1463
19.1400 6.3644 0.1408
19.1600 6.3711 0.1282
19.1800 6.3778 0.1446
19.2000 6.3845 0.1372
19.2200 6.3911 0.1268
19.2400 6.3977 0.1464
19.2600 6.4044 0.1344
19.2800 6.4111 0.1314
19.3000 6.4178 0.1411
19.3200 6.4245 0.1386
19.3400 6.4312 0.1330
19.3600 6.4378 0.1393
19.3800 6.4445 0.1351
19.4000 6.4511 0.1338
19.4200 6.4577 0.1400
19.4400 6.4644 0.1311
19.4600 6.4711 0.1340
19.4800 6.4778 0.1394
19.5000 6.4845 0.1308
19.5200 6.4911 0.1346
19.5400 6.4978 0.1373
19.5600 6.5045 0.1262
19.5800 6.5111 0.1361
19.6000 6.5178 0.1312
19.6200 6.5244 0.1364
19.6400 6.5310 0.1376
19.6600 6.5377 0.1320
19.6800 6.5444 0.1257
19.7000 6.5511 0.1372
19.7200 6.5578 0.1294
19.7400 6.5645 0.1283
19.7600 6.5711 0.1372
19.7800 6.5777 0.1219
19.8000 6.5843 0.1303
19.8200 6.5910 0.1353
19.8400 6.5977 0.1238
19.8600 6.6044 0.1317
19.8800 6.6111 0.1346
19.9000 6.6178 0.1227
19.9200 6.6245 0.1300
19.9400 6.6311 0.1369
19.9600 6.6377 0.1215
19.9800 6.6444 0.1303
20.0000 6.6510 0.1371
20.0200 6.6578 0.1143
20.0400 6.6645 0.1360
20.0600 6.6711 0.1312
20.0800 6.6778 0.1203
20.1000 6.6845 0.1297
20.1200 6.6911 0.1289
20.1400 6.6977 0.1198
20.1600 6.7044 0.1320
20.1800 6.7111 0.1302
20.2000 6.7178 0.1174
20.2200 6.7245 0.1300
20.2400 6.7311 0.1335
20.2600 6.7378 0.1124
20.2800 6.7445 0.1287
20.3000 6.7511 0.1305
20.3200 6.7577 0.1132
20.3400 6.7643 0.1350
20.3600 6.7710 0.1268
20.3800 6.7778 0.1101
20.4000 6.7845 0.1343
20.4200 6.7911 0.1244
20.4400 6.7978 0.1114
20.4600 6.8045 0.1338
20.4800 6.8111 0.1189
20.5000 6.8177 0.1130
20.5200 6.8243 0.1309
20.5400 6.8310 0.1223
20.5600 6.8377 0.1130
20.5800 6.8444 0.1325
20.6000 6.8511 0.1175
20.6200 6.8578 0.1209
20.6400 6.8644 0.1267
20.6600 6.8711 0.1196
20.6800 6.8777 0.1170
20.7000 6.8844 0.1279
20.7200 6.8911 0.1208
20.7400 6.8978 0.1184
20.7600 6.9045 0.1211
20.7800 6.9111 0.1200
20.8000 6.9178 0.1228
20.8200 6.9245 0.1249
20.8400 6.9311 0.1195
20.8600 6.9377 0.1212
20.8800 6.9444 0.1228
20.9000 6.9511 0.1239
20.9200 6.9578 0.1215
20.9400 6.9645 0.1234
20.9600 6.9711 0.1237
20.9800 6.9778 0.1207
21.0000 6.9845 0.1237
21.0200 6.9911 0.1189
21.0400 6.9977 0.1235
21.0600 7.0043 0.1181
21.0800 7.0110 0.1176
21.1000 7.0177 0.1225
21.1200 7.0244 0.1266
21.1400 7.0311 0.1163
21.1600 7.0378 0.1232
21.1800 7.0445 0.1242
21.2000 7.0511 0.1196
21.2200 7.0577 0.1221
21.2400 7.0643 0.1269
21.2600 7.0710 0.1170
21.2800 7.0777 0.1184
21.3000 7.0845 0.1191
21.3200 7.0911 0.1188
21.3400 7.0978 0.1213
21.3600 7.1045 0.1181
21.3800 7.1111 0.1205
21.4000 7.1177 0.1167
21.4200 7.1243 0.1178
21.4400 7.1310 0.1280
21.4600 7.1377 0.1171
21.4800 7.1444 0.1087
21.5000 7.1511 0.1287
21.5200 7.1578 0.1141
21.5400 7.1645 0.1086
21.5600 7.1712 0.1265
21.5800 7.1778 0.1140
21.6000 7.1844 0.1147
21.6200 7.1910 0.1275
21.6400 7.1978 0.1100
21.6600 7.2045 0.1149
21.6800 7.2111 0.1207
21.7000 7.2178 0.1112
21.7200 7.2245 0.1151
21.7400 7.2312 0.1227
21.7600 7.2378 0.1079
21.7800 7.2444 0.1127
21.8000 7.2510 0.1273
21.8200 7.2577 0.1076
21.8400 7.2644 0.1141
21.8600 7.2711 0.1241
21.8800 7.2778 0.1079
21.9000 7.2845 0.1131
21.9200 7.2911 0.1237
21.9400 7.2977 0.1069
21.9600 7.3043 0.1133
21.9800 7.3110 0.1232
22.0000 7.3177 0.1121
22.0200 7.3244 0.1066
22.0400 7.3311 0.1182
22.0600 7.3377 0.1138
22.0800 7.3444 0.1095
22.1000 7.3511 0.1175
22.1200 7.3577 0.1122
22.1400 7.3644 0.1084
22.1600 7.3710 0.1217
22.1800 7.3778 0.1033
22.2000 7.3845 0.1119
22.2200 7.3912 0.1206
22.2400 7.3978 0.1054
22.2600 7.4045 0.1101
22.2800 7.4112 0.1139
22.3000 7.4178 0.1092
22.3200 7.4244 0.1146
22.3400 7.4310 0.1169
22.3600 7.4377 0.1071
22.3800 7.4445 0.1114
22.4000 7.4512 0.1092
22.4200 7.4578 0.1044
22.4400 7.4645 0.1114
22.4600 7.4711 0.1136
22.4800 7.4777 0.1018
22.5000 7.4844 0.1083
22.5200 7.4910 0.1134
22.5400 7.4977 0.1075
22.5600 7.5044 0.1054
22.5800 7.5111 0.1104
22.6000 7.5178 0.1039
22.6200 7.5245 0.1094
22.6400 7.5311 0.1066
22.6600 7.5378 0.1042
22.6800 7.5444 0.1043
22.7000 7.5510 0.1081
22.7200 7.5577 0.1013
22.7400 7.5644 0.1045
22.7600 7.5711 0.1074
22.7800 7.5777 0.1008
22.8000 7.5844 0.1015
22.8200 7.5911 0.1068
22.8400 7.5977 0.1027
22.8600 7.6043 0.0992
22.8800 7.6110 0.1080
22.9000 7.6177 0.0988
22.9200 7.6245 0.1004
22.9400 7.6312 0.1042
22.9600 7.6378 0.1002
22.9800 7.6445 0.0952
23.0000 7.6511 0.1035
23.0200 7.6577 0.0956
23.0400 7.6644 0.0997
23.0600 7.6710 0.1028
23.0800 7.6778 0.0955
23.1000 7.6845 0.0979
23.1200 7.6912 0.1031
23.1400 7.6978 0.0950
23.1600 7.7045 0.0995
23.1800 7.7111 0.0990
23.2000 7.7178 0.0936
23.2200 7.7244 0.1014
23.2400 7.7310 0.1030
23.2600 7.7377 0.0923
23.2800 7.7444 0.0954
23.3000 7.7511 0.0981
23.3200 7.7578 0.0943
23.3400 7.7645 0.0986
23.3600 7.7711 0.0939
23.3800 7.7777 0.0936
23.4000 7.7843 0.0993
23.4200 7.7910 0.0985
23.4400 7.7977 0.0917
23.4600 7.8044 0.0954
23.4800 7.8111 0.0932
23.5000 7.8178 0.0932
23.5200 7.8244 0.0903
23.5400 7.8311 0.0916
23.5600 7.8377 0.0925
23.5800 7.8444 0.0928
23.6000 7.8510 0.0944
23.6200 7.8577 0.0949
23.6400 7.8644 0.0915
23.6600 7.8711 0.0932
23.6800 7.8778 0.0926
23.7000 7.8845 0.0896
23.7200 7.8911 0.0920
23.7400 7.8978 0.0967
23.7600 7.9044 0.0861
23.7800 7.9110 0.0937
23.8000 7.9177 0.0981
23.8200 7.9244 0.0844
23.8400 7.9311 0.0927
23.8600 7.9378 0.0952
23.8800 7.9445 0.0841
23.9000 7.9512 0.0937
23.9200 7.9578 0.0937
23.9400 7.9644 0.0828
23.9600 7.9710 0.0968
23.9800 7.9777 0.0933
24.0000 7.9844 0.0840
24.0200 7.9911 0.0899
24.0400 7.9978 0.0953
24.0600 8.0045 0.0827
24.0800 8.0111 0.0924
24.1000 8.0178 0.0903
24.1200 8.0244 0.0830
24.1400 8.0310 0.0938
24.1600 8.0377 0.0926
24.1800 8.0444 0.0802
24.2000 8.0511 0.0877
24.2200 8.0577 0.0954
24.2400 8.0644 0.0834
24.2600 8.0711 0.0843
24.2800 8.0777 0.0921
24.3000 8.0843 0.0832
24.3200 8.0910 0.0887
24.3400 8.0977 0.0918
24.3600 8.1044 0.0783
24.3800 8.1111 0.0903
24.4000 8.1178 0.0923
24.4200 8.1245 0.0814
24.4400 8.1312 0.0843
24.4600 8.1378 0.0922
24.4800 8.1444 0.0767
24.5000 8.1510 0.0880
24.5200 8.1577 0.0947
24.5400 8.1645 0.0778
24.5600 8.1712 0.0879
24.5800 8.1778 0.0927
24.6000 8.1845 0.0728
24.6200 8.1911 0.0907
24.6400 8.1978 0.0881
24.6600 8.2044 0.0765
24.6800 8.2110 0.0965
24.7000 8.2177 0.0890
24.7200 8.2244 0.0749
24.7400 8.2311 0.0986
24.7600 8.2378 0.0859
24.7800 8.2445 0.0735
24.8000 8.2512 0.0981
24.8200 8.2578 0.0881
24.8400 8.2643 0.0724
24.8600 8.2709 0.0964
24.8800 8.2776 0.0929
24.9000 8.2844 0.0768
24.9200 8.2911 0.0952
24.9400 8.2978 0.0877
24.9600 8.3045 0.0825
24.9800 8.3111 0.0868
25.0000 8.3178 0.0889
25.0200 8.3244 0.0829
25.0400 8.3310 0.0921
25.0600 8.3377 0.0850
25.0800 8.3444 0.0826
25.1000 8.3511 0.0860
25.1200 8.3578 0.0859
25.1400 8.3645 0.0833
25.1600 8.3712 0.0880
25.1800 8.3778 0.0848
25.2000 8.3844 0.0801
25.2200 8.3911 0.0903
25.2400 8.3977 0.0974
25.2600 8.4044 0.0740
25.2800 8.4111 0.0793
25.3000 8.4178 0.0994
25.3200 8.4245 0.0775
25.3400 8.4312 0.0760
25.3600 8.4378 0.1081
25.3800 8.4444 0.0713
25.4000 8.4510 0.0677
25.4200 8.4577 0.1199
25.4400 8.4644 0.0707
25.4600 8.4711 0.0634
25.4800 8.4778 0.1123
25.5000 8.4845 0.0776
25.5200 8.4911 0.0595
25.5400 8.4978 0.1086
25.5600 8.5044 0.0755
25.5800 8.5110 0.0709
25.6000 8.5177 0.1064
25.6200 8.5244 0.0772
25.6400 8.5311 0.0688
25.6600 8.5378 0.0949
25.6800 8.5444 0.0834
25.7000 8.5511 0.0781
25.7200 8.5578 0.0897
25.7400 8.5644 0.0788
25.7600 8.5711 0.0727
25.7800 8.5777 0.0844
25.8000 8.5844 0.0890
25.8200 8.5911 0.0732
25.8400 8.5978 0.0822
25.8600 8.6045 0.0840
25.8800 8.6112 0.0710
25.9000 8.6178 0.0814
25.9200 8.6244 0.0887
25.9400 8.6310 0.0697
25.9600 8.6377 0.0803
25.9800 8.6444 0.0844
26.0000 8.6512 0.0704
26.0200 8.6578 0.0786
26.0400 8.6645 0.0821
26.0600 8.6712 0.0704
26.0800 8.6778 0.0793
26.1000 8.6844 0.0765
26.1200 8.6910 0.0794
26.1400 8.6977 0.0788
26.1600 8.7044 0.0740
26.1800 8.7111 0.0725
26.2000 8.7178 0.0798
26.2200 8.7244 0.0731
26.2400 8.7311 0.0751
26.2600 8.7378 0.0829
26.2800 8.7444 0.0676
26.3000 8.7510 0.0758
26.3200 8.7576 0.0835
26.3400 8.7643 0.0676
26.3600 8.7711 0.0732
26.3800 8.7778 0.0809
26.4000 8.7845 0.0664
26.4200 8.7912 0.0714
26.4400 8.7978 0.0777
26.4600 8.8044 0.0727
26.4800 8.8110 0.0711
26.5000 8.8177 0.0783
26.5200 8.8244 0.0688
26.5400 8.8312 0.0730
26.5600 8.8379 0.0729
26.5800 8.8445 0.0736
26.6000 8.8512 0.0712
26.6200 8.8578 0.0746
26.6400 8.8644 0.0690
26.6600 8.8710 0.0711
26.6800 8.8777 0.0720
26.7000 8.8844 0.0716
26.7200 8.8911 0.0688
26.7400 8.8978 0.0718
26.7600 8.9045 0.0687
26.7800 8.9111 0.0704
26.8000 8.9178 0.0696
26.8200 8.9244 0.0703
26.8400 8.9310 0.0701
26.8600 8.9377 0.0656
26.8800 8.9444 0.0727
26.9000 8.9511 0.0656
26.9200 8.9578 0.0719
26.9400 8.9645 0.0700
26.9600 8.9711 0.0635
26.9800 8.9778 0.0638
27.0000 8.9844 0.0701
27.0200 8.9910 0.0658
27.0400 8.9977 0.0636
27.0600 9.0044 0.0694
27.0800 9.0111 0.0654
27.1000 9.0178 0.0582
27.1200 9.0244 0.0742
27.1400 9.0311 0.0633
27.1600 9.0378 0.0590
27.1800 9.0444 0.0709
27.2000 9.0510 0.0616
27.2200 9.0577 0.0564
27.2400 9.0644 0.0756
27.2600 9.0711 0.0589
27.2800 9.0778 0.0515
27.3000 9.0845 0.0747
27.3200 9.0912 0.0531
27.3400 9.0978 0.0525
27.3600 9.1045 0.0783
27.3800 9.1111 0.0483
27.4000 9.1177 0.0526
27.4200 9.1244 0.0779
27.4400 9.1311 0.0448
27.4600 9.1378 0.0572
27.4800 9.1445 0.0682
27.5000 9.1512 0.0479
27.5200 9.1578 0.0589
27.5400 9.1644 0.0634
27.5600 9.1710 0.0494
27.5800 9.1777 0.0630
27.6000 9.1844 0.0563
27.6200 9.1911 0.0519
27.6400 9.1978 0.0579
27.6600 9.2044 0.0554
27.6800 9.2111 0.0547
27.7000 9.2178 0.0554
27.7200 9.2244 0.0525
27.7400 9.2310 0.0580
27.7600 9.2377 0.0578
27.7800 9.2444 0.0534
27.8000 9.2511 0.0582
27.8200 9.2578 0.0542
27.8400 9.2644 0.0534
27.8600 9.2711 0.0544
27.8800 9.2778 0.0498
27.9000 9.2844 0.0534
27.9200 9.2911 0.0574
27.9400 9.2977 0.0439
27.9600 9.3044 0.0574
27.9800 9.3111 0.0573
28.0000 9.3178 0.0400
28.0200 9.3245 0.0557
28.0400 9.3312 0.0602
28.0600 9.3379 0.0345
28.0800 9.3444 0.0620
28.1000 9.3510 0.0543
28.1200 9.3577 0.0370
28.1400 9.3644 0.0608
28.1600 9.3711 0.0544
28.1800 9.3778 0.0355
28.2000 9.3845 0.0619
28.2200 9.3911 0.0510
28.2400 9.3978 0.0335
28.2600 9.4044 0.0597
28.2800 9.4110 0.0488
28.3000 9.4177 0.0381
28.3200 9.4244 0.0609
28.3400 9.4311 0.0424
28.3600 9.4378 0.0350
28.3800 9.4445 0.0646
28.4000 9.4511 0.0416
28.4200 9.4578 0.0398
28.4400 9.4644 0.0580
28.4600 9.4710 0.0434
28.4800 9.4776 0.0391
28.5000 9.4843 0.0592
28.5200 9.4910 0.0403
28.5400 9.4977 0.0440
28.5600 9.5044 0.0562
28.5800 9.5111 0.0398
28.6000 9.5178 0.0356
28.6200 9.5244 0.0545
28.6400 9.5310 0.0429
28.6600 9.5377 0.0361
28.6800 9.5444 0.0529
28.7000 9.5511 0.0456
28.7200 9.5578 0.0374
28.7400 9.5645 0.0490
28.7600 9.5712 0.0460
28.7800 9.5778 0.0393
28.8000 9.5845 0.0530
28.8200 9.5911 0.0386
28.8400 9.5977 0.0375
28.8600 9.6044 0.0525
28.8800 9.6111 0.0394
28.9000 9.6178 0.0347
28.9200 9.6245 0.0546
28.9400 9.6312 0.0356
28.9600 9.6378 0.0340
28.9800 9.6444 0.0522
29.0000 9.6510 0.0416
29.0200 9.6576 0.0337
29.0400 9.6643 0.0568
29.0600 9.6711 0.0369
29.0800 9.6777 0.0360
29.1000 9.6844 0.0489
29.1200 9.6911 0.0399
29.1400 9.6978 0.0339
29.1600 9.7044 0.0520
29.1800 9.7110 0.0428
29.2000 9.7177 0.0336
29.2200 9.7244 0.0505
29.2400 9.7311 0.0367
29.2600 9.7378 0.0315
29.2800 9.7445 0.0528
29.3000 9.7511 0.0379
29.3200 9.7578 0.0328
29.3400 9.7644 0.0478
29.3600 9.7711 0.0353
29.3800 9.7777 0.0365
29.4000 9.7844 0.0438
29.4200 9.7911 0.0401
29.4400 9.7978 0.0305
29.4600 9.8045 0.0454
29.4800 9.8112 0.0373
29.5000 9.8179 0.0372
29.5200 9.8245 0.0378
29.5400 9.8311 0.0383
29.5600 9.8377 0.0352
29.5800 9.8444 0.0430
29.6000 9.8511 0.0400
29.6200 9.8578 0.0323
29.6400 9.8645 0.0403
29.6600 9.8712 0.0388
29.6800 9.8778 0.0307
29.7000 9.8844 0.0381
29.7200 9.8910 0.0391
29.7400 9.8976 0.0302
29.7600 9.9044 0.0401
29.7800 9.9111 0.0402
29.8000 9.9178 0.0284
29.8200 9.9245 0.0414
29.8400 9.9311 0.0399
29.8600 9.9378 0.0222
29.8800 9.9444 0.0430
29.9000 9.9510 0.0370
29.9200 9.9577 0.0267
29.9400 9.9643 0.0394
29.9600 9.9710 0.0352
29.9800 9.9777 0.0248
30.0000 9.9844 0.0421
30.0200 9.9911 0.0322
30.0400 9.9978 0.0267
30.0600 10.0045 0.0388
30.0800 10.0111 0.0313
30.1000 10.0177 0.0274
30.1200 10.0244 0.0414
30.1400 10.0311 0.0279
30.1600 10.0378 0.0256
30.1800 10.0445 0.0377
30.2000 10.0512 0.0291
30.2200 10.0578 0.0249
30.2400 10.0645 0.0333
30.2600 10.0711 0.0322
30.2800 10.0777 0.0260
30.3000 10.0844 0.0352
30.3200 10.0911 0.0279
30.3400 10.0978 0.0247
30.3600 10.1045 0.0368
30.3800 10.1111 0.0317
30.4000 10.1178 0.0255
30.4200 10.1245 0.0345
30.4400 10.1311 0.0249
30.4600 10.1377 0.0300
30.4800 10.1443 0.0314
30.5000 10.1510 0.0266
30.5200 10.1578 0.0258
30.5400 10.1645 0.0346
30.5600 10.1711 0.0228
30.5800 10.1778 0.0229
30.6000 10.1844 0.0323
30.6200 10.1910 0.0286
30.6400 10.1976 0.0258
30.6600 10.2043 0.0301
30.6800 10.2110 0.0303
30.7000 10.2177 0.0267
30.7200 10.2244 0.0274
30.7400 10.2311 0.0287
30.7600 10.2378 0.0285
30.7800 10.2444 0.0278
30.8000 10.2511 0.0296
30.8200 10.2577 0.0220
30.8400 10.2644 0.0312
30.8600 10.2711 0.0270
30.8800 10.2778 0.0213
30.9000 10.2845 0.0300
30.9200 10.2912 0.0317
30.9400 10.2979 0.0180
30.9600 10.3045 0.0306
30.9800 10.3111 0.0287
31.0000 10.3177 0.0218
31.0200 10.3244 0.0305
31.0400 10.3311 0.0270
31.0600 10.3378 0.0229
31.0800 10.3445 0.0272
31.1000 10.3512 0.0236
31.1200 10.3578 0.0272
31.1400 10.3645 0.0278
31.1600 10.3711 0.0255
31.1800 10.3777 0.0240
31.2000 10.3843 0.0260
31.2200 10.3911 0.0300
31.2400 10.3978 0.0249
31.2600 10.4044 0.0239
31.2800 10.4111 0.0252
31.3000 10.4178 0.0289
31.3200 10.4244 0.0199
31.3400 10.4311 0.0284
31.3600 10.4377 0.0259
31.3800 10.4444 0.0202
31.4000 10.4511 0.0270
31.4200 10.4578 0.0231
31.4400 10.4644 0.0202
31.4600 10.4711 0.0309
31.4800 10.4778 0.0197
31.5000 10.4845 0.0223
31.5200 10.4911 0.0286
31.5400 10.4977 0.0237
31.5600 10.5043 0.0204
31.5800 10.5110 0.0303
31.6000 10.5178 0.0213
31.6200 10.5245 0.0206
31.6400 10.5311 0.0284
31.6600 10.5378 0.0134
31.6800 10.5445 0.0246
31.7000 10.5511 0.0271
31.7200 10.5577 0.0166
31.7400 10.5644 0.0259
31.7600 10.5711 0.0266
31.7800 10.5778 0.0133
31.8000 10.5845 0.0273
31.8200 10.5912 0.0258
31.8400 10.5978 0.0133
31.8600 10.6045 0.0253
31.8800 10.6111 0.0260
31.9000 10.6177 0.0101
31.9200 10.6244 0.0287
31.9400 10.6311 0.0231
31.9600 10.6378 0.0152
31.9800 10.6444 0.0249
32.0000 10.6511 0.0235
32.0200 10.6578 0.0164
32.0400 10.6645 0.0258
32.0600 10.6711 0.0210
32.0800 10.6777 0.0164
32.1000 10.6843 0.0254
32.1200 10.6910 0.0173
32.1400 10.6977 0.0165
32.1600 10.7044 0.0265
32.1800 10.7111 0.0160
32.2000 10.7178 0.0160
32.2200 10.7245 0.0215
32.2400 10.7311 0.0209
32.2600 10.7377 0.0166
32.2800 10.7444 0.0208
32.3000 10.7511 0.0223
32.3200 10.7578 0.0162
32.3400 10.7645 0.0197
32.3600 10.7712 0.0160
32.3800 10.7778 0.0162
32.4000 10.7845 0.0196
32.4200 10.7911 0.0207
32.4400 10.7977 0.0170
32.4600 10.8044 0.0156
32.4800 10.8111 0.0168
32.5000 10.8178 0.0162
32.5200 10.8245 0.0172
32.5400 10.8311 0.0182
32.5600 10.8378 0.0126
32.5800 10.8445 0.0165
32.6000 10.8511 0.0153
32.6200 10.8577 0.0203
32.6400 10.8643 0.0171
32.6600 10.8710 0.0148
32.6800 10.8777 0.0166
32.7000 10.8844 0.0124
32.7200 10.8911 0.0203
32.7400 10.8978 0.0132
32.7600 10.9045 0.0104
32.7800 10.9111 0.0160
32.8000 10.9177 0.0157
32.8200 10.9243 0.0103
32.8400 10.9310 0.0200
32.8600 10.9377 0.0132
32.8800 10.9444 0.0116
32.9000 10.9511 0.0149
32.9200 10.9578 0.0174
32.9400 10.9644 0.0108
32.9600 10.9711 0.0105
32.9800 10.9777 0.0179
33.0000 10.9844 0.0133
33.0200 10.9911 0.0070
33.0400 10.9978 0.0186
33.0600 11.0045 0.0122
33.0800 11.0111 0.0061
33.1000 11.0178 0.0187
33.1200 11.0245 0.0132
33.1400 11.0311 0.0021
33.1600 11.0377 0.0177
33.1800 11.0444 0.0110
33.2000 11.0511 0.0028
33.2200 11.0578 0.0158
33.2400 11.0645 0.0053
33.2600 11.0712 0.0050
33.2800 11.0778 0.0153
33.3000 11.0845 0.0070
33.3200 11.0911 0.0012
33.3400 11.0977 0.0197
33.3600 11.1043 0.0064
33.3800 11.1110 0.0050
33.4000 11.1178 0.0141
33.4200 11.1244 0.0039
33.4400 11.1311 0.0063
33.4600 11.1378 0.0157
33.4800 11.1444 -0.0006
33.5000 11.1511 0.0047
33.5200 11.1577 0.0171
33.5400 11.1643 0.0049
33.5600 11.1710 -0.0001
33.5800 11.1777 0.0150
33.6000 11.1844 0.0049
33.6200 11.1911 0.0034
33.6400 11.1978 0.0142
33.6600 11.2045 0.0012
33.6800 11.2111 0.0000
33.7000 11.2177 0.0121
33.7200 11.2244 0.0067
33.7400 11.2311 0.0012
33.7600 11.2378 0.0128
33.7800 11.2445 -0.0016
33.8000 11.2511 0.0006
33.8200 11.2578 0.0128
33.8400 11.2645 0.0038
33.8600 11.2711 -0.0055
33.8800 11.2777 0.0146
33.9000 11.2844 0.0062
33.9200 11.2910 -0.0028
33.9400 11.2978 0.0106
33.9600 11.3045 0.0031
33.9800 11.3111 -0.0072
34.0000 11.3178 0.0157
34.0200 11.3245 -0.0072
34.0400 11.3312 -0.0049
34.0600 11.3378 0.0151
34.0800 11.3444 -0.0037
34.1000 11.3511 -0.0025
34.1200 11.3577 0.0146
34.1400 11.3644 -0.0071
34.1600 11.3711 -0.0026
34.1800 11.3778 0.0118
34.2000 11.3845 -0.0084
34.2200 11.3911 -0.0012
34.2400 11.3977 0.0124
34.2600 11.4043 -0.0069
34.2800 11.4110 -0.0012
34.3000 11.4177 0.0130
34.3200 11.4244 -0.0096
34.3400 11.4311 0.0040
34.3600 11.4378 0.0071
34.3800 11.4444 -0.0091
34.4000 11.4511 0.0039
34.4200 11.4577 0.0064
34.4400 11.4644 -0.0056
34.4600 11.4711 0.0062
34.4800 11.4778 0.0003
34.5000 11.4844 -0.0061
34.5200 11.4911 0.0030
34.5400 11.4978 0.0016
34.5600 11.5045 -0.0059
34.5800 11.5111 0.0035
34.6000 11.5177 -0.0012
34.6200 11.5244 -0.0048
34.6400 11.5310 0.0047
34.6600 11.5377 0.0007
34.6800 11.5444 -0.0057
34.7000 11.5511 0.0011
34.7200 11.5578 0.0015
34.7400 11.5645 -0.0044
34.7600 11.5711 -0.0025
34.7800 11.5777 0.0022
34.8000 11.5843 -0.0021
34.8200 11.5910 -0.0081
34.8400 11.5978 0.0094
34.8600 11.6045 -0.0075
34.8800 11.6111 -0.0080
34.9000 11.6178 0.0050
34.9200 11.6245 -0.0044
34.9400 11.6311 -0.0089
34.9600 11.6377 0.0087
34.9800 11.6443 -0.0083
35.0000 11.6510 -0.0119
35.0200 11.6577 0.0103
35.0400 11.6644 -0.0088
35.0600 11.6711 -0.0118
35.0800 11.6777 0.0106
35.1000 11.6844 -0.0136
35.1200 11.6911 -0.0097
35.1400 11.6977 0.0086
35.1600 11.7044 -0.0108
35.1800 11.7110 -0.0081
35.2000 11.7178 0.0048
35.2200 11.7245 -0.0161
35.2400 11.7312 -0.0079
35.2600 11.7378 0.0130
35.2800 11.7445 -0.0214
35.3000 11.7511 -0.0068
35.3200 11.7577 0.0055
35.3400 11.7644 -0.0182
35.3600 11.7711 -0.0051
35.3800 11.7778 0.0029
35.4000 11.7845 -0.0195
35.4200 11.7911 -0.0057
35.4400 11.7978 0.0018
35.4600 11.8045 -0.0152
35.4800 11.8111 -0.0075
35.5000 11.8177 -0.0007
35.5200 11.8244 -0.0165
35.5400 11.8310 -0.0056
35.5600 11.8377 -0.0063
35.5800 11.8444 -0.0144
35.6000 11.8511 -0.0050
35.6200 11.8578 -0.0087
35.6400 11.8645 -0.0167
35.6600 11.8711 -0.0074
35.6800 11.8777 -0.0092
35.7000 11.8843 -0.0159
35.7200 11.8910 -0.0060
35.7400 11.8977 -0.0101
35.7600 11.9044 -0.0171
35.7800 11.9111 -0.0075
35.8000 11.9178 -0.0065
35.8200 11.9245 -0.0165
35.8400 11.9311 -0.0101
35.8600 11.9377 -0.0128
35.8800 11.9444 -0.0119
35.9000 11.9510 -0.0101
35.9200 11.9577 -0.0158
35.9400 11.9645 -0.0175
35.9600 11.9711 -0.0062
35.9800 11.9778 -0.0171
36.0000 11.9845 -0.0159
36.0200 11.9911 -0.0081
36.0400 11.9978 -0.0167
36.0600 12.0044 -0.0134
36.0800 12.0110 -0.0073
36.1000 12.0177 -0.0209
36.1200 12.0244 -0.0112
36.1400 12.0311 -0.0128
36.1600 12.0378 -0.0184
36.1800 12.0445 -0.0110
36.2000 12.0512 -0.0142
36.2200 12.0578 -0.0128
36.2400 12.0644 -0.0102
36.2600 12.0710 -0.0162
36.2800 12.0777 -0.0123
36.3000 12.0844 -0.0099
36.3200 12.0911 -0.0198
36.3400 12.0978 -0.0108
36.3600 12.1045 -0.0131
36.3800 12.1111 -0.0215
36.4000 12.1177 -0.0121
36.4200 12.1243 -0.0093
36.4400 12.1310 -0.0240
36.4600 12.1377 -0.0093
36.4800 12.1444 -0.0118
36.5000 12.1510 -0.0183
36.5200 12.1577 -0.0063
36.5400 12.1644 -0.0113
36.5600 12.1711 -0.0270
36.5800 12.1778 -0.0067
36.6000 12.1844 -0.0074
36.6200 12.1911 -0.0225
36.6400 12.1978 -0.0073
36.6600 12.2045 -0.0132
36.6800 12.2112 -0.0274
36.7000 12.2178 -0.0068
36.7200 12.2245 -0.0143
36.7400 12.2312 -0.0255
36.7600 12.2378 -0.0119
36.7800 12.2444 -0.0168
36.8000 12.2510 -0.0183
36.8200 12.2577 -0.0136
36.8400 12.2644 -0.0157
36.8600 12.2712 -0.0231
36.8800 12.2778 -0.0102
36.9000 12.2845 -0.0211
36.9200 12.2911 -0.0198
36.9400 12.2977 -0.0153
36.9600 12.3043 -0.0217
36.9800 12.3110 -0.0193
37.0000 12.3177 -0.0140
37.0200 12.3244 -0.0278
37.0400 12.3311 -0.0180
37.0600 12.3378 -0.0161
37.0800 12.3445 -0.0264
37.1000 12.3512 -0.0210
37.1200 12.3578 -0.0195
37.1400 12.3644 -0.0227
37.1600 12.3710 -0.0216
37.1800 12.3777 -0.0200
37.2000 12.3844 -0.0200
37.2200 12.3911 -0.0226
37.2400 12.3978 -0.0246
37.2600 12.4044 -0.0215
37.2800 12.4111 -0.0250
37.3000 12.4177 -0.0228
37.3200 12.4244 -0.0240
37.3400 12.4310 -0.0230
37.3600 12.4377 -0.0286
37.3800 12.4444 -0.0163
37.4000 12.4512 -0.0280
37.4200 12.4578 -0.0271
37.4400 12.4645 -0.0201
37.4600 12.4712 -0.0285
37.4800 12.4778 -0.0239
37.5000 12.4844 -0.0216
37.5200 12.4910 -0.0316
37.5400 12.4977 -0.0264
37.5600 12.5045 -0.0253
37.5800 12.5112 -0.0295
37.6000 12.5178 -0.0248
37.6200 12.5245 -0.0235
37.6400 12.5311 -0.0353
37.6600 12.5378 -0.0267
37.6800 12.5444 -0.0233
37.7000 12.5510 -0.0344
37.7200 12.5577 -0.0254
37.7400 12.5644 -0.0324
37.7600 12.5711 -0.0325
37.7800 12.5778 -0.0244
37.8000 12.5845 -0.0301
37.8200 12.5911 -0.0337
37.8400 12.5977 -0.0228
37.8600 12.6043 -0.0354
37.8800 12.6110 -0.0354
37.9000 12.6177 -0.0297
37.9200 12.6244 -0.0297
37.9400 12.6311 -0.0342
37.9600 12.6378 -0.0335
37.9800 12.6445 -0.0328
38.0000 12.6511 -0.0304
38.0200 12.6578 -0.0354
38.0400 12.6644 -0.0300
38.0600 12.6710 -0.0344
38.0800 12.6777 -0.0349
38.1000 12.6844 -0.0311
38.1200 12.6911 -0.0370
38.1400 12.6978 -0.0366
38.1600 12.7045 -0.0297
38.1800 12.7112 -0.0390
38.2000 12.7178 -0.0394
38.2200 12.7244 -0.0346
38.2400 12.7310 -0.0336
38.2600 12.7377 -0.0339
38.2800 12.7444 -0.0366
38.3000 12.7511 -0.0351
38.3200 12.7578 -0.0376
38.3400 12.7645 -0.0322
38.3600 12.7712 -0.0447
38.3800 12.7778 -0.0360
38.4000 12.7844 -0.0412
38.4200 12.7910 -0.0366
38.4400 12.7977 -0.0341
38.4600 12.8044 -0.0451
38.4800 12.8111 -0.0380
38.5000 12.8178 -0.0348
38.5200 12.8245 -0.0458
38.5400 12.8312 -0.0375
38.5600 12.8378 -0.0365
38.5800 12.8444 -0.0473
38.6000 12.8510 -0.0398
38.6200 12.8577 -0.0346
38.6400 12.8644 -0.0511
38.6600 12.8711 -0.0431
38.6800 12.8777 -0.0329
38.7000 12.8844 -0.0535
38.7200 12.8911 -0.0363
38.7400 12.8978 -0.0384
38.7600 12.9044 -0.0567
38.7800 12.9110 -0.0376
38.8000 12.9177 -0.0394
38.8200 12.9244 -0.0550
38.8400 12.9311 -0.0340
38.8600 12.9378 -0.0445
38.8800 12.9445 -0.0543
38.9000 12.9512 -0.0361
38.9200 12.9578 -0.0469
38.9400 12.9644 -0.0538
38.9600 12.9710 -0.0326
38.9800 12.9777 -0.0506
39.0000 12.9845 -0.0511
39.0200 12.9912 -0.0389
39.0400 12.9978 -0.0506
39.0600 13.0045 -0.0487
39.0800 13.0112 -0.0422
39.1000 13.0178 -0.0563
39.1200 13.0244 -0.0446
39.1400 13.0310 -0.0361
39.1600 13.0377 -0.0566
39.1800 13.0444 -0.0473
39.2000 13.0511 -0.0420
39.2200 13.0577 -0.0538
39.2400 13.0644 -0.0451
39.2600 13.0711 -0.0461
39.2800 13.0778 -0.0576
39.3000 13.0844 -0.0394
39.3200 13.0910 -0.0525
39.3400 13.0976 -0.0519
39.3600 13.1044 -0.0418
39.3800 13.1111 -0.0559
39.4000 13.1178 -0.0511
39.4200 13.1244 -0.0417
39.4400 13.1311 -0.0591
39.4600 13.1378 -0.0493
39.4800 13.1444 -0.0459
39.5000 13.1510 -0.0573
39.5200 13.1577 -0.0452
39.5400 13.1644 -0.0455
39.5600 13.1711 -0.0558
39.5800 13.1778 -0.0463
39.6000 13.1845 -0.0499
39.6200 13.1912 -0.0571
39.6400 13.1978 -0.0482
39.6600 13.2044 -0.0500
39.6800 13.2111 -0.0523
39.7000 13.2177 -0.0497
39.7200 13.2244 -0.0505
39.7400 13.2311 -0.0585
39.7600 13.2378 -0.0459
39.7800 13.2445 -0.0510
39.8000 13.2512 -0.0508
39.8200 13.2578 -0.0532
39.8400 13.2644 -0.0538
39.8600 13.2710 -0.0486
39.8800 13.2777 -0.0500
39.9000 13.2844 -0.0533
39.9200 13.2911 -0.0502
39.9400 13.2978 -0.0561
39.9600 13.3045 -0.0494
39.9800 13.3111 -0.0553
40.0000 13.3178 -0.0509
40.0200 13.3244 -0.0489
40.0400 13.3310 -0.0545
40.0600 13.3377 -0.0546
40.0800 13.3444 -0.0429
40.1000 13.3511 -0.0571
40.1200 13.3578 -0.0515
40.1400 13.3644 -0.0414
40.1600 13.3711 -0.0609
40.1800 13.3778 -0.0513
40.2000 13.3844 -0.0492
40.2200 13.3911 -0.0601
40.2400 13.3977 -0.0468
40.2600 13.4044 -0.0493
40.2800 13.4111 -0.0615
40.3000 13.4178 -0.0417
40.3200 13.4245 -0.0521
40.3400 13.4312 -0.0585
40.3600 13.4378 -0.0458
40.3800 13.4444 -0.0467
40.4000 13.4510 -0.0599
40.4200 13.4577 -0.0441
40.4400 13.4644 -0.0507
40.4600 13.4711 -0.0553
40.4800 13.4778 -0.0443
40.5000 13.4845 -0.0538
40.5200 13.4911 -0.0576
40.5400 13.4978 -0.0467
40.5600 13.5044 -0.0551
40.5800 13.5111 -0.0521
40.6000 13.5177 -0.0466
40.6200 13.5244 -0.0537
40.6400 13.5311 -0.0534
40.6600 13.5378 -0.0479
40.6800 13.5444 -0.0535
40.7000 13.5511 -0.0516
40.7200 13.5578 -0.0439
40.7400 13.5644 -0.0633
40.7600 13.5710 -0.0486
40.7800 13.5776 -0.0462
40.8000 13.5843 -0.0578
40.8200 13.5910 -0.0523
40.8400 13.5978 -0.0461
40.8600 13.6044 -0.0599
40.8800 13.6111 -0.0530
40.9000 13.6178 -0.0489
40.9200 13.6244 -0.0561
40.9400 13.6310 -0.0538
40.9600 13.6377 -0.0456
40.9800 13.6444 -0.0573
41.0000 13.6511 -0.0562
41.0200 13.6578 -0.0477
41.0400 13.6645 -0.0581
41.0600 13.6712 -0.0573
41.0800 13.6778 -0.0496
41.1000 13.6844 -0.0590
41.1200 13.6911 -0.0589
41.1400 13.6977 -0.0481
41.1600 13.7044 -0.0562
41.1800 13.7111 -0.0545
41.2000 13.7178 -0.0545
41.2200 13.7244 -0.0579
41.2400 13.7311 -0.0555
41.2600 13.7378 -0.0526
41.2800 13.7444 -0.0630
41.3000 13.7510 -0.0537
41.3200 13.7577 -0.0518
41.3400 13.7644 -0.0615
41.3600 13.7711 -0.0632
41.3800 13.7778 -0.0508
41.4000 13.7844 -0.0603
41.4200 13.7911 -0.0613
41.4400 13.7978 -0.0498
41.4600 13.8044 -0.0622
41.4800 13.8110 -0.0626
41.5000 13.8177 -0.0449
41.5200 13.8244 -0.0643
41.5400 13.8311 -0.0641
41.5600 13.8378 -0.0482
41.5800 13.8444 -0.0684
41.6000 13.8511 -0.0674
41.6200 13.8578 -0.0472
41.6400 13.8644 -0.0654
41.6600 13.8710 -0.0682
41.6800 13.8777 -0.0438
41.7000 13.8844 -0.0660
41.7200 13.8911 -0.0672
41.7400 13.8978 -0.0500
41.7600 13.9045 -0.0651
41.7800 13.9112 -0.0669
41.8000 13.9178 -0.0495
41.8200 13.9245 -0.0662
41.8400 13.9311 -0.0642
41.8600 13.9377 -0.0503
41.8800 13.9444 -0.0630
41.9000 13.9511 -0.0694
41.9200 13.9578 -0.0520
41.9400 13.9645 -0.0691
41.9600 13.9712 -0.0622
41.9800 13.9778 -0.0541
42.0000 13.9844 -0.0691
42.0200 13.9910 -0.0640
42.0400 13.9977 -0.0572
42.0600 14.0044 -0.0637
42.0800 14.0111 -0.0654
42.1000 14.0178 -0.0641
42.1200 14.0244 -0.0604
42.1400 14.0311 -0.0676
42.1600 14.0378 -0.0649
42.1800 14.0444 -0.0635
42.2000 14.0510 -0.0628
42.2200 14.0577 -0.0664
42.2400 14.0644 -0.0630
42.2600 14.0711 -0.0663
42.2800 14.0777 -0.0700
42.3000 14.0844 -0.0551
42.3200 14.0911 -0.0737
42.3400 14.0978 -0.0678
42.3600 14.1044 -0.0572
42.3800 14.1111 -0.0711
42.4000 14.1177 -0.0629
42.4200 14.1244 -0.0548
42.4400 14.1311 -0.0792
42.4600 14.1378 -0.0641
42.4800 14.1445 -0.0580
42.5000 14.1512 -0.0773
42.5200 14.1579 -0.0646
42.5400 14.1645 -0.0612
42.5600 14.1711 -0.0788
42.5800 14.1777 -0.0595
42.6000 14.1844 -0.0619
42.6200 14.1911 -0.0804
42.6400 14.1978 -0.0610
42.6600 14.2045 -0.0667
42.6800 14.2111 -0.0759
42.7000 14.2178 -0.0675
42.7200 14.2244 -0.0693
42.7400 14.2311 -0.0769
42.7600 14.2377 -0.0614
42.7800 14.2444 -0.0706
42.8000 14.2511 -0.0787
42.8200 14.2578 -0.0645
42.8400 14.2645 -0.0658
42.8600 14.2711 -0.0811
42.8800 14.2778 -0.0680
42.9000 14.2844 -0.0707
42.9200 14.2910 -0.0780
42.9400 14.2976 -0.0638
42.9600 14.3043 -0.0696
42.9800 14.3110 -0.0823
43.0000 14.3177 -0.0647
43.0200 14.3244 -0.0746
43.0400 14.3311 -0.0821
43.0600 14.3378 -0.0652
43.0800 14.3444 -0.0719
43.1000 14.3510 -0.0843
43.1200 14.3576 -0.0726
43.1400 14.3644 -0.0679
43.1600 14.3711 -0.0805
43.1800 14.3778 -0.0759
43.2000 14.3845 -0.0708
43.2200 14.3912 -0.0824
43.2400 14.3978 -0.0743
43.2600 14.4045 -0.0675
43.2800 14.4111 -0.0856
43.3000 14.4177 -0.0667
43.3200 14.4244 -0.0735
43.3400 14.4311 -0.0859
43.3600 14.4378 -0.0695
43.3800 14.4445 -0.0727
43.4000 14.4512 -0.0849
43.4200 14.4578 -0.0713
43.4400 14.4645 -0.0765
43.4600 14.4710 -0.0834
43.4800 14.4776 -0.0672
43.5000 14.4843 -0.0777
43.5200 14.4911 -0.0868
43.5400 14.4978 -0.0675
43.5600 14.5044 -0.0806
43.5800 14.5111 -0.0841
43.6000 14.5178 -0.0705
43.6200 14.5244 -0.0816
43.6400 14.5310 -0.0772
43.6600 14.5376 -0.0715
43.6800 14.5443 -0.0830
43.7000 14.5511 -0.0777
43.7200 14.5578 -0.0723
43.7400 14.5644 -0.0843
43.7600 14.5711 -0.0700
43.7800 14.5778 -0.0783
43.8000 14.5845 -0.0840
43.8200 14.5911 -0.0739
43.8400 14.5977 -0.0777
43.8600 14.6044 -0.0825
43.8800 14.6111 -0.0728
43.9000 14.6178 -0.0830
43.9200 14.6245 -0.0842
43.9400 14.6312 -0.0799
43.9600 14.6379 -0.0783
43.9800 14.6445 -0.0807
44.0000 14.6511 -0.0834
44.0200 14.6577 -0.0789
44.0400 14.6644 -0.0786
44.0600 14.6711 -0.0841
44.0800 14.6778 -0.0818
44.1000 14.6845 -0.0769
44.1200 14.6912 -0.0880
44.1400 14.6978 -0.0850
44.1600 14.7044 -0.0794
44.1800 14.7110 -0.0847
44.2000 14.7177 -0.0817
44.2200 14.7243 -0.0800
44.2400 14.7311 -0.0889
44.2600 14.7378 -0.0798
44.2800 14.7444 -0.0891
44.3000 14.7511 -0.0885
44.3200 14.7578 -0.0824
44.3400 14.7645 -0.0827
44.3600 14.7711 -0.0945
44.3800 14.7777 -0.0793
44.4000 14.7843 -0.0868
44.4200 14.7910 -0.0912
44.4400 14.7977 -0.0795
44.4600 14.8044 -0.0946
44.4800 14.8111 -0.0894
44.5000 14.8178 -0.0819
44.5200 14.8245 -0.0933
44.5400 14.8311 -0.0864
44.5600 14.8377 -0.0842
44.5800 14.8444 -0.0941
44.6000 14.8511 -0.0845
44.6200 14.8578 -0.0899
44.6400 14.8645 -0.0986
44.6600 14.8712 -0.0794
44.6800 14.8778 -0.0956
44.7000 14.8845 -0.0978
44.7200 14.8911 -0.0751
44.7400 14.8977 -0.1001
44.7600 14.9044 -0.0917
44.7800 14.9111 -0.0817
44.8000 14.9178 -0.0985
44.8200 14.9245 -0.0924
44.8400 14.9312 -0.0846
44.8600 14.9378 -0.1041
44.8800 14.9445 -0.0883
44.9000 14.9511 -0.0852
44.9200 14.9577 -0.1031
44.9400 14.9643 -0.0880
44.9600 14.9710 -0.0911
44.9800 14.9778 -0.1043
45.0000 14.9844 -0.0876
45.0200 14.9911 -0.0891
45.0400 14.9978 -0.1055
45.0600 15.0044 -0.0906
45.0800 15.0110 -0.0910
45.1000 15.0176 -0.1011
45.1200 15.0243 -0.0901
45.1400 15.0310 -0.0960
45.1600 15.0378 -0.1042
45.1800 15.0444 -0.0899
45.2000 15.0511 -0.0960
45.2200 15.0578 -0.0966
45.2400 15.0645 -0.0936
45.2600 15.0711 -0.0949
45.2800 15.0777 -0.1027
45.3000 15.0844 -0.0899
45.3200 15.0911 -0.0950
45.3400 15.0978 -0.0993
45.3600 15.1045 -0.0959
45.3800 15.1111 -0.0940
45.4000 15.1178 -0.1023
45.4200 15.1245 -0.0960
45.4400 15.1311 -0.0957
45.4600 15.1377 -0.1006
45.4800 15.1444 -0.0975
45.5000 15.1511 -0.0916
45.5200 15.1578 -0.1003
45.5400 15.1645 -0.0985
45.5600 15.1712 -0.0893
45.5800 15.1778 -0.1084
45.6000 15.1845 -0.0994
45.6200 15.1910 -0.0900
45.6400 15.1977 -0.1043
45.6600 15.2043 -0.1006
45.6800 15.2110 -0.0902
45.7000 15.2178 -0.1106
45.7200 15.2245 -0.0957
45.7400 15.2311 -0.0902
45.7600 15.2378 -0.1094
45.7800 15.2445 -0.1020
45.8000 15.2511 -0.0880
45.8200 15.2577 -0.1067
45.8400 15.2643 -0.0998
45.8600 15.2710 -0.0910
45.8800 15.2777 -0.1040
45.9000 15.2844 -0.1000
45.9200 15.2911 -0.0910
45.9400 15.2978 -0.1061
45.9600 15.3045 -0.0984
45.9800 15.3111 -0.0951
46.0000 15.3177 -0.1070
46.0200 15.3243 -0.0959
46.0400 15.3310 -0.0963
46.0600 15.3378 -0.1079
46.0800 15.3445 -0.0981
46.1000 15.3511 -0.0976
46.1200 15.3578 -0.1022
46.1400 15.3645 -0.0922
46.1600 15.3711 -0.1046
46.1800 15.3777 -0.1024
46.2000 15.3843 -0.0947
46.2200 15.3911 -0.1056
46.2400 15.3978 -0.0998
46.2600 15.4045 -0.0950
46.2800 15.4112 -0.1145
46.3000 15.4178 -0.0925
46.3200 15.4245 -0.0964
46.3400 15.4311 -0.1096
46.3600 15.4377 -0.0899
46.3800 15.4444 -0.0965
46.4000 15.4511 -0.1167
46.4200 15.4578 -0.0945
46.4400 15.4644 -0.1000
46.4600 15.4711 -0.1165
46.4800 15.4778 -0.0852
46.5000 15.4844 -0.1063
46.5200 15.4911 -0.1172
46.5400 15.4977 -0.0836
46.5600 15.5043 -0.1085
46.5800 15.5110 -0.1118
46.6000 15.5177 -0.0908
46.6200 15.5244 -0.1119
46.6400 15.5311 -0.1051
46.6600 15.5378 -0.0955
46.6800 15.5445 -0.1134
46.7000 15.5511 -0.1015
46.7200 15.5577 -0.0939
46.7400 15.5644 -0.1191
46.7600 15.5711 -0.0980
46.7800 15.5778 -0.1030
46.8000 15.5845 -0.1148
46.8200 15.5912 -0.0963
46.8400 15.5978 -0.1085
46.8600 15.6045 -0.1131
46.8800 15.6111 -0.0941
46.9000 15.6177 -0.1128
46.9200 15.6244 -0.1085
46.9400 15.6311 -0.0947
46.9600 15.6378 -0.1153
46.9800 15.6445 -0.1110
47.0000 15.6511 -0.0957
47.0200 15.6578 -0.1152
47.0400 15.6645 -0.1096
47.0600 15.6711 -0.1038
47.0800 15.6777 -0.1169
47.1000 15.6843 -0.1030
47.1200 15.6910 -0.1058
47.1400 15.6977 -0.1150
47.1600 15.7044 -0.1094
47.1800 15.7111 -0.1069
47.2000 15.7178 -0.1191
47.2200 15.7245 -0.1106
47.2400 15.7311 -0.1105
47.2600 15.7377 -0.1135
47.2800 15.7443 -0.1149
47.3000 15.7510 -0.1168
47.3200 15.7577 -0.1141
47.3400 15.7644 -0.1154
47.3600 15.7711 -0.1185
47.3800 15.7778 -0.1115
47.4000 15.7844 -0.1245
47.4200 15.7911 -0.1218
47.4400 15.7977 -0.1109
47.4600 15.8043 -0.1218
47.4800 15.8110 -0.1166
47.5000 15.8177 -0.1124
47.5200 15.8245 -0.1301
47.5400 15.8312 -0.1194
47.5600 15.8378 -0.1088
47.5800 15.8445 -0.1299
47.6000 15.8512 -0.1161
47.6200 15.8577 -0.1140
47.6400 15.8644 -0.1242
47.6600 15.8711 -0.1197
47.6800 15.8778 -0.1165
47.7000 15.8845 -0.1235
47.7200 15.8911 -0.1208
47.7400 15.8978 -0.1188
47.7600 15.9045 -0.1264
47.7800 15.9111 -0.1259
47.8000 15.9177 -0.1148
47.8200 15.9243 -0.1236
47.8400 15.9310 -0.1227
47.8600 15.9377 -0.1175
47.8800 15.9444 -0.1224
47.9000 15.9511 -0.1260
47.9200 15.9578 -0.1143
47.9400 15.9644 -0.1261
47.9600 15.9711 -0.1310
47.9800 15.9777 -0.1123
48.0000 15.9843 -0.1243
48.0200 15.9910 -0.1233
48.0400 15.9977 -0.1162
48.0600 16.0044 -0.1250
48.0800 16.0111 -0.1309
48.1000 16.0178 -0.1188
48.1200 16.0245 -0.1269
48.1400 16.0311 -0.1302
48.1600 16.0377 -0.1217
48.1800 16.0444 -0.1239
48.2000 16.0510 -0.1278
48.2200 16.0578 -0.1197
48.2400 16.0645 -0.1261
48.2600 16.0711 -0.1280
48.2800 16.0778 -0.1216
48.3000 16.0845 -0.1233
48.3200 16.0911 -0.1266
48.3400 16.0977 -0.1193
48.3600 16.1044 -0.1258
48.3800 16.1110 -0.1253
48.4000 16.1178 -0.1188
48.4200 16.1245 -0.1242
48.4400 16.1311 -0.1251
48.4600 16.1378 -0.1198
48.4800 16.1445 -0.1223
48.5000 16.1511 -0.1259
48.5200 16.1578 -0.1191
48.5400 16.1644 -0.1246
48.5600 16.1710 -0.1248
48.5800 16.1777 -0.1201
48.6000 16.1844 -0.1208
48.6200 16.1911 -0.1292
48.6400 16.1978 -0.1139
48.6600 16.2045 -0.1242
48.6800 16.2111 -0.1289
48.7000 16.2177 -0.1099
48.7200 16.2243 -0.1221
48.7400 16.2310 -0.1320
48.7600 16.2377 -0.1109
48.7800 16.2444 -0.1229
48.8000 16.2511 -0.1308
48.8200 16.2578 -0.1095
48.8400 16.2644 -0.1214
48.8600 16.2711 -0.1285
48.8800 16.2777 -0.1085
48.9000 16.2844 -0.1256
48.9200 16.2910 -0.1276
48.9400 16.2977 -0.1093
48.9600 16.3044 -0.1331
48.9800 16.3111 -0.1258
49.0000 16.3178 -0.1110
49.0200 16.3245 -0.1270
49.0400 16.3312 -0.1284
49.0600 16.3378 -0.1109
49.0800 16.3444 -0.1274
49.1000 16.3511 -0.1260
49.1200 16.3577 -0.1133
49.1400 16.3645 -0.1266
49.1600 16.3711 -0.1307
49.1800 16.3778 -0.1092
49.2000 16.3845 -0.1261
49.2200 16.3911 -0.1327
49.2400 16.3977 -0.1127
49.2600 16.4043 -0.1275
49.2800 16.4110 -0.1355
49.3000 16.4178 -0.1095
49.3200 16.4245 -0.1294
49.3400 16.4311 -0.1375
49.3600 16.4378 -0.1065
49.3800 16.4445 -0.1322
49.4000 16.4511 -0.1374
49.4200 16.4577 -0.1015
49.4400 16.4643 -0.1321
49.4600 16.4710 -0.1347
49.4800 16.4777 -0.1031
49.5000 16.4844 -0.1397
49.5200 16.4911 -0.1270
49.5400 16.4977 -0.1070
49.5600 16.5044 -0.1374
49.5800 16.5111 -0.1280
49.6000 16.5177 -0.1103
49.6200 16.5244 -0.1421
49.6400 16.5310 -0.1252
49.6600 16.5377 -0.1143
49.6800 16.5444 -0.1373
49.7000 16.5511 -0.1272
49.7200 16.5578 -0.1135
49.7400 16.5645 -0.1382
49.7600 16.5712 -0.1234
49.7800 16.5778 -0.1198
49.8000 16.5844 -0.1328
49.8200 16.5910 -0.1280
49.8400 16.5978 -0.1194
49.8600 16.6045 -0.1292
49.8800 16.6112 -0.1310
49.9000 16.6178 -0.1228
49.9200 16.6245 -0.1303
49.9400 16.6311 -0.1294
49.9600 16.6377 -0.1239
49.9800 16.6444 -0.1266
50.0000 16.6510 -0.1387
50.0200 16.6577 -0.1242
50.0400 16.6644 -0.1331
50.0600 16.6711 -0.1366
50.0800 16.6777 -0.1247
50.1000 16.6844 -0.1287
50.1200 16.6911 -0.1401
50.1400 16.6977 -0.1273
50.1600 16.7043 -0.1310
50.1800 16.7110 -0.1352
50.2000 16.7177 -0.1270
50.2200 16.7244 -0.1326
50.2400 16.7311 -0.1460
50.2600 16.7378 -0.1267
50.2800 16.7445 -0.1342
50.3000 16.7511 -0.1440
50.3200 16.7577 -0.1260
50.3400 16.7643 -0.1343
50.3600 16.7710 -0.1463
50.3800 16.7777 -0.1346
50.4000 16.7844 -0.1319
50.4200 16.7911 -0.1424
50.4400 16.7978 -0.1377
50.4600 16.8045 -0.1384
50.4800 16.8112 -0.1394
50.5000 16.8178 -0.1441
50.5200 16.8244 -0.1348
50.5400 16.8310 -0.1396
50.5600 16.8377 -0.1423
50.5800 16.8445 -0.1348
50.6000 16.8511 -0.1441
50.6200 16.8578 -0.1459
50.6400 16.8645 -0.1273
50.6600 16.8712 -0.1428
50.6800 16.8778 -0.1472
50.7000 16.8844 -0.1305
50.7200 16.8910 -0.1427
50.7400 16.8977 -0.1511
50.7600 16.9044 -0.1292
50.7800 16.9111 -0.1492
50.8000 16.9178 -0.1514
50.8200 16.9245 -0.1269
50.8400 16.9311 -0.1533
50.8600 16.9377 -0.1483
50.8800 16.9443 -0.1282
50.9000 16.9510 -0.1534
50.9200 16.9577 -0.1471
50.9400 16.9644 -0.1324
50.9600 16.9711 -0.1546
50.9800 16.9777 -0.1433
51.0000 16.9844 -0.1377
51.0200 16.9911 -0.1586
51.0400 16.9977 -0.1401
51.0600 17.0044 -0.1338
51.0800 17.0110 -0.1622
51.1000 17.0177 -0.1393
51.1200 17.0245 -0.1396
51.1400 17.0311 -0.1615
51.1600 17.0378 -0.1396
51.1800 17.0445 -0.1410
51.2000 17.0512 -0.1593
51.2200 17.0578 -0.1440
51.2400 17.0644 -0.1465
51.2600 17.0710 -0.1561
51.2800 17.0777 -0.1445
51.3000 17.0844 -0.1490
51.3200 17.0911 -0.1590
51.3400 17.0978 -0.1404
51.3600 17.1045 -0.1511
51.3800 17.1112 -0.1565
51.4000 17.1178 -0.1472
51.4200 17.1244 -0.1519
51.4400 17.1310 -0.1547
51.4600 17.1377 -0.1574
51.4800 17.1444 -0.1475
51.5000 17.1511 -0.1526
51.5200 17.1578 -0.1567
51.5400 17.1645 -0.1493
51.5600 17.1712 -0.1522
51.5800 17.1778 -0.1629
51.6000 17.1844 -0.1438
51.6200 17.1910 -0.1596
51.6400 17.1977 -0.1592
51.6600 17.2044 -0.1504
51.6800 17.2111 -0.1551
51.7000 17.2177 -0.1616
51.7200 17.2244 -0.1506
51.7400 17.2311 -0.1545
51.7600 17.2378 -0.1632
51.7800 17.2444 -0.1515
51.8000 17.2510 -0.1529
51.8200 17.2577 -0.1633
51.8400 17.2644 -0.1530
51.8600 17.2712 -0.1561
51.8800 17.2778 -0.1650
51.9000 17.2845 -0.1569
51.9200 17.2912 -0.1560
51.9400 17.2978 -0.1584
51.9600 17.3044 -0.1596
51.9800 17.3110 -0.1509
52.0000 17.3177 -0.1633
52.0200 17.3245 -0.1553
52.0400 17.3312 -0.1536
52.0600 17.3378 -0.1601
52.0800 17.3445 -0.1572
52.1000 17.3511 -0.1509
52.1200 17.3578 -0.1620
52.1400 17.3644 -0.1586
52.1600 17.3710 -0.1557
52.1800 17.3777 -0.1623
52.2000 17.3844 -0.1607
52.2200 17.3911 -0.1560
52.2400 17.3978 -0.1667
52.2600 17.4044 -0.1600
52.2800 17.4111 -0.1556
52.3000 17.4177 -0.1661
52.3200 17.4243 -0.1630
52.3400 17.4310 -0.1486
52.3600 17.4377 -0.1626
52.3800 17.4444 -0.1643
52.4000 17.4511 -0.1478
52.4200 17.4578 -0.1671
52.4400 17.4645 -0.1613
52.4600 17.4712 -0.1481
52.4800 17.4778 -0.1684
52.5000 17.4844 -0.1635
52.5200 17.4910 -0.1474
52.5400 17.4977 -0.1703
52.5600 17.5044 -0.1646
52.5800 17.5111 -0.1497
52.6000 17.5178 -0.1683
52.6200 17.5245 -0.1670
52.6400 17.5312 -0.1494
52.6600 17.5378 -0.1704
52.6800 17.5444 -0.1627
52.7000 17.5510 -0.1493
52.7200 17.5577 -0.1673
52.7400 17.5644 -0.1655
52.7600 17.5711 -0.1486
52.7800 17.5778 -0.1684
52.8000 17.5845 -0.1606
52.8200 17.5912 -0.1528
52.8400 17.5978 -0.1717
52.8600 17.6044 -0.1647
52.8800 17.6110 -0.1493
52.9000 17.6177 -0.1697
52.9200 17.6244 -0.1665
52.9400 17.6311 -0.1504
52.9600 17.6378 -0.1712
52.9800 17.6445 -0.1641
53.0000 17.6511 -0.1574
53.0200 17.6578 -0.1698
53.0400 17.6644 -0.1617
53.0600 17.6710 -0.1526
53.0800 17.6777 -0.1709
53.1000 17.6844 -0.1621
53.1200 17.6911 -0.1549
53.1400 17.6977 -0.1712
53.1600 17.7044 -0.1649
53.1800 17.7111 -0.1546
53.2000 17.7177 -0.1746
53.2200 17.7244 -0.1644
53.2400 17.7310 -0.1558
53.2600 17.7377 -0.1674
53.2800 17.7444 -0.1678
53.3000 17.7511 -0.1593
53.3200 17.7578 -0.1678
53.3400 17.7645 -0.1708
53.3600 17.7712 -0.1584
53.3800 17.7778 -0.1712
53.4000 17.7844 -0.1744
53.4200 17.7910 -0.1599
53.4400 17.7977 -0.1683
53.4600 17.8044 -0.1752
53.4800 17.8112 -0.1589
53.5000 17.8178 -0.1665
53.5200 17.8245 -0.1790
53.5400 17.8312 -0.1616
53.5600 17.8378 -0.1638
53.5800 17.8444 -0.1826
53.6000 17.8510 -0.1545
53.6200 17.8577 -0.1736
53.6400 17.8644 -0.1833
53.6600 17.8711 -0.1592
53.6800 17.8777 -0.1684
53.7000 17.8844 -0.1859
53.7200 17.8911 -0.1604
53.7400 17.8978 -0.1733
53.7600 17.9044 -0.1874
53.7800 17.9110 -0.1608
53.8000 17.9176 -0.1671
53.8200 17.9243 -0.1840
53.8400 17.9311 -0.1660
53.8600 17.9377 -0.1730
53.8800 17.9444 -0.1808
53.9000 17.9511 -0.1638
53.9200 17.9578 -0.1765
53.9400 17.9644 -0.1872
53.9600 17.9710 -0.1655
53.9800 17.9777 -0.1758
54.0000 17.9844 -0.1921
54.0200 17.9911 -0.1639
54.0400 17.9978 -0.1797
54.0600 18.0045 -0.1880
54.0800 18.0112 -0.1741
54.1000 18.0179 -0.1780
54.1200 18.0245 -0.1865
54.1400 18.0311 -0.1689
54.1600 18.0377 -0.1831
54.1800 18.0444 -0.1956
54.2000 18.0511 -0.1672
54.2200 18.0578 -0.1805
54.2400 18.0645 -0.1953
54.2600 18.0712 -0.1712
54.2800 18.0778 -0.1852
54.3000 18.0844 -0.1890
54.3200 18.0910 -0.1689
54.3400 18.0977 -0.1822
54.3600 18.1044 -0.1931
54.3800 18.1111 -0.1733
54.4000 18.1178 -0.1866
54.4200 18.1245 -0.1862
54.4400 18.1311 -0.1689
54.4600 18.1378 -0.1944
54.4800 18.1444 -0.1868
54.5000 18.1510 -0.1763
54.5200 18.1576 -0.1891
54.5400 18.1644 -0.1831
54.5600 18.1711 -0.1823
54.5800 18.1778 -0.1934
54.6000 18.1844 -0.1818
54.6200 18.1911 -0.1836
54.6400 18.1978 -0.1881
54.6600 18.2044 -0.1867
54.6800 18.2111 -0.1834
54.7000 18.2177 -0.1861
54.7200 18.2244 -0.1851
54.7400 18.2311 -0.1870
54.7600 18.2378 -0.1815
54.7800 18.2445 -0.1876
54.8000 18.2512 -0.1920
54.8200 18.2579 -0.1811
54.8400 18.2645 -0.1944
54.8600 18.2710 -0.1912
54.8800 18.2777 -0.1762
54.9000 18.2844 -0.1950
54.9200 18.2911 -0.1911
54.9400 18.2978 -0.1815
54.9600 18.3045 -0.2000
54.9800 18.3112 -0.1880
55.0000 18.3178 -0.1793
55.0200 18.3244 -0.2045
55.0400 18.3311 -0.1877
55.0600 18.3377 -0.1740
55.0800 18.3444 -0.2108
55.1000 18.3511 -0.1826
55.1200 18.3578 -0.1861
55.1400 18.3644 -0.2037
55.1600 18.3711 -0.1820
55.1800 18.3778 -0.1851
55.2000 18.3844 -0.2076
55.2200 18.3910 -0.1829
55.2400 18.3976 -0.1892
55.2600 18.4043 -0.2053
55.2800 18.4110 -0.1869
55.3000 18.4177 -0.1924
55.3200 18.4244 -0.2034
55.3400 18.4311 -0.1876
55.3600 18.4378 -0.1940
55.3800 18.4444 -0.2027
55.4000 18.4510 -0.1895
55.4200 18.4577 -0.1934
55.4400 18.4644 -0.1963
55.4600 18.4711 -0.1964
55.4800 18.4778 -0.1959
55.5000 18.4845 -0.1993
55.5200 18.4912 -0.1966
55.5400 18.4978 -0.1952
55.5600 18.5044 -0.1953
55.5800 18.5110 -0.2007
55.6000 18.5177 -0.1887
55.6200 18.5244 -0.2000
55.6400 18.5311 -0.2039
55.6600 18.5378 -0.1884
55.6800 18.5445 -0.2003
55.7000 18.5511 -0.2075
55.7200 18.5578 -0.1868
55.7400 18.5644 -0.2049
55.7600 18.5710 -0.2066
55.7800 18.5776 -0.1828
55.8000 18.5843 -0.2031
55.8200 18.5911 -0.2080
55.8400 18.5978 -0.1850
55.8600 18.6045 -0.2081
55.8800 18.6111 -0.2073
55.9000 18.6178 -0.1846
55.9200 18.6244 -0.2125
55.9400 18.6310 -0.2043
55.9600 18.6377 -0.1863
55.9800 18.6444 -0.2115
56.0000 18.6511 -0.2078
56.0200 18.6578 -0.1855
56.0400 18.6645 -0.2147
56.0600 18.6711 -0.2044
56.0800 18.6778 -0.1867
56.1000 18.6844 -0.2167
56.1200 18.6910 -0.2037
56.1400 18.6977 -0.1901
56.1600 18.7044 -0.2141
56.1800 18.7111 -0.2030
56.2000 18.7178 -0.1937
56.2200 18.7245 -0.2119
56.2400 18.7312 -0.2025
56.2600 18.7378 -0.1952
56.2800 18.7445 -0.2154
56.3000 18.7511 -0.2022
56.3200 18.7577 -0.1984
56.3400 18.7644 -0.2134
56.3600 18.7711 -0.2032
56.3800 18.7778 -0.1998
56.4000 18.7845 -0.2126
56.4200 18.7912 -0.2035
56.4400 18.7978 -0.1989
56.4600 18.8044 -0.2131
56.4800 18.8110 -0.2048
56.5000 18.8177 -0.1985
56.5200 18.8244 -0.2057
56.5400 18.8311 -0.2082
56.5600 18.8378 -0.1967
56.5800 18.8444 -0.2104
56.6000 18.8511 -0.2044
56.6200 18.8578 -0.1980
56.6400 18.8644 -0.2085
56.6600 18.8710 -0.2065
56.6800 18.8777 -0.1955
56.7000 18.8843 -0.2141
56.7200 18.8911 -0.2058
56.7400 18.8977 -0.1964
56.7600 18.9044 -0.2123
56.7800 18.9111 -0.2044
56.8000 18.9178 -0.1975
56.8200 18.9244 -0.2140
56.8400 18.9311 -0.2041
56.8600 18.9377 -0.1982
56.8800 18.9444 -0.2105
56.9000 18.9511 -0.2037
56.9200 18.9578 -0.2040
56.9400 18.9645 -0.2040
56.9600 18.9712 -0.2044
56.9800 18.9779 -0.2061
57.0000 18.9845 -0.2010
57.0200 18.9911 -0.2021
57.0400 18.9977 -0.2081
57.0600 19.0044 -0.1967
57.0800 19.0111 -0.2084
57.1000 19.0178 -0.2061
57.1200 19.0245 -0.1977
57.1400 19.0312 -0.2060
57.1600 19.0378 -0.2075
57.1800 19.0445 -0.2014
57.2000 19.0511 -0.2074
57.2200 19.0577 -0.2026
57.2400 19.0644 -0.1988
57.2600 19.0711 -0.2096
57.2800 19.0778 -0.2048
57.3000 19.0844 -0.1989
57.3200 19.0911 -0.2091
57.3400 19.0978 -0.2013
57.3600 19.1045 -0.2001
57.3800 19.1111 -0.2105
57.4000 19.1176 -0.1997
57.4200 19.1243 -0.2009
57.4400 19.1310 -0.2049
57.4600 19.1377 -0.2019
57.4800 19.1444 -0.2016
57.5000 19.1511 -0.2108
57.5200 19.1578 -0.1988
57.5400 19.1644 -0.2022
57.5600 19.1710 -0.2134
57.5800 19.1777 -0.2018
57.6000 19.1844 -0.1978
57.6200 19.1911 -0.2161
57.6400 19.1978 -0.2016
57.6600 19.2045 -0.1990
57.6800 19.2112 -0.2133
57.7000 19.2178 -0.2037
57.7200 19.2245 -0.2063
57.7400 19.2311 -0.2125
57.7600 19.2378 -0.2029
57.7800 19.2444 -0.2061
57.8000 19.2511 -0.2099
57.8200 19.2578 -0.2067
57.8400 19.2645 -0.2096
57.8600 19.2712 -0.2119
57.8800 19.2778 -0.2079
57.9000 19.2845 -0.2142
57.9200 19.2911 -0.2101
57.9400 19.2977 -0.2050
57.9600 19.3043 -0.2124
57.9800 19.3110 -0.2047
58.0000 19.3177 -0.2109
58.0200 19.3244 -0.2125
58.0400 19.3311 -0.2079
58.0600 19.3378 -0.2137
58.0800 19.3444 -0.2187
58.1000 19.3510 -0.2081
58.1200 19.3577 -0.2162
58.1400 19.3643 -0.2102
58.1600 19.3711 -0.2111
58.1800 19.3778 -0.2189
58.2000 19.3845 -0.2146
58.2200 19.3911 -0.2094
58.2400 19.3978 -0.2200
58.2600 19.4045 -0.2148
58.2800 19.4111 -0.2125
58.3000 19.4177 -0.2201
58.3200 19.4244 -0.2135
58.3400 19.4311 -0.2167
58.3600 19.4378 -0.2185
58.3800 19.4445 -0.2116
58.4000 19.4512 -0.2193
58.4200 19.4578 -0.2208
58.4400 19.4645 -0.2119
58.4600 19.4711 -0.2203
58.4800 19.4777 -0.2193
58.5000 19.4843 -0.2163
58.5200 19.4911 -0.2205
58.5400 19.4978 -0.2233
58.5600 19.5045 -0.2178
58.5800 19.5111 -0.2258
58.6000 19.5178 -0.2208
58.6200 19.5244 -0.2234
58.6400 19.5310 -0.2241
58.6600 19.5377 -0.2192
58.6800 19.5444 -0.2241
58.7000 19.5511 -0.2249
58.7200 19.5578 -0.2245
58.7400 19.5645 -0.2275
58.7600 19.5711 -0.2153
58.7800 19.5778 -0.2305
58.8000 19.5844 -0.2292
58.8200 19.5911 -0.2161
58.8400 19.5977 -0.2330
58.8600 19.6043 -0.2245
58.8800 19.6110 -0.2214
58.9000 19.6177 -0.2290
58.9200 19.6244 -0.2284
58.9400 19.6311 -0.2189
58.9600 19.6378 -0.2353
58.9800 19.6445 -0.2274
59.0000 19.6511 -0.2197
59.0200 19.6577 -0.2348
59.0400 19.6643 -0.2236
59.0600 19.6711 -0.2171
59.0800 19.6778 -0.2394
59.1000 19.6845 -0.2204
59.1200 19.6912 -0.2260
59.1400 19.6978 -0.2366
59.1600 19.7045 -0.2222
59.1800 19.7111 -0.2216
59.2000 19.7177 -0.2338
59.2200 19.7244 -0.2180
59.2400 19.7311 -0.2259
59.2600 19.7378 -0.2357
59.2800 19.7445 -0.2199
59.3000 19.7511 -0.2266
59.3200 19.7578 -0.2315
59.3400 19.7645 -0.2233
59.3600 19.7711 -0.2271
59.3800 19.7777 -0.2281
59.4000 19.7843 -0.2233
59.4200 19.7910 -0.2222
59.4400 19.7978 -0.2277
59.4600 19.8045 -0.2345
59.4800 19.8111 -0.2189
59.5000 19.8178 -0.2310
59.5200 19.8245 -0.2312
59.5400 19.8311 -0.2253
59.5600 19.8377 -0.2255
59.5800 19.8443 -0.2330
59.6000 19.8510 -0.2258
59.6200 19.8577 -0.2295
59.6400 19.8644 -0.2343
59.6600 19.8711 -0.2196
59.6800 19.8778 -0.2349
59.7000 19.8844 -0.2392
59.7200 19.8911 -0.2158
59.7400 19.8977 -0.2385
59.7600 19.9044 -0.2322
59.7800 19.9111 -0.2245
59.8000 19.9178 -0.2388
59.8200 19.9245 -0.2356
59.8400 19.9311 -0.2235
59.8600 19.9378 -0.2334
59.8800 19.9445 -0.2415
59.9000 19.9511 -0.2196
59.9200 19.9578 -0.2417
59.9400 19.9644 -0.2369
59.9600 19.9711 -0.2216
59.9800 19.9778 -0.2437
60.0000 19.9845 -0.2382
60.0200 19.9912 -0.2223
60.0400 19.9978 -0.2405
60.0600 20.0045 -0.2424
60.0800 20.0111 -0.2213
60.1000 20.0177 -0.2394
60.1200 20.0243 -0.2412
60.1400 20.0310 -0.2182
60.1600 20.0378 -0.2488
60.1800 20.0444 -0.2421
60.2000 20.0511 -0.2202
60.2200 20.0578 -0.2474
60.2400 20.0645 -0.2425
60.2600 20.0711 -0.2216
60.2800 20.0777 -0.2454
60.3000 20.0843 -0.2420
60.3200 20.0910 -0.2214
60.3400 20.0978 -0.2517
60.3600 20.1044 -0.2426
60.3800 20.1111 -0.2188
60.4000 20.1178 -0.2537
60.4200 20.1245 -0.2441
60.4400 20.1311 -0.2224
60.4600 20.1377 -0.2588
60.4800 20.1443 -0.2370
60.5000 20.1510 -0.2237
60.5200 20.1577 -0.2563
60.5400 20.1645 -0.2394
60.5600 20.1711 -0.2268
60.5800 20.1778 -0.2620
60.6000 20.1845 -0.2354
60.6200 20.1911 -0.2319
60.6400 20.1977 -0.2635
60.6600 20.2044 -0.2342
60.6800 20.2111 -0.2289
60.7000 20.2178 -0.2680
60.7200 20.2245 -0.2388
60.7400 20.2312 -0.2346
60.7600 20.2378 -0.2661
60.7800 20.2445 -0.2400
60.8000 20.2511 -0.2399
60.8200 20.2577 -0.2651
60.8400 20.2644 -0.2399
60.8600 20.2711 -0.2382
60.8800 20.2778 -0.2669
60.9000 20.2844 -0.2446
60.9200 20.2911 -0.2408
60.9400 20.2978 -0.2638
60.9600 20.3045 -0.2486
60.9800 20.3111 -0.2433
61.0000 20.3177 -0.2648
61.0200 20.3243 -0.2513
61.0400 20.3310 -0.2515
61.0600 20.3377 -0.2507
61.0800 20.3444 -0.2175
61.1000 20.3511 -0.1619
61.1200 20.3578 -0.1229
61.1400 20.3645 -0.0744
61.1600 20.3711 -0.0445
61.1800 20.3777 -0.0282
61.2000 20.3844 -0.0076
61.2200 20.3911 0.0114
61.2400 20.3978 0.0234
61.2600 20.4045 0.0403
61.2800 20.4112 0.0814
61.3000 20.4178 0.1086
61.3200 20.4245 0.1361
61.3400 20.4311 0.1760
61.3600 20.4377 0.1946
61.3800 20.4444 0.2226
61.4000 20.4510 0.2566
61.4200 20.4577 0.2732
61.4400 20.4645 0.2993
61.4600 20.4711 0.3350
61.4800 20.4778 0.3625
61.5000 20.4845 0.3693
61.5200 20.4911 0.4112
61.5400 20.4977 0.4314
61.5600 20.5043 0.4480
61.5800 20.5110 0.4820
61.6000 20.5177 0.4814
61.6200 20.5244 0.4651
61.6400 20.5311 0.4706
61.6600 20.5378 0.4602
61.6800 20.5445 0.4516
61.7000 20.5511 0.4659
61.7200 20.5577 0.4611
61.7400 20.5643 0.4435
61.7600 20.5710 0.4680
61.7800 20.5777 0.4607
61.8000 20.5844 0.4392
61.8200 20.5911 0.4652
61.8400 20.5978 0.4634
61.8600 20.6044 0.4508
61.8800 20.6111 0.4614
61.9000 20.6177 0.4690
61.9200 20.6244 0.4520
61.9400 20.6310 0.4684
61.9600 20.6377 0.4674
61.9800 20.6445 0.4478
62.0000 20.6511 0.4736
62.0200 20.6578 0.4742
62.0400 20.6645 0.4448
62.0600 20.6712 0.4697
62.0800 20.6778 0.4713
62.1000 20.6844 0.4552
62.1200 20.6910 0.4738
62.1400 20.6978 0.4709
62.1600 20.7045 0.4499
62.1800 20.7112 0.4753
62.2000 20.7178 0.4663
62.2200 20.7245 0.4490
62.2400 20.7311 0.4835
62.2600 20.7377 0.4642
62.2800 20.7443 0.4503
62.3000 20.7510 0.4823
62.3200 20.7577 0.4640
62.3400 20.7644 0.4536
62.3600 20.7711 0.4845
62.3800 20.7777 0.4552
62.4000 20.7844 0.4540
62.4200 20.7911 0.4806
62.4400 20.7977 0.4542
62.4600 20.8043 0.4570
62.4800 20.8110 0.4789
62.5000 20.8177 0.4490
62.5200 20.8244 0.4606
62.5400 20.8311 0.4704
62.5600 20.8378 0.4468
62.5800 20.8445 0.4601
62.6000 20.8512 0.4589
62.6200 20.8578 0.4409
62.6400 20.8644 0.4607
62.6600 20.8710 0.4597
62.6800 20.8778 0.4482
62.7000 20.8845 0.4627
62.7200 20.8912 0.4536
62.7400 20.8978 0.4518
62.7600 20.9045 0.4603
62.7800 20.9111 0.4495
62.8000 20.9177 0.4526
62.8200 20.9244 0.4593
62.8400 20.9310 0.4399
62.8600 20.9377 0.4545
62.8800 20.9445 0.4487
62.9000 20.9511 0.4441
62.9200 20.9578 0.4511
62.9400 20.9645 0.4452
62.9600 20.9712 0.4378
62.9800 20.9778 0.4507
63.0000 20.9844 0.4429
63.0200 20.9910 0.4408
63.0400 20.9977 0.4461
63.0600 21.0044 0.4433
63.0800 21.0111 0.4378
63.1000 21.0178 0.4438
63.1200 21.0245 0.4403
63.1400 21.0312 0.4380
63.1600 21.0378 0.4389
63.1800 21.0443 0.4402
63.2000 21.0510 0.4430
63.2200 21.0577 0.4396
63.2400 21.0644 0.4384
63.2600 21.0711 0.4353
63.2800 21.0778 0.4400
63.3000 21.0845 0.4402
63.3200 21.0911 0.4298
63.3400 21.0977 0.4354
63.3600 21.1044 0.4431
63.3800 21.1110 0.4297
63.4000 21.1177 0.4359
63.4200 21.1244 0.4394
63.4400 21.1311 0.4324
63.4600 21.1378 0.4358
63.4800 21.1445 0.4396
63.5000 21.1511 0.4233
63.5200 21.1578 0.4382
63.5400 21.1644 0.4399
63.5600 21.1710 0.4243
63.5800 21.1777 0.4324
63.6000 21.1844 0.4409
63.6200 21.1911 0.4251
63.6400 21.1978 0.4349
63.6600 21.2045 0.4398
63.6800 21.2112 0.4284
63.7000 21.2177 0.4332
63.7200 21.2243 0.4380
63.7400 21.2310 0.4211
63.7600 21.2377 0.4353
63.7800 21.2444 0.4371
63.8000 21.2511 0.4118
63.8200 21.2578 0.4393
63.8400 21.2645 0.4338
63.8600 21.2711 0.4178
63.8800 21.2778 0.4343
63.9000 21.2844 0.4330
63.9200 21.2910 0.4164
63.9400 21.2977 0.4353
63.9600 21.3044 0.4274
63.9800 21.3111 0.4163
64.0000 21.3177 0.4326
64.0200 21.3244 0.4288
64.0400 21.3311 0.4122
64.0600 21.3377 0.4345
64.0800 21.3444 0.4313
64.1000 21.3510 0.4170
64.1200 21.3577 0.4301
64.1400 21.3645 0.4246
64.1600 21.3711 0.4164
64.1800 21.3778 0.4294
64.2000 21.3845 0.4212
64.2200 21.3911 0.4160
64.2400 21.3978 0.4332
64.2600 21.4044 0.4202
64.2800 21.4110 0.4160
64.3000 21.4178 0.4262
64.3200 21.4245 0.4192
64.3400 21.4312 0.4131
64.3600 21.4378 0.4322
64.3800 21.4445 0.4217
64.4000 21.4511 0.4143
64.4200 21.4578 0.4282
64.4400 21.4644 0.4198
64.4600 21.4710 0.4165
64.4800 21.4777 0.4286
64.5000 21.4844 0.4145
64.5200 21.4911 0.4195
64.5400 21.4978 0.4226
64.5600 21.5045 0.4174
64.5800 21.5111 0.4131
64.6000 21.5177 0.4215
64.6200 21.5243 0.4176
64.6400 21.5309 0.4186
64.6600 21.5377 0.4212
64.6800 21.5444 0.4141
64.7000 21.5511 0.4210
64.7200 21.5578 0.4190
64.7400 21.5645 0.4145
64.7600 21.5711 0.4114
64.7800 21.5778 0.4182
64.8000 21.5844 0.4162
64.8200 21.5910 0.4091
64.8400 21.5977 0.4197
64.8600 21.6044 0.4152
64.8800 21.6111 0.4090
64.9000 21.6178 0.4164
64.9200 21.6245 0.4135
64.9400 21.6311 0.4140
64.9600 21.6378 0.4099
64.9800 21.6444 0.4171
65.0000 21.6511 0.4125
65.0200 21.6577 0.4154
65.0400 21.6644 0.4063
65.0600 21.6711 0.4159
65.0800 21.6778 0.4132
65.1000 21.6845 0.4049
65.1200 21.6912 0.4121
65.1400 21.6978 0.4103
65.1600 21.7044 0.4135
65.1800 21.7110 0.4110
65.2000 21.7177 0.4056
65.2200 21.7244 0.4115
65.2400 21.7311 0.4064
65.2600 21.7378 0.4055
65.2800 21.7445 0.4110
65.3000 21.7511 0.4102
65.3200 21.7577 0.4074
65.3400 21.7643 0.4085
65.3600 21.7710 0.4060
65.3800 21.7777 0.4047
65.4000 21.7844 0.4098
65.4200 21.7911 0.3983
65.4400 21.7977 0.4064
65.4600 21.8044 0.4063
65.4800 21.8111 0.4002
65.5000 21.8177 0.4033
65.5200 21.8244 0.4051
65.5400 21.8310 0.4014
65.5600 21.8377 0.4043
65.5800 21.8445 0.4038
65.6000 21.8512 0.4026
65.6200 21.8578 0.4006
65.6400 21.8645 0.4032
65.6600 21.8712 0.4024
65.6800 21.8778 0.4023
65.7000 21.8844 0.4040
65.7200 21.8910 0.4014
65.7400 21.8977 0.4017
65.7600 21.9044 0.3976
65.7800 21.9111 0.4014
65.8000 21.9178 0.4006
65.8200 21.9245 0.4019
65.8400 21.9312 0.3987
65.8600 21.9378 0.3974
65.8800 21.9444 0.3999
65.9000 21.9510 0.4014
65.9200 21.9577 0.3938
65.9400 21.9644 0.4017
65.9600 21.9711 0.3978
65.9800 21.9778 0.3966
66.0000 21.9844 0.4017
66.0200 21.9911 0.4010
66.0400 21.9978 0.3915
66.0600 22.0044 0.4060
66.0800 22.0110 0.3978
66.1000 22.0177 0.3900
66.1200 22.0244 0.4050
66.1400 22.0311 0.3947
66.1600 22.0377 0.3880
66.1800 22.0444 0.4050
66.2000 22.0511 0.3905
66.2200 22.0578 0.3858
66.2400 22.0644 0.4104
66.2600 22.0710 0.3861
66.2800 22.0777 0.3917
66.3000 22.0844 0.4044
66.3200 22.0911 0.3841
66.3400 22.0978 0.3907
66.3600 22.1045 0.4051
66.3800 22.1112 0.3842
66.4000 22.1178 0.3922
66.4200 22.1244 0.3990
66.4400 22.1310 0.3882
66.4600 22.1377 0.3933
66.4800 22.1444 0.4033
66.5000 22.1512 0.3839
66.5200 22.1578 0.3911
66.5400 22.1645 0.3944
66.5600 22.1711 0.3851
66.5800 22.1778 0.3910
66.6000 22.1844 0.3957
66.6200 22.1910 0.3859
66.6400 22.1977 0.3913
66.6600 22.2044 0.3943
66.6800 22.2111 0.3838
66.7000 22.2178 0.3897
66.7200 22.2245 0.3918
66.7400 22.2311 0.3809
66.7600 22.2378 0.3926
66.7800 22.2444 0.3898
66.8000 22.2510 0.3820
66.8200 22.2577 0.3915
66.8400 22.2644 0.3885
66.8600 22.2711 0.3854
66.8800 22.2778 0.3884
66.9000 22.2844 0.3904
66.9200 22.2911 0.3820
66.9400 22.2978 0.3888
66.9600 22.3044 0.3866
66.9800 22.3110 0.3848
67.0000 22.3177 0.3877
67.0200 22.3244 0.3834
67.0400 22.3311 0.3823
67.0600 22.3378 0.3909
67.0800 22.3445 0.3822
67.1000 22.3512 0.3804
67.1200 22.3578 0.3840
67.1400 22.3644 0.3831
67.1600 22.3710 0.3804
67.1800 22.3777 0.3890
67.2000 22.3844 0.3843
67.2200 22.3911 0.3769
67.2400 22.3978 0.3898
67.2600 22.4045 0.3806
67.2800 22.4112 0.3749
67.3000 22.4178 0.3844
67.3200 22.4244 0.3802
67.3400 22.4310 0.3749
67.3600 22.4377 0.3892
67.3800 22.4444 0.3725
67.4000 22.4512 0.3771
67.4200 22.4578 0.3872
67.4400 22.4645 0.3732
67.4600 22.4711 0.3734
67.4800 22.4778 0.3895
67.5000 22.4844 0.3706
67.5200 22.4910 0.3800
67.5400 22.4977 0.3837
67.5600 22.5044 0.3668
67.5800 22.5111 0.3788
67.6000 22.5177 0.3787
67.6200 22.5244 0.3650
67.6400 22.5311 0.3831
67.6600 22.5378 0.3772
67.6800 22.5444 0.3653
67.7000 22.5510 0.3797
67.7200 22.5577 0.3757
67.7400 22.5644 0.3638
67.7600 22.5711 0.3746
67.7800 22.5778 0.3748
67.8000 22.5845 0.3610
67.8200 22.5912 0.3758
67.8400 22.5978 0.3660
67.8600 22.6044 0.3593
67.8800 22.6111 0.3821
67.9000 22.6177 0.3703
67.9200 22.6244 0.3570
67.9400 22.6311 0.3812
67.9600 22.6378 0.3698
67.9800 22.6445 0.3566
68.0000 22.6512 0.3777
68.0200 22.6578 0.3690
68.0400 22.6644 0.3568
68.0600 22.6711 0.3773
68.0800 22.6777 0.3652
68.1000 22.6844 0.3559
68.1200 22.6911 0.3758
68.1400 22.6977 0.3597
68.1600 22.7044 0.3609
68.1800 22.7111 0.3776
68.2000 22.7178 0.3615
68.2200 22.7244 0.3543
68.2400 22.7310 0.3783
68.2600 22.7376 0.3650
68.2800 22.7443 0.3542
68.3000 22.7511 0.3685
68.3200 22.7577 0.3646
68.3400 22.7644 0.3592
68.3600 22.7711 0.3693
68.3800 22.7778 0.3602
68.4000 22.7844 0.3592
68.4200 22.7910 0.3684
68.4400 22.7977 0.3642
68.4600 22.8044 0.3533
68.4800 22.8111 0.3693
68.5000 22.8178 0.3642
68.5200 22.8245 0.3520
68.5400 22.8312 0.3688
68.5600 22.8378 0.3662
68.5800 22.8445 0.3515
68.6000 22.8511 0.3684
68.6200 22.8577 0.3613
68.6400 22.8644 0.3504
68.6600 22.8711 0.3718
68.6800 22.8778 0.3621
68.7000 22.8845 0.3562
68.7200 22.8912 0.3673
68.7400 22.8979 0.3585
68.7600 22.9044 0.3493
68.7800 22.9110 0.3703
68.8000 22.9176 0.3625
68.8200 22.9244 0.3512
68.8400 22.9311 0.3681
68.8600 22.9378 0.3593
68.8800 22.9445 0.3517
68.9000 22.9511 0.3704
68.9200 22.9578 0.3545
68.9400 22.9644 0.3570
68.9600 22.9710 0.3621
68.9800 22.9777 0.3576
69.0000 22.9844 0.3565
69.0200 22.9911 0.3656
69.0400 22.9978 0.3544
69.0600 23.0044 0.3580
69.0800 23.0111 0.3613
69.1000 23.0178 0.3529
69.1200 23.0244 0.3575
69.1400 23.0310 0.3618
69.1600 23.0377 0.3543
69.1800 23.0444 0.3565
69.2000 23.0511 0.3590
69.2200 23.0578 0.3530
69.2400 23.0645 0.3571
69.2600 23.0712 0.3558
69.2800 23.0779 0.3572
69.3000 23.0845 0.3532
69.3200 23.0910 0.3590
69.3400 23.0977 0.3589
69.3600 23.1044 0.3545
69.3800 23.1111 0.3543
69.4000 23.1178 0.3577
69.4200 23.1245 0.3510
69.4400 23.1312 0.3541
69.4600 23.1378 0.3565
69.4800 23.1444 0.3485
69.5000 23.1510 0.3541
69.5200 23.1577 0.3630
69.5400 23.1644 0.3483
69.5600 23.1711 0.3528
69.5800 23.1778 0.3565
69.6000 23.1844 0.3502
69.6200 23.1911 0.3528
69.6400 23.1978 0.3506
69.6600 23.2044 0.3459
69.6800 23.2110 0.3516
69.7000 23.2176 0.3567
69.7200 23.2243 0.3453
69.7400 23.2310 0.3512
69.7600 23.2377 0.3553
69.7800 23.2444 0.3435
69.8000 23.2511 0.3462
69.8200 23.2578 0.3532
69.8400 23.2644 0.3431
69.8600 23.2710 0.3440
69.8800 23.2777 0.3506
69.9000 23.2844 0.3467
69.9200 23.2911 0.3396
69.9400 23.2978 0.3499
69.9600 23.3045 0.3447
69.9800 23.3112 0.3468
70.0000 23.3178 0.3477
70.0200 23.3245 0.3391
70.0400 23.3311 0.3455
70.0600 23.3377 0.3485
70.0800 23.3444 0.3388
70.1000 23.3511 0.3398
70.1200 23.3578 0.3486
70.1400 23.3645 0.3393
70.1600 23.3711 0.3395
70.1800 23.3778 0.3466
70.2000 23.3844 0.3384
70.2200 23.3910 0.3368
70.2400 23.3977 0.3465
70.2600 23.4043 0.3366
70.2800 23.4111 0.3388
70.3000 23.4178 0.3468
70.3200 23.4244 0.3390
70.3400 23.4311 0.3336
70.3600 23.4378 0.3474
70.3800 23.4444 0.3331
70.4000 23.4510 0.3380
70.4200 23.4576 0.3458
70.4400 23.4643 0.3335
70.4600 23.4711 0.3328
70.4800 23.4778 0.3473
70.5000 23.4844 0.3348
70.5200 23.4911 0.3378
70.5400 23.4978 0.3503
70.5600 23.5044 0.3316
70.5800 23.5110 0.3339
70.6000 23.5177 0.3501
70.6200 23.5244 0.3339
70.6400 23.5311 0.3386
70.6600 23.5378 0.3411
70.6800 23.5445 0.3303
70.7000 23.5512 0.3459
70.7200 23.5578 0.3381
70.7400 23.5645 0.3280
70.7600 23.5711 0.3432
70.7800 23.5777 0.3400
70.8000 23.5844 0.3274
70.8200 23.5911 0.3493
70.8400 23.5978 0.3287
70.8600 23.6045 0.3344
70.8800 23.6112 0.3424
70.9000 23.6179 0.3263
70.9200 23.6245 0.3361
70.9400 23.6311 0.3439
70.9600 23.6377 0.3261
70.9800 23.6444 0.3399
71.0000 23.6511 0.3404
71.0200 23.6578 0.3282
71.0400 23.6644 0.3422
71.0600 23.6711 0.3313
71.0800 23.6778 0.3291
71.1000 23.6844 0.3398
71.1200 23.6911 0.3276
71.1400 23.6977 0.3382
71.1600 23.7043 0.3451
71.1800 23.7111 0.3204
71.2000 23.7178 0.3354
71.2200 23.7244 0.3402
71.2400 23.7311 0.3235
71.2600 23.7378 0.3372
71.2800 23.7444 0.3300
71.3000 23.7511 0.3196
71.3200 23.7577 0.3401
71.3400 23.7644 0.3307
71.3600 23.7711 0.3239
71.3800 23.7778 0.3389
71.4000 23.7845 0.3308
71.4200 23.7912 0.3205
71.4400 23.7979 0.3419
71.4600 23.8045 0.3204
71.4800 23.8111 0.3230
71.5000 23.8177 0.3419
71.5200 23.8244 0.3224
71.5400 23.8311 0.3259
71.5600 23.8378 0.3365
71.5800 23.8445 0.3188
71.6000 23.8512 0.3247
71.6200 23.8578 0.3368
71.6400 23.8645 0.3212
71.6600 23.8711 0.3239
71.6800 23.8777 0.3340
71.7000 23.8844 0.3206
71.7200 23.8911 0.3278
71.7400 23.8978 0.3297
71.7600 23.9044 0.3148
71.7800 23.9111 0.3259
71.8000 23.9178 0.3280
71.8200 23.9245 0.3177
71.8400 23.9311 0.3239
71.8600 23.9377 0.3286
71.8800 23.9443 0.3175
71.9000 23.9510 0.3286
71.9200 23.9577 0.3264
71.9400 23.9644 0.3155
71.9600 23.9711 0.3252
71.9800 23.9778 0.3288
72.0000 23.9844 0.3103
72.0200 23.9910 0.3294
72.0400 23.9976 0.3235
72.0600 24.0043 0.3143
72.0800 24.0111 0.3249
72.1000 24.0178 0.3200
72.1200 24.0245 0.3180
72.1400 24.0312 0.3248
72.1600 24.0379 0.3153
72.1800 24.0445 0.3123
72.2000 24.0511 0.3262
72.2200 24.0577 0.3127
72.2400 24.0644 0.3130
72.2600 24.0711 0.3287
72.2800 24.0778 0.3106
72.3000 24.0845 0.3121
72.3200 24.0911 0.3265
72.3400 24.0978 0.3076
72.3600 24.1045 0.3161
72.3800 24.1111 0.3206
72.4000 24.1177 0.3120
72.4200 24.1243 0.3180
72.4400 24.1310 0.3244
72.4600 24.1377 0.3050
72.4800 24.1444 0.3176
72.5000 24.1511 0.3199
72.5200 24.1578 0.3095
72.5400 24.1644 0.3217
72.5600 24.1710 0.3177
72.5800 24.1777 0.3095
72.6000 24.1843 0.3201
72.6200 24.1910 0.3108
72.6400 24.1978 0.3071
72.6600 24.2045 0.3235
72.6800 24.2111 0.3105
72.7000 24.2178 0.3066
72.7200 24.2245 0.3184
72.7400 24.2311 0.3086
72.7600 24.2377 0.3079
72.7800 24.2444 0.3236
72.8000 24.2511 0.3048
72.8200 24.2578 0.3060
72.8400 24.2645 0.3184
72.8600 24.2711 0.3081
72.8800 24.2778 0.3080
72.9000 24.2845 0.3213
72.9200 24.2911 0.3029
72.9400 24.2977 0.3111
72.9600 24.3043 0.3218
72.9800 24.3111 0.3042
73.0000 24.3178 0.3061
73.0200 24.3245 0.3218
73.0400 24.3312 0.2950
73.0600 24.3378 0.3090
73.0800 24.3445 0.3189
73.1000 24.3511 0.2964
73.1200 24.3577 0.3136
73.1400 24.3643 0.3216
73.1600 24.3710 0.2915
73.1800 24.3778 0.3108
73.2000 24.3844 0.3146
73.2200 24.3911 0.2960
73.2400 24.3978 0.3124
73.2600 24.4045 0.3154
73.2800 24.4111 0.2934
73.3000 24.4177 0.3105
73.3200 24.4243 0.3181
73.3400 24.4310 0.2932
73.3600 24.4377 0.3064
73.3800 24.4444 0.3077
73.4000 24.4511 0.2949
73.4200 24.4578 0.3072
73.4400 24.4645 0.3091
73.4600 24.4711 0.2919
73.4800 24.4777 0.3062
73.5000 24.4844 0.3114
73.5200 24.4910 0.2937
73.5400 24.4978 0.2989
73.5600 24.5045 0.3089
73.5800 24.5112 0.2873
73.6000 24.5178 0.3023
73.6200 24.5245 0.3075
73.6400 24.5311 0.2932
73.6600 24.5377 0.2991
73.6800 24.5444 0.3044
73.7000 24.5511 0.2939
73.7200 24.5578 0.3032
73.7400 24.5645 0.3025
73.7600 24.5711 0.2859
73.7800 24.5778 0.3016
73.8000 24.5845 0.2965
73.8200 24.5911 0.2876
73.8400 24.5977 0.3035
73.8600 24.6043 0.2989
73.8800 24.6110 0.2841
73.9000 24.6177 0.3019
73.9200 24.6244 0.2971
73.9400 24.6311 0.2861
73.9600 24.6378 0.3012
73.9800 24.6445 0.2947
74.0000 24.6511 0.2872
74.0200 24.6577 0.3041
74.0400 24.6643 0.2879
74.0600 24.6710 0.2915
74.0800 24.6777 0.2991
74.1000 24.6844 0.2909
74.1200 24.6911 0.2898
74.1400 24.6978 0.3003
74.1600 24.7044 0.2887
74.1800 24.7111 0.2946
74.2000 24.7177 0.2967
74.2200 24.7244 0.2903
74.2400 24.7311 0.2951
74.2600 24.7378 0.2942
74.2800 24.7445 0.2893
74.3000 24.7511 0.2989
74.3200 24.7578 0.2929
74.3400 24.7645 0.2872
74.3600 24.7712 0.2940
74.3800 24.7778 0.2920
74.4000 24.7844 0.2945
74.4200 24.7910 0.2911
74.4400 24.7978 0.2903
74.4600 24.8045 0.2884
74.4800 24.8112 0.2956
74.5000 24.8178 0.2896
74.5200 24.8245 0.2941
74.5400 24.8311 0.2887
74.5600 24.8377 0.2948
74.5800 24.8443 0.2958
74.6000 24.8510 0.2920
74.6200 24.8578 0.2971
74.6400 24.8645 0.2906
74.6600 24.8711 0.2870
74.6800 24.8778 0.2980
74.7000 24.8845 0.2882
74.7200 24.8911 0.2923
74.7400 24.8977 0.2955
74.7600 24.9044 0.2872
74.7800 24.9110 0.2906
74.8000 24.9177 0.3000
74.8200 24.9244 0.2858
74.8400 24.9311 0.2931
74.8600 24.9378 0.2984
74.8800 24.9445 0.2812
74.9000 24.9511 0.2942
74.9200 24.9577 0.3020
74.9400 24.9644 0.2831
74.9600 24.9710 0.2908
74.9800 24.9777 0.3011
75.0000 24.9845 0.2815
75.0200 24.9911 0.2935
75.0400 24.9978 0.2957
75.0600 25.0045 0.2815
75.0800 25.0111 0.2933
75.1000 25.0177 0.2992
75.1200 25.0243 0.2835
75.1400 25.0310 0.2951
75.1600 25.0378 0.2878
75.1800 25.0445 0.2815
75.2000 25.0511 0.2950
75.2200 25.0578 0.2907
75.2400 25.0645 0.2810
75.2600 25.0711 0.2939
75.2800 25.0777 0.2878
75.3000 25.0844 0.2846
75.3200 25.0910 0.2901
75.3400 25.0977 0.2850
75.3600 25.1044 0.2887
75.3800 25.1111 0.2914
75.4000 25.1178 0.2844
75.4200 25.1245 0.2847
75.4400 25.1311 0.2914
75.4600 25.1377 0.2848
75.4800 25.1443 0.2883
75.5000 25.1510 0.2876
75.5200 25.1577 0.2826
75.5400 25.1644 0.2829
75.5600 25.1711 0.2884
75.5800 25.1778 0.2841
75.6000 25.1845 0.2832
75.6200 25.1911 0.2815
75.6400 25.1977 0.2825
75.6600 25.2044 0.2837
75.6800 25.2111 0.2866
75.7000 25.2178 0.2795
75.7200 25.2245 0.2816
75.7400 25.2312 0.2843
75.7600 25.2378 0.2830
75.7800 25.2445 0.2754
75.8000 25.2511 0.2849
75.8200 25.2577 0.2804
75.8400 25.2644 0.2755
75.8600 25.2711 0.2837
75.8800 25.2778 0.2755
75.9000 25.2845 0.2764
75.9200 25.2911 0.2879
75.9400 25.2978 0.2761
75.9600 25.3045 0.2744
75.9800 25.3111 0.2846
76.0000 25.3177 0.2764
76.0200 25.3243 0.2760
76.0400 25.3310 0.2827
76.0600 25.3377 0.2787
76.0800 25.3444 0.2715
76.1000 25.3511 0.2838
76.1200 25.3578 0.2732
76.1400 25.3645 0.2736
76.1600 25.3711 0.2774
76.1800 25.3777 0.2738
76.2000 25.3843 0.2796
76.2200 25.3910 0.2741
76.2400 25.3977 0.2756
76.2600 25.4044 0.2760
76.2800 25.4111 0.2724
76.3000 25.4177 0.2794
76.3200 25.4244 0.2694
76.3400 25.4311 0.2692
76.3600 25.4377 0.2801
76.3800 25.4443 0.2713
76.4000 25.4510 0.2705
76.4200 25.4577 0.2765
76.4400 25.4644 0.2673
76.4600 25.4711 0.2668
76.4800 25.4778 0.2819
76.5000 25.4845 0.2659
76.5200 25.4912 0.2704
76.5400 25.4978 0.2796
76.5600 25.5044 0.2665
76.5800 25.5110 0.2724
76.6000 25.5178 0.2787
76.6200 25.5245 0.2625
76.6400 25.5312 0.2729
76.6600 25.5378 0.2763
76.6800 25.5445 0.2656
76.7000 25.5511 0.2702
76.7200 25.5577 0.2771
76.7400 25.5643 0.2611
76.7600 25.5710 0.2739
76.7800 25.5777 0.2767
76.8000 25.5844 0.2609
76.8200 25.5911 0.2704
76.8400 25.5977 0.2754
76.8600 25.6044 0.2642
76.8800 25.6111 0.2668
76.9000 25.6177 0.2717
76.9200 25.6243 0.2663
76.9400 25.6310 0.2719
76.9600 25.6377 0.2763
76.9800 25.6444 0.2614
77.0000 25.6511 0.2648
77.0200 25.6578 0.2770
77.0400 25.6645 0.2586
77.0600 25.6712 0.2647
77.0800 25.6778 0.2731
77.1000 25.6844 0.2629
77.1200 25.6910 0.2595
77.1400 25.6977 0.2753
77.1600 25.7044 0.2582
77.1800 25.7111 0.2633
77.2000 25.7178 0.2729
77.2200 25.7245 0.2570
77.2400 25.7312 0.2636
77.2600 25.7378 0.2733
77.2800 25.7444 0.2546
77.3000 25.7510 0.2655
77.3200 25.7577 0.2702
77.3400 25.7644 0.2543
77.3600 25.7711 0.2630
77.3800 25.7778 0.2670
77.4000 25.7845 0.2579
77.4200 25.7912 0.2607
77.4400 25.7978 0.2626
77.4600 25.8044 0.2566
77.4800 25.8111 0.2664
77.5000 25.8177 0.2574
77.5200 25.8244 0.2538
77.5400 25.8311 0.2640
77.5600 25.8378 0.2594
77.5800 25.8445 0.2548
77.6000 25.8511 0.2616
77.6200 25.8578 0.2515
77.6400 25.8643 0.2606
77.6600 25.8710 0.2615
77.6800 25.8777 0.2552
77.7000 25.8844 0.2568
77.7200 25.8911 0.2641
77.7400 25.8978 0.2502
77.7600 25.9044 0.2556
77.7800 25.9111 0.2606
77.8000 25.9177 0.2515
77.8200 25.9244 0.2547
77.8400 25.9310 0.2616
77.8600 25.9377 0.2491
77.8800 25.9444 0.2574
77.9000 25.9511 0.2583
77.9200 25.9578 0.2454
77.9400 25.9645 0.2604
77.9600 25.9711 0.2573
77.9800 25.9778 0.2420
78.0000 25.9844 0.2599
78.0200 25.9910 0.2592
78.0400 25.9977 0.2429
78.0600 26.0044 0.2571
78.0800 26.0111 0.2539
78.1000 26.0178 0.2439
78.1200 26.0245 0.2601
78.1400 26.0312 0.2540
78.1600 26.0378 0.2395
78.1800 26.0444 0.2615
78.2000 26.0510 0.2500
78.2200 26.0577 0.2429
78.2400 26.0645 0.2580
78.2600 26.0711 0.2480
78.2800 26.0778 0.2379
78.3000 26.0845 0.2611
78.3200 26.0911 0.2462
78.3400 26.0977 0.2370
78.3600 26.1043 0.2616
78.3800 26.1110 0.2418
78.4000 26.1177 0.2404
78.4200 26.1244 0.2607
78.4400 26.1311 0.2362
78.4600 26.1377 0.2438
78.4800 26.1444 0.2613
78.5000 26.1511 0.2340
78.5200 26.1578 0.2411
78.5400 26.1644 0.2562
78.5600 26.1710 0.2355
78.5800 26.1777 0.2425
78.6000 26.1844 0.2593
78.6200 26.1911 0.2271
78.6400 26.1978 0.2448
78.6600 26.2045 0.2541
78.6800 26.2112 0.2290
78.7000 26.2178 0.2471
78.7200 26.2244 0.2517
78.7400 26.2310 0.2302
78.7600 26.2377 0.2478
78.7800 26.2445 0.2460
78.8000 26.2512 0.2331
78.8200 26.2578 0.2469
78.8400 26.2645 0.2450
78.8600 26.2711 0.2306
78.8800 26.2778 0.2522
78.9000 26.2844 0.2391
78.9200 26.2910 0.2304
78.9400 26.2977 0.2520
78.9600 26.3044 0.2399
78.9800 26.3111 0.2318
79.0000 26.3178 0.2463
79.0200 26.3245 0.2429
79.0400 26.3311 0.2340
79.0600 26.3378 0.2465
79.0800 26.3443 0.2386
79.1000 26.3510 0.2345
79.1200 26.3577 0.2470
79.1400 26.3644 0.2366
79.1600 26.3711 0.2308
79.1800 26.3778 0.2488
79.2000 26.3845 0.2323
79.2200 26.3912 0.2350
79.2400 26.3978 0.2430
79.2600 26.4044 0.2398
79.2800 26.4110 0.2372
79.3000 26.4177 0.2411
79.3200 26.4244 0.2350
79.3400 26.4311 0.2342
79.3600 26.4378 0.2343
79.3800 26.4445 0.2362
79.4000 26.4512 0.2376
79.4200 26.4578 0.2343
79.4400 26.4644 0.2336
79.4600 26.4711 0.2415
79.4800 26.4777 0.2339
79.5000 26.4844 0.2364
79.5200 26.4911 0.2377
79.5400 26.4978 0.2319
79.5600 26.5045 0.2408
79.5800 26.5112 0.2321
79.6000 26.5178 0.2301
79.6200 26.5244 0.2424
79.6400 26.5310 0.2345
79.6600 26.5377 0.2292
79.6800 26.5444 0.2448
79.7000 26.5511 0.2334
79.7200 26.5578 0.2289
79.7400 26.5645 0.2404
79.7600 26.5711 0.2303
79.7800 26.5778 0.2303
79.8000 26.5843 0.2431
79.8200 26.5910 0.2278
79.8400 26.5976 0.2340
79.8600 26.6044 0.2398
79.8800 26.6110 0.2324
79.9000 26.6177 0.2350
79.9200 26.6244 0.2396
79.9400 26.6311 0.2328
79.9600 26.6378 0.2341
79.9800 26.6444 0.2384
80.0000 26.6510 0.2323
80.0200 26.6577 0.2349
80.0400 26.6644 0.2386
80.0600 26.6711 0.2304
80.0800 26.6778 0.2336
80.1000 26.6845 0.2418
80.1200 26.6912 0.2305
80.1400 26.6978 0.2307
80.1600 26.7044 0.2389
80.1800 26.7110 0.2354
80.2000 26.7177 0.2304
80.2200 26.7244 0.2409
80.2400 26.7311 0.2291
80.2600 26.7378 0.2330
80.2800 26.7445 0.2393
80.3000 26.7512 0.2252
80.3200 26.7578 0.2331
80.3400 26.7644 0.2396
80.3600 26.7710 0.2255
80.3800 26.7777 0.2364
80.4000 26.7844 0.2338
80.4200 26.7911 0.2289
80.4400 26.7978 0.2367
80.4600 26.8044 0.2344
80.4800 26.8111 0.2285
80.5000 26.8178 0.2332
80.5200 26.8244 0.2287
80.5400 26.8310 0.2256
80.5600 26.8377 0.2375
80.5800 26.8444 0.2280
80.6000 26.8511 0.2276
80.6200 26.8577 0.2317
80.6400 26.8644 0.2303
80.6600 26.8711 0.2264
80.6800 26.8778 0.2307
80.7000 26.8844 0.2264
80.7200 26.8910 0.2265
80.7400 26.8977 0.2264
80.7600 26.9044 0.2314
80.7800 26.9111 0.2204
80.8000 26.9178 0.2301
80.8200 26.9245 0.2266
80.8400 26.9312 0.2241
80.8600 26.9378 0.2258
80.8800 26.9444 0.2278
80.9000 26.9510 0.2206
80.9200 26.9577 0.2248
80.9400 26.9644 0.2216
80.9600 26.9712 0.2180
80.9800 26.9778 0.2304
81.0000 26.9845 0.2235
81.0200 26.9911 0.2194
81.0400 26.9978 0.2224
81.0600 27.0044 0.2226
81.0800 27.0110 0.2233
81.1000 27.0177 0.2209
81.1200 27.0244 0.2209
81.1400 27.0311 0.2249
81.1600 27.0378 0.2145
81.1800 27.0444 0.2210
81.2000 27.0511 0.2202
81.2200 27.0578 0.2165
81.2400 27.0644 0.2170
81.2600 27.0710 0.2230
81.2800 27.0776 0.2143
81.3000 27.0844 0.2216
81.3200 27.0911 0.2196
81.3400 27.0978 0.2103
81.3600 27.1045 0.2239
81.3800 27.1111 0.2196
81.4000 27.1178 0.2092
81.4200 27.1244 0.2207
81.4400 27.1311 0.2163
81.4600 27.1377 0.2131
81.4800 27.1444 0.2221
81.5000 27.1511 0.2135
81.5200 27.1578 0.2116
81.5400 27.1644 0.2257
81.5600 27.1711 0.2067
81.5800 27.1778 0.2148
81.6000 27.1844 0.2272
81.6200 27.1910 0.2068
81.6400 27.1977 0.2115
81.6600 27.2044 0.2287
81.6800 27.2111 0.2058
81.7000 27.2178 0.2110
81.7200 27.2245 0.2266
81.7400 27.2312 0.2009
81.7600 27.2378 0.2162
81.7800 27.2444 0.2216
81.8000 27.2510 0.2030
81.8200 27.2577 0.2166
81.8400 27.2644 0.2258
81.8600 27.2711 0.2012
81.8800 27.2778 0.2148
81.9000 27.2845 0.2229
81.9200 27.2911 0.2020
81.9400 27.2978 0.2153
81.9600 27.3044 0.2197
81.9800 27.3110 0.2048
82.0000 27.3177 0.2205
82.0200 27.3244 0.2143
82.0400 27.3311 0.2019
82.0600 27.3377 0.2194
82.0800 27.3444 0.2187
82.1000 27.3511 0.2062
82.1200 27.3578 0.2141
82.1400 27.3644 0.2203
82.1600 27.3710 0.2069
82.1800 27.3777 0.2157
82.2000 27.3844 0.2173
82.2200 27.3911 0.2104
82.2400 27.3978 0.2116
82.2600 27.4045 0.2185
82.2800 27.4112 0.2037
82.3000 27.4179 0.2135
82.3200 27.4244 0.2176
82.3400 27.4310 0.2053
82.3600 27.4377 0.2122
82.3800 27.4444 0.2190
82.4000 27.4511 0.2072
82.4200 27.4578 0.2079
82.4400 27.4645 0.2165
82.4600 27.4712 0.2084
82.4800 27.4778 0.2063
82.5000 27.4844 0.2172
82.5200 27.4910 0.2050
82.5400 27.4977 0.2151
82.5600 27.5044 0.2218
82.5800 27.5111 0.2033
82.6000 27.5177 0.2134
82.6200 27.5244 0.2154
82.6400 27.5311 0.2036
82.6600 27.5378 0.2125
82.6800 27.5444 0.2176
82.7000 27.5510 0.2010
82.7200 27.5576 0.2159
82.7400 27.5643 0.2150
82.7600 27.5711 0.2050
82.7800 27.5778 0.2142
82.8000 27.5844 0.2132
82.8200 27.5911 0.2035
82.8400 27.5978 0.2146
82.8600 27.6044 0.2078
82.8800 27.6110 0.2063
82.9000 27.6177 0.2101
82.9200 27.6244 0.2105
82.9400 27.6311 0.2047
82.9600 27.6378 0.2075
82.9800 27.6445 0.2096
83.0000 27.6512 0.2080
83.0200 27.6578 0.2058
83.0400 27.6645 0.2081
83.0600 27.6711 0.2075
83.0800 27.6777 0.2059
83.1000 27.6844 0.2095
83.1200 27.6911 0.2078
83.1400 27.6978 0.2018
83.1600 27.7045 0.2078
83.1800 27.7111 0.2103
83.2000 27.7178 0.1985
83.2200 27.7245 0.2084
83.2400 27.7311 0.2014
83.2600 27.7377 0.2029
83.2800 27.7444 0.2097
83.3000 27.7511 0.2028
83.3200 27.7578 0.1958
83.3400 27.7645 0.2076
83.3600 27.7711 0.1970
83.3800 27.7778 0.1949
83.4000 27.7844 0.2101
83.4200 27.7910 0.1987
83.4400 27.7976 0.1984
83.4600 27.8043 0.2100
83.4800 27.8111 0.1975
83.5000 27.8178 0.2020
83.5200 27.8244 0.2041
83.5400 27.8311 0.1918
83.5600 27.8378 0.1984
83.5800 27.8445 0.2001
83.6000 27.8511 0.1926
83.6200 27.8577 0.2021
83.6400 27.8644 0.2025
83.6600 27.8711 0.1897
83.6800 27.8778 0.2043
83.7000 27.8845 0.1958
83.7200 27.8912 0.1918
83.7400 27.8978 0.2021
83.7600 27.9045 0.1926
83.7800 27.9111 0.1916
83.8000 27.9177 0.2045
83.8200 27.9244 0.1872
83.8400 27.9311 0.1949
83.8600 27.9378 0.2003
83.8800 27.9445 0.1879
83.9000 27.9512 0.1975
83.9200 27.9578 0.1970
83.9400 27.9644 0.1831
83.9600 27.9711 0.2019
83.9800 27.9777 0.1977
84.0000 27.9844 0.1842
84.0200 27.9911 0.2029
84.0400 27.9978 0.1903
84.0600 28.0044 0.1873
84.0800 28.0111 0.2088
84.1000 28.0178 0.1846
84.1200 28.0244 0.1865
84.1400 28.0310 0.2075
84.1600 28.0377 0.1790
84.1800 28.0443 0.1952
84.2000 28.0510 0.2038
84.2200 28.0577 0.1802
84.2400 28.0644 0.1930
84.2600 28.0711 0.2022
84.2800 28.0778 0.1798
84.3000 28.0844 0.1934
84.3200 28.0910 0.1940
84.3400 28.0977 0.1781
84.3600 28.1044 0.1949
84.3800 28.1111 0.1965
84.4000 28.1178 0.1788
84.4200 28.1245 0.1921
84.4400 28.1312 0.1960
84.4600 28.1378 0.1830
84.4800 28.1445 0.1897
84.5000 28.1511 0.1937
84.5200 28.1577 0.1891
84.5400 28.1644 0.1829
84.5600 28.1711 0.1928
84.5800 28.1778 0.1869
84.6000 28.1845 0.1822
84.6200 28.1911 0.1955
84.6400 28.1978 0.1912
84.6600 28.2044 0.1768
84.6800 28.2110 0.1947
84.7000 28.2177 0.1887
84.7200 28.2243 0.1776
84.7400 28.2310 0.1973
84.7600 28.2378 0.1893
84.7800 28.2444 0.1728
84.8000 28.2511 0.2016
84.8200 28.2578 0.1831
84.8400 28.2645 0.1731
84.8600 28.2711 0.1995
84.8800 28.2777 0.1841
84.9000 28.2843 0.1756
84.9200 28.2911 0.2029
84.9400 28.2978 0.1780
84.9600 28.3044 0.1752
84.9800 28.3111 0.2035
85.0000 28.3178 0.1749
85.0200 28.3244 0.1752
85.0400 28.3310 0.1997
85.0600 28.3377 0.1748
85.0800 28.3444 0.1793
85.1000 28.3511 0.1971
85.1200 28.3578 0.1694
85.1400 28.3645 0.1868
85.1600 28.3711 0.1938
85.1800 28.3778 0.1709
85.2000 28.3845 0.1867
85.2200 28.3911 0.1900
85.2400 28.3977 0.1728
85.2600 28.4044 0.1911
85.2800 28.4111 0.1835
85.3000 28.4178 0.1734
85.3200 28.4245 0.1891
85.3400 28.4312 0.1838
85.3600 28.4379 0.1721
85.3800 28.4445 0.1905
85.4000 28.4511 0.1756
85.4200 28.4577 0.1751
85.4400 28.4644 0.1931
85.4600 28.4711 0.1799
85.4800 28.4778 0.1758
85.5000 28.4844 0.1860
85.5200 28.4911 0.1755
85.5400 28.4978 0.1777
85.5600 28.5044 0.1911
85.5800 28.5111 0.1771
85.6000 28.5177 0.1806
85.6200 28.5243 0.1869
85.6400 28.5310 0.1775
85.6600 28.5377 0.1780
85.6800 28.5444 0.1844
85.7000 28.5511 0.1808
85.7200 28.5578 0.1789
85.7400 28.5645 0.1794
85.7600 28.5711 0.1809
85.7800 28.5777 0.1790
85.8000 28.5844 0.1833
85.8200 28.5911 0.1767
85.8400 28.5978 0.1820
85.8600 28.6045 0.1781
85.8800 28.6111 0.1793
85.9000 28.6178 0.1756
85.9200 28.6245 0.1758
85.9400 28.6311 0.1802
85.9600 28.6377 0.1755
85.9800 28.6444 0.1755
86.0000 28.6511 0.1845
86.0200 28.6578 0.1709
86.0400 28.6645 0.1707
86.0600 28.6711 0.1839
86.0800 28.6778 0.1718
86.1000 28.6845 0.1745
86.1200 28.6911 0.1790
86.1400 28.6977 0.1732
86.1600 28.7044 0.1732
86.1800 28.7111 0.1814
86.2000 28.7178 0.1680
86.2200 28.7244 0.1740
86.2400 28.7311 0.1797
86.2600 28.7378 0.1686
86.2800 28.7445 0.1751
86.3000 28.7511 0.1780
86.3200 28.7577 0.1658
86.3400 28.7643 0.1804
86.3600 28.7710 0.1740
86.3800 28.7777 0.1673
86.4000 28.7844 0.1751
86.4200 28.7911 0.1765
86.4400 28.7978 0.1695
86.4600 28.8044 0.1731
86.4800 28.8110 0.1731
86.5000 28.8177 0.1670
86.5200 28.8243 0.1743
86.5400 28.8311 0.1713
86.5600 28.8378 0.1658
86.5800 28.8445 0.1734
86.6000 28.8512 0.1735
86.6200 28.8578 0.1605
86.6400 28.8645 0.1719
86.6600 28.8712 0.1736
86.6800 28.8778 0.1638
86.7000 28.8844 0.1732
86.7200 28.8911 0.1720
86.7400 28.8978 0.1618
86.7600 28.9045 0.1747
86.7800 28.9112 0.1674
86.8000 28.9178 0.1646
86.8200 28.9245 0.1678
86.8400 28.9311 0.1667
86.8600 28.9377 0.1624
86.8800 28.9443 0.1761
86.9000 28.9510 0.1660
86.9200 28.9577 0.1617
86.9400 28.9644 0.1696
86.9600 28.9711 0.1681
86.9800 28.9778 0.1620
87.0000 28.9844 0.1686
87.0200 28.9911 0.1634
87.0400 28.9977 0.1662
87.0600 29.0043 0.1657
87.0800 29.0110 0.1638
87.1000 29.0178 0.1633
87.1200 29.0245 0.1646
87.1400 29.0311 0.1651
87.1600 29.0378 0.1590
87.1800 29.0445 0.1677
87.2000 29.0511 0.1684
87.2200 29.0577 0.1586
87.2400 29.0644 0.1635
87.2600 29.0711 0.1694
87.2800 29.0778 0.1536
87.3000 29.0845 0.1663
87.3200 29.0912 0.1676
87.3400 29.0979 0.1546
87.3600 29.1045 0.1632
87.3800 29.1111 0.1651
87.4000 29.1177 0.1509
87.4200 29.1243 0.1693
87.4400 29.1310 0.1617
87.4600 29.1378 0.1557
87.4800 29.1445 0.1669
87.5000 29.1512 0.1573
87.5200 29.1578 0.1553
87.5400 29.1645 0.1661
87.5600 29.1711 0.1587
87.5800 29.1777 0.1540
87.6000 29.1843 0.1649
87.6200 29.1910 0.1568
87.6400 29.1978 0.1588
87.6600 29.2044 0.1621
87.6800 29.2111 0.1511
87.7000 29.2178 0.1590
87.7200 29.2244 0.1620
87.7400 29.2311 0.1496
87.7600 29.2377 0.1635
87.7800 29.2443 0.1562
87.8000 29.2510 0.1511
87.8200 29.2577 0.1603
87.8400 29.2644 0.1599
87.8600 29.2711 0.1530
87.8800 29.2778 0.1611
87.9000 29.2845 0.1549
87.9200 29.2911 0.1490
87.9400 29.2977 0.1632
87.9600 29.3044 0.1585
87.9800 29.3111 0.1486
88.0000 29.3178 0.1623
88.0200 29.3245 0.1520
88.0400 29.3312 0.1485
88.0600 29.3378 0.1614
88.0800 29.3445 0.1571
88.1000 29.3511 0.1474
88.1200 29.3577 0.1575
88.1400 29.3644 0.1591
88.1600 29.3711 0.1496
88.1800 29.3778 0.1605
88.2000 29.3845 0.1539
88.2200 29.3911 0.1497
88.2400 29.3978 0.1548
88.2600 29.4045 0.1554
88.2800 29.4111 0.1483
88.3000 29.4177 0.1564
88.3200 29.4243 0.1557
88.3400 29.4310 0.1501
88.3600 29.4377 0.1531
88.3800 29.4444 0.1544
88.4000 29.4511 0.1497
88.4200 29.4578 0.1561
88.4400 29.4645 0.1496
88.4600 29.4711 0.1476
88.4800 29.4777 0.1569
88.5000 29.4843 0.1581
88.5200 29.4910 0.1469
88.5400 29.4977 0.1517
88.5600 29.5044 0.1568
88.5800 29.5111 0.1401
88.6000 29.5178 0.1526
88.6200 29.5244 0.1557
88.6400 29.5311 0.1422
88.6600 29.5377 0.1508
88.6800 29.5444 0.1534
88.7000 29.5511 0.1444
88.7200 29.5578 0.1541
88.7400 29.5645 0.1477
88.7600 29.5711 0.1457
88.7800 29.5778 0.1530
88.8000 29.5845 0.1457
88.8200 29.5912 0.1441
88.8400 29.5978 0.1564
88.8600 29.6044 0.1445
88.8800 29.6110 0.1458
88.9000 29.6177 0.1517
88.9200 29.6245 0.1437
88.9400 29.6311 0.1469
88.9600 29.6378 0.1506
88.9800 29.6445 0.1397
89.0000 29.6511 0.1510
89.0200 29.6577 0.1492
89.0400 29.6643 0.1404
89.0600 29.6710 0.1537
89.0800 29.6777 0.1488
89.1000 29.6844 0.1369
89.1200 29.6911 0.1494
89.1400 29.6978 0.1449
89.1600 29.7045 0.1412
89.1800 29.7111 0.1471
89.2000 29.7177 0.1390
89.2200 29.7243 0.1498
89.2400 29.7310 0.1495
89.2600 29.7377 0.1360
89.2800 29.7444 0.1471
89.3000 29.7511 0.1498
89.3200 29.7578 0.1372
89.3400 29.7645 0.1519
89.3600 29.7711 0.1392
89.3800 29.7777 0.1394
89.4000 29.7844 0.1510
89.4200 29.7910 0.1412
89.4400 29.7978 0.1352
89.4600 29.8045 0.1478
89.4800 29.8112 0.1379
89.5000 29.8178 0.1385
89.5200 29.8245 0.1499
89.5400 29.8311 0.1345
89.5600 29.8377 0.1384
89.5800 29.8444 0.1549
89.6000 29.8510 0.1343
89.6200 29.8578 0.1357
89.6400 29.8645 0.1505
89.6600 29.8712 0.1308
89.6800 29.8778 0.1383
89.7000 29.8845 0.1489
89.7200 29.8911 0.1321
89.7400 29.8977 0.1389
89.7600 29.9043 0.1454
89.7800 29.9110 0.1309
89.8000 29.9177 0.1397
89.8200 29.9244 0.1432
89.8400 29.9311 0.1324
89.8600 29.9378 0.1369
89.8800 29.9445 0.1423
89.9000 29.9511 0.1299
89.9200 29.9577 0.1417
89.9400 29.9644 0.1348
89.9600 29.9710 0.1304
89.9800 29.9777 0.1413
90.0000 29.9844 0.1365
90.0200 29.9911 0.1324
90.0400 29.9978 0.1407
90.0600 30.0045 0.1354
90.0800 30.0111 0.1296
90.1000 30.0177 0.1357
90.1200 30.0244 0.1365
90.1400 30.0311 0.1311
90.1600 30.0378 0.1333
90.1800 30.0445 0.1288
90.2000 30.0512 0.1312
90.2200 30.0578 0.1374
90.2400 30.0645 0.1297
90.2600 30.0712 0.1306
90.2800 30.0778 0.1294
90.3000 30.0844 0.1367
90.3200 30.0910 0.1299
90.3400 30.0977 0.1295
90.3600 30.1044 0.1324
90.3800 30.1111 0.1273
90.4000 30.1178 0.1279
90.4200 30.1245 0.1377
90.4400 30.1312 0.1305
90.4600 30.1378 0.1245
90.4800 30.1443 0.1310
90.5000 30.1510 0.1344
90.5200 30.1577 0.1280
90.5400 30.1644 0.1332
90.5600 30.1711 0.1314
90.5800 30.1778 0.1281
90.6000 30.1845 0.1268
90.6200 30.1911 0.1288
90.6400 30.1977 0.1276
90.6600 30.2043 0.1267
90.6800 30.2110 0.1298
90.7000 30.2177 0.1261
90.7200 30.2244 0.1256
90.7400 30.2311 0.1307
90.7600 30.2378 0.1287
90.7800 30.2444 0.1230
90.8000 30.2511 0.1340
90.8200 30.2577 0.1279
90.8400 30.2644 0.1234
90.8600 30.2710 0.1297
90.8800 30.2777 0.1319
90.9000 30.2844 0.1200
90.9200 30.2911 0.1298
90.9400 30.2978 0.1268
90.9600 30.3045 0.1246
90.9800 30.3112 0.1287
91.0000 30.3178 0.1251
91.0200 30.3244 0.1214
91.0400 30.3310 0.1349
91.0600 30.3377 0.1239
91.0800 30.3445 0.1217
91.1000 30.3512 0.1325
91.1200 30.3578 0.1209
91.1400 30.3645 0.1189
91.1600 30.3711 0.1306
91.1800 30.3777 0.1206
91.2000 30.3844 0.1192
91.2200 30.3910 0.1336
91.2400 30.3977 0.1191
91.2600 30.4044 0.1160
91.2800 30.4111 0.1286
91.3000 30.4177 0.1246
91.3200 30.4244 0.1179
91.3400 30.4311 0.1263
91.3600 30.4377 0.1197
91.3800 30.4443 0.1181
91.4000 30.4510 0.1295
91.4200 30.4577 0.1252
91.4400 30.4644 0.1088
91.4600 30.4711 0.1263
91.4800 30.4778 0.1223
91.5000 30.4845 0.1040
91.5200 30.4912 0.1239
91.5400 30.4978 0.1256
91.5600 30.5044 0.1112
91.5800 30.5110 0.1241
91.6000 30.5177 0.1225
91.6200 30.5244 0.1053
91.6400 30.5311 0.1272
91.6600 30.5378 0.1249
91.6800 30.5445 0.1055
91.7000 30.5511 0.1248
91.7200 30.5578 0.1194
91.7400 30.5644 0.1050
91.7600 30.5710 0.1285
91.7800 30.5777 0.1176
91.8000 30.5844 0.1031
91.8200 30.5911 0.1252
91.8400 30.5978 0.1201
91.8600 30.6045 0.0993
91.8800 30.6112 0.1266
91.9000 30.6178 0.1153
91.9200 30.6244 0.1029
91.9400 30.6311 0.1281
91.9600 30.6377 0.1164
91.9800 30.6444 0.1024
92.0000 30.6511 0.1270
92.0200 30.6578 0.1114
92.0400 30.6645 0.1048
92.0600 30.6712 0.1296
92.0800 30.6778 0.1082
92.1000 30.6843 0.1040
92.1200 30.6910 0.1318
92.1400 30.6977 0.1062
92.1600 30.7044 0.1017
92.1800 30.7111 0.1312
92.2000 30.7178 0.1035
92.2200 30.7245 0.1007
92.2400 30.7311 0.1278
92.2600 30.7377 0.1089
92.2800 30.7444 0.1023
92.3000 30.7510 0.1284
92.3200 30.7577 0.1043
92.3400 30.7644 0.1018
92.3600 30.7711 0.1259
92.3800 30.7778 0.1083
92.4000 30.7845 0.0967
92.4200 30.7912 0.1240
92.4400 30.7978 0.1052
92.4600 30.8044 0.1017
92.4800 30.8110 0.1236
92.5000 30.8177 0.1054
92.5200 30.8244 0.0991
92.5400 30.8311 0.1203
92.5600 30.8378 0.1083
92.5800 30.8445 0.1014
92.6000 30.8512 0.1123
92.6200 30.8578 0.1060
92.6400 30.8644 0.1021
92.6600 30.8710 0.1187
92.6800 30.8777 0.1020
92.7000 30.8844 0.1017
92.7200 30.8911 0.1162
92.7400 30.8978 0.0989
92.7600 30.9045 0.1061
92.7800 30.9111 0.1123
92.8000 30.9178 0.1033
92.8200 30.9244 0.0992
92.8400 30.9310 0.1179
92.8600 30.9377 0.1032
92.8800 30.9444 0.0991
92.9000 30.9511 0.1109
92.9200 30.9577 0.1083
92.9400 30.9644 0.1004
92.9600 30.9711 0.1136
92.9800 30.9778 0.1065
93.0000 30.9844 0.0999
93.0200 30.9910 0.1097
93.0400 30.9977 0.1100
93.0600 31.0044 0.1003
93.0800 31.0111 0.1119
93.1000 31.0178 0.1062
93.1200 31.0245 0.0975
93.1400 31.0312 0.1103
93.1600 31.0378 0.1082
93.1800 31.0444 0.1009
93.2000 31.0510 0.1091
93.2200 31.0577 0.1088
93.2400 31.0644 0.0943
93.2600 31.0711 0.1105
93.2800 31.0778 0.1057
93.3000 31.0845 0.0959
93.3200 31.0911 0.1120
93.3400 31.0978 0.1024
93.3600 31.1044 0.0951
93.3800 31.1110 0.1175
93.4000 31.1177 0.1017
93.4200 31.1244 0.0972
93.4400 31.1311 0.1138
93.4600 31.1378 0.1039
93.4800 31.1445 0.0975
93.5000 31.1511 0.1144
93.5200 31.1578 0.1003
93.5400 31.1644 0.0948
93.5600 31.1710 0.1107
93.5800 31.1776 0.1043
93.6000 31.1844 0.0955
93.6200 31.1911 0.1080
93.6400 31.1978 0.1009
93.6600 31.2045 0.0969
93.6800 31.2112 0.1078
93.7000 31.2178 0.0977
93.7200 31.2244 0.0964
93.7400 31.2310 0.1079
93.7600 31.2377 0.1025
93.7800 31.2444 0.0917
93.8000 31.2511 0.1077
93.8200 31.2578 0.1012
93.8400 31.2645 0.0943
93.8600 31.2711 0.1051
93.8800 31.2778 0.1004
93.9000 31.2844 0.0886
93.9200 31.2911 0.1102
93.9400 31.2977 0.0964
93.9600 31.3044 0.0868
93.9800 31.3111 0.1065
94.0000 31.3178 0.0958
94.0200 31.3245 0.0871
94.0400 31.3312 0.1113
94.0600 31.3378 0.0934
94.0800 31.3444 0.0875
94.1000 31.3510 0.1088
94.1200 31.3577 0.0938
94.1400 31.3644 0.0911
94.1600 31.3711 0.1091
94.1800 31.3778 0.0853
94.2000 31.3845 0.0917
94.2200 31.3911 0.1089
94.2400 31.3978 0.0889
94.2600 31.4044 0.0943
94.2800 31.4110 0.1069
94.3000 31.4176 0.0879
94.3200 31.4244 0.0913
94.3400 31.4311 0.1013
94.3600 31.4377 0.0888
94.3800 31.4444 0.0988
94.4000 31.4511 0.0948
94.4200 31.4578 0.0887
94.4400 31.4644 0.0959
94.4600 31.4710 0.0966
94.4800 31.4777 0.0919
94.5000 31.4844 0.0988
94.5200 31.4911 0.0918
94.5400 31.4978 0.0922
94.5600 31.5045 0.0954
94.5800 31.5112 0.0941
94.6000 31.5178 0.0925
94.6200 31.5244 0.0937
94.6400 31.5310 0.0867
94.6600 31.5377 0.0970
94.6800 31.5444 0.0906
94.7000 31.5511 0.0869
94.7200 31.5578 0.0972
94.7400 31.5645 0.0895
94.7600 31.5712 0.0907
94.7800 31.5778 0.0962
94.8000 31.5844 0.0890
94.8200 31.5910 0.0898
94.8400 31.5977 0.0992
94.8600 31.6044 0.0863
94.8800 31.6111 0.0887
94.9000 31.6178 0.0889
94.9200 31.6244 0.0922
94.9400 31.6311 0.0881
94.9600 31.6378 0.0879
94.9800 31.6444 0.0906
95.0000 31.6510 0.0895
95.0200 31.6577 0.0904
95.0400 31.6644 0.0966
95.0600 31.6711 0.0810
95.0800 31.6778 0.0865
95.1000 31.6844 0.0943
95.1200 31.6911 0.0795
95.1400 31.6978 0.0880
95.1600 31.7044 0.0973
95.1800 31.7110 0.0770
95.2000 31.7177 0.0899
95.2200 31.7244 0.0957
95.2400 31.7311 0.0773
95.2600 31.7378 0.0928
95.2800 31.7445 0.0870
95.3000 31.7512 0.0713
95.3200 31.7578 0.0952
95.3400 31.7644 0.0902
95.3600 31.7710 0.0669
95.3800 31.7777 0.0966
95.4000 31.7844 0.0866
95.4200 31.7911 0.0689
95.4400 31.7978 0.0992
95.4600 31.8045 0.0869
95.4800 31.8111 0.0641
95.5000 31.8178 0.0934
95.5200 31.8244 0.0845
95.5400 31.8310 0.0747
95.5600 31.8377 0.0920
95.5800 31.8444 0.0831
95.6000 31.8511 0.0712
95.6200 31.8577 0.0924
95.6400 31.8644 0.0829
95.6600 31.8711 0.0738
95.6800 31.8778 0.0863
95.7000 31.8844 0.0842
95.7200 31.8910 0.0768
95.7400 31.8977 0.0834
95.7600 31.9044 0.0859
95.7800 31.9111 0.0701
95.8000 31.9178 0.0835
95.8200 31.9244 0.0885
95.8400 31.9311 0.0692
95.8600 31.9378 0.0801
95.8800 31.9444 0.0917
95.9000 31.9510 0.0672
95.9200 31.9577 0.0811
95.9400 31.9644 0.0864
95.9600 31.9711 0.0714
95.9800 31.9778 0.0815
96.0000 31.9845 0.0825
96.0200 31.9911 0.0707
96.0400 31.9978 0.0831
96.0600 32.0044 0.0770
96.0800 32.0111 0.0703
96.1000 32.0177 0.0844
96.1200 32.0244 0.0803
96.1400 32.0311 0.0695
96.1600 32.0378 0.0785
96.1800 32.0445 0.0800
96.2000 32.0512 0.0723
96.2200 32.0578 0.0771
96.2400 32.0645 0.0771
96.2600 32.0710 0.0753
96.2800 32.0777 0.0776
96.3000 32.0844 0.0776
96.3200 32.0911 0.0694
96.3400 32.0978 0.0781
96.3600 32.1045 0.0811
96.3800 32.1111 0.0685
96.4000 32.1178 0.0725
96.4200 32.1244 0.0823
96.4400 32.1310 0.0666
96.4600 32.1376 0.0795
96.4800 32.1443 0.0803
96.5000 32.1511 0.0685
96.5200 32.1577 0.0780
96.5400 32.1644 0.0806
96.5600 32.1711 0.0656
96.5800 32.1778 0.0798
96.6000 32.1844 0.0787
96.6200 32.1910 0.0643
96.6400 32.1977 0.0805
96.6600 32.2043 0.0807
96.6800 32.2111 0.0642
96.7000 32.2178 0.0790
96.7200 32.2245 0.0747
96.7400 32.2312 0.0641
96.7600 32.2379 0.0756
96.7800 32.2445 0.0772
96.8000 32.2511 0.0702
96.8200 32.2577 0.0750
96.8400 32.2644 0.0758
96.8600 32.2711 0.0707
96.8800 32.2778 0.0766
96.9000 32.2845 0.0710
96.9200 32.2912 0.0685
96.9400 32.2979 0.0713
96.9600 32.3045 0.0775
96.9800 32.3111 0.0656
97.0000 32.3177 0.0749
97.0200 32.3244 0.0757
97.0400 32.3311 0.0642
97.0600 32.3378 0.0732
97.0800 32.3444 0.0777
97.1000 32.3511 0.0664
97.1200 32.3578 0.0723
97.1400 32.3644 0.0740
97.1600 32.3710 0.0724
97.1800 32.3776 0.0756
97.2000 32.3843 0.0735
97.2200 32.3910 0.0655
97.2400 32.3977 0.0764
97.2600 32.4044 0.0751
97.2800 32.4111 0.0641
97.3000 32.4178 0.0718
97.3200 32.4244 0.0719
97.3400 32.4310 0.0651
97.3600 32.4377 0.0711
97.3800 32.4444 0.0764
97.4000 32.4511 0.0658
97.4200 32.4578 0.0671
97.4400 32.4645 0.0696
97.4600 32.4712 0.0703
97.4800 32.4778 0.0619
97.5000 32.4845 0.0720
97.5200 32.4911 0.0694
97.5400 32.4977 0.0621
97.5600 32.5044 0.0697
97.5800 32.5111 0.0688
97.6000 32.5178 0.0591
97.6200 32.5245 0.0759
97.6400 32.5312 0.0675
97.6600 32.5378 0.0553
97.6800 32.5445 0.0683
97.7000 32.5511 0.0656
97.7200 32.5577 0.0599
97.7400 32.5643 0.0735
97.7600 32.5711 0.0652
97.7800 32.5778 0.0593
97.8000 32.5844 0.0684
97.8200 32.5911 0.0623
97.8400 32.5978 0.0641
97.8600 32.6044 0.0680
97.8800 32.6110 0.0619
97.9000 32.6177 0.0649
97.9200 32.6243 0.0661
97.9400 32.6311 0.0598
97.9600 32.6378 0.0675
97.9800 32.6444 0.0628
98.0000 32.6511 0.0611
98.0200 32.6578 0.0619
98.0400 32.6645 0.0588
98.0600 32.6711 0.0604
98.0800 32.6777 0.0650
98.1000 32.6844 0.0577
98.1200 32.6911 0.0638
98.1400 32.6978 0.0598
98.1600 32.7045 0.0538
98.1800 32.7112 0.0644
98.2000 32.7179 0.0564
98.2200 32.7245 0.0552
98.2400 32.7311 0.0670
98.2600 32.7377 0.0526
98.2800 32.7444 0.0605
98.3000 32.7511 0.0673
98.3200 32.7578 0.0513
98.3400 32.7645 0.0584
98.3600 32.7712 0.0627
98.3800 32.7778 0.0477
98.4000 32.7844 0.0576
98.4200 32.7911 0.0593
98.4400 32.7977 0.0508
98.4600 32.8044 0.0603
98.4800 32.8111 0.0590
98.5000 32.8178 0.0506
98.5200 32.8245 0.0599
98.5400 32.8311 0.0545
98.5600 32.8378 0.0485
98.5800 32.8444 0.0631
98.6000 32.8510 0.0494
98.6200 32.8576 0.0572
98.6400 32.8643 0.0595
98.6600 32.8710 0.0503
98.6800 32.8777 0.0509
98.7000 32.8844 0.0588
98.7200 32.8911 0.0543
98.7400 32.8978 0.0559
98.7600 32.9045 0.0548
98.7800 32.9111 0.0524
98.8000 32.9177 0.0608
98.8200 32.9244 0.0543
98.8400 32.9311 0.0536
98.8600 32.9378 0.0575
98.8800 32.9445 0.0476
98.9000 32.9512 0.0543
98.9200 32.9578 0.0603
98.9400 32.9645 0.0469
98.9600 32.9711 0.0583
98.9800 32.9777 0.0532
99.0000 32.9844 0.0467
99.0200 32.9911 0.0540
99.0400 32.9978 0.0548
99.0600 33.0045 0.0459
99.0800 33.0111 0.0587
99.1000 33.0178 0.0530
99.1200 33.0245 0.0510
99.1400 33.0311 0.0536
99.1600 33.0377 0.0529
99.1800 33.0443 0.0500
99.2000 33.0510 0.0565
99.2200 33.0578 0.0498
99.2400 33.0644 0.0490
99.2600 33.0711 0.0566
99.2800 33.0778 0.0534
99.3000 33.0845 0.0472
99.3200 33.0911 0.0487
99.3400 33.0977 0.0563
99.3600 33.1043 0.0450
99.3800 33.1110 0.0528
99.4000 33.1178 0.0596
99.4200 33.1245 0.0390
99.4400 33.1311 0.0507
99.4600 33.1378 0.0602
99.4800 33.1444 0.0349
99.5000 33.1511 0.0535
99.5200 33.1577 0.0572
99.5400 33.1644 0.0335
99.5600 33.1711 0.0517
99.5800 33.1778 0.0600
99.6000 33.1845 0.0305
99.6200 33.1911 0.0556
99.6400 33.1978 0.0548
99.6600 33.2045 0.0311
99.6800 33.2111 0.0584
99.7000 33.2177 0.0528
99.7200 33.2244 0.0297
99.7400 33.2311 0.0636
99.7600 33.2378 0.0493
99.7800 33.2445 0.0287
99.8000 33.2512 0.0651
99.8200 33.2579 0.0460
99.8400 33.2645 0.0350
99.8600 33.2711 0.0581
99.8800 33.2777 0.0442
99.9000 33.2843 0.0370
99.9200 33.2910 0.0602
99.9400 33.2978 0.0377
99.9600 33.3044 0.0401
99.9800 33.3111 0.0639
100.0000 33.3178 0.0383
100.0200 33.3245 0.0396
100.0400 33.3311 0.0568
100.0600 33.3377 0.0387
100.0800 33.3443 0.0467
100.1000 33.3510 0.0538
100.1200 33.3577 0.0388
100.1400 33.3644 0.0400
100.1600 33.3711 0.0535
100.1800 33.3778 0.0370
100.2000 33.3845 0.0429
100.2200 33.3911 0.0505
100.2400 33.3977 0.0398
100.2600 33.4044 0.0396
100.2800 33.4111 0.0502
100.3000 33.4178 0.0436
100.3200 33.4244 0.0398
100.3400 33.4311 0.0524
100.3600 33.4378 0.0382
100.3800 33.4445 0.0382
100.4000 33.4511 0.0509
100.4200 33.4577 0.0431
100.4400 33.4644 0.0394
100.4600 33.4711 0.0535
100.4800 33.4778 0.0403
100.5000 33.4845 0.0402
100.5200 33.4911 0.0471
100.5400 33.4978 0.0426
100.5600 33.5045 0.0385
100.5800 33.5111 0.0477
100.6000 33.5177 0.0426
100.6200 33.5244 0.0436
100.6400 33.5311 0.0437
100.6600 33.5378 0.0429
100.6800 33.5445 0.0431
100.7000 33.5511 0.0459
100.7200 33.5578 0.0443
100.7400 33.5645 0.0428
100.7600 33.5711 0.0453
100.7800 33.5777 0.0450
100.8000 33.5843 0.0385
100.8200 33.5910 0.0424
100.8400 33.5977 0.0465
100.8600 33.6044 0.0377
100.8800 33.6111 0.0451
100.9000 33.6178 0.0423
100.9200 33.6244 0.0395
100.9400 33.6311 0.0399
100.9600 33.6377 0.0445
100.9800 33.6443 0.0387
101.0000 33.6510 0.0424
101.0200 33.6578 0.0423
101.0400 33.6645 0.0400
101.0600 33.6711 0.0366
101.0800 33.6778 0.0403
101.1000 33.6845 0.0394
101.1200 33.6912 0.0355
101.1400 33.6978 0.0414
101.1600 33.7044 0.0419
101.1800 33.7111 0.0350
101.2000 33.7178 0.0423
101.2200 33.7245 0.0382
101.2400 33.7311 0.0373
101.2600 33.7378 0.0420
101.2800 33.7445 0.0381
101.3000 33.7511 0.0320
101.3200 33.7577 0.0434
101.3400 33.7643 0.0388
101.3600 33.7710 0.0274
101.3800 33.7777 0.0495
101.4000 33.7844 0.0316
101.4200 33.7911 0.0261
101.4400 33.7978 0.0511
101.4600 33.8045 0.0356
101.4800 33.8111 0.0271
101.5000 33.8177 0.0513
101.5200 33.8243 0.0332
101.5400 33.8310 0.0248
101.5600 33.8378 0.0484
101.5800 33.8445 0.0329
101.6000 33.8511 0.0213
101.6200 33.8578 0.0516
101.6400 33.8645 0.0287
101.6600 33.8711 0.0263
101.6800 33.8778 0.0471
101.7000 33.8844 0.0283
101.7200 33.8911 0.0248
101.7400 33.8978 0.0476
101.7600 33.9044 0.0304
101.7800 33.9111 0.0199
101.8000 33.9178 0.0474
101.8200 33.9245 0.0293
101.8400 33.9312 0.0230
101.8600 33.9377 0.0495
101.8800 33.9443 0.0298
101.9000 33.9510 0.0251
101.9200 33.9578 0.0483
101.9400 33.9645 0.0262
101.9600 33.9712 0.0281
101.9800 33.9778 0.0432
102.0000 33.9845 0.0304
102.0200 33.9911 0.0239
102.0400 33.9977 0.0444
102.0600 34.0043 0.0285
102.0800 34.0110 0.0281
102.1000 34.0178 0.0399
102.1200 34.0245 0.0291
102.1400 34.0311 0.0241
102.1600 34.0378 0.0407
102.1800 34.0444 0.0239
102.2000 34.0511 0.0258
102.2200 34.0577 0.0384
102.2400 34.0643 0.0305
102.2600 34.0710 0.0243
102.2800 34.0777 0.0370
102.3000 34.0844 0.0283
102.3200 34.0911 0.0196
102.3400 34.0978 0.0376
102.3600 34.1045 0.0267
102.3800 34.1111 0.0215
102.4000 34.1177 0.0365
102.4200 34.1244 0.0305
102.4400 34.1311 0.0204
102.4600 34.1378 0.0323
102.4800 34.1445 0.0313
102.5000 34.1512 0.0271
102.5200 34.1578 0.0315
102.5400 34.1645 0.0308
102.5600 34.1711 0.0204
102.5800 34.1777 0.0313
102.6000 34.1844 0.0344
102.6200 34.1910 0.0209
102.6400 34.1978 0.0243
102.6600 34.2045 0.0314
102.6800 34.2112 0.0182
102.7000 34.2178 0.0275
102.7200 34.2245 0.0303
102.7400 34.2311 0.0177
102.7600 34.2378 0.0248
102.7800 34.2444 0.0305
102.8000 34.2510 0.0126
102.8200 34.2577 0.0312
102.8400 34.2644 0.0289
102.8600 34.2711 0.0136
102.8800 34.2778 0.0303
102.9000 34.2845 0.0269
102.9200 34.2911 0.0154
102.9400 34.2977 0.0276
102.9600 34.3043 0.0288
102.9800 34.3109 0.0124
103.0000 34.3177 0.0358
103.0200 34.3244 0.0255
103.0400 34.3311 0.0075
103.0600 34.3378 0.0303
103.0800 34.3445 0.0241
103.1000 34.3511 0.0115
103.1200 34.3577 0.0290
103.1400 34.3644 0.0208
103.1600 34.3710 0.0153
103.1800 34.3778 0.0260
103.2000 34.3845 0.0182
103.2200 34.3911 0.0147
103.2400 34.3978 0.0297
103.2600 34.4045 0.0150
103.2800 34.4112 0.0138
103.3000 34.4178 0.0245
103.3200 34.4244 0.0192
103.3400 34.4311 0.0158
103.3600 34.4378 0.0163
103.3800 34.4445 0.0234
103.4000 34.4512 0.0148
103.4200 34.4578 0.0122
103.4400 34.4645 0.0252
103.4600 34.4711 0.0150
103.4800 34.4777 0.0125
103.5000 34.4843 0.0240
103.5200 34.4910 0.0092
103.5400 34.4977 0.0168
103.5600 34.5044 0.0264
103.5800 34.5111 0.0102
103.6000 34.5178 0.0106
103.6200 34.5245 0.0305
103.6400 34.5311 0.0059
103.6600 34.5377 0.0109
103.6800 34.5443 0.0356
103.7000 34.5510 0.0014
103.7200 34.5577 0.0110
103.7400 34.5644 0.0328
103.7600 34.5711 -0.0066
103.7800 34.5778 0.0177
103.8000 34.5844 0.0261
103.8200 34.5911 -0.0033
103.8400 34.5977 0.0192
103.8600 34.6044 0.0227
103.8800 34.6110 -0.0026
103.9000 34.6177 0.0200
103.9200 34.6244 0.0279
103.9400 34.6311 -0.0081
103.9600 34.6378 0.0188
103.9800 34.6445 0.0221
104.0000 34.6511 -0.0053
104.0200 34.6578 0.0135
104.0400 34.6644 0.0224
104.0600 34.6710 0.0006
104.0800 34.6777 0.0116
104.1000 34.6845 0.0143
104.1200 34.6912 0.0058
104.1400 34.6978 0.0117
104.1600 34.7045 0.0215
104.1800 34.7112 0.0024
104.2000 34.7178 0.0114
104.2200 34.7244 0.0156
104.2400 34.7310 0.0078
104.2600 34.7377 0.0111
104.2800 34.7444 0.0182
104.3000 34.7511 0.0040
104.3200 34.7578 0.0022
104.3400 34.7645 0.0188
104.3600 34.7711 0.0059
104.3800 34.7777 0.0063
104.4000 34.7843 0.0151
104.4200 34.7910 0.0028
104.4400 34.7977 0.0064
104.4600 34.8044 0.0202
104.4800 34.8111 -0.0021
104.5000 34.8178 0.0048
104.5200 34.8245 0.0120
104.5400 34.8311 0.0006
104.5600 34.8377 0.0038
104.5800 34.8444 0.0225
104.6000 34.8510 -0.0026
104.6200 34.8578 -0.0009
104.6400 34.8645 0.0213
104.6600 34.8712 0.0030
104.6800 34.8778 -0.0013
104.7000 34.8845 0.0158
104.7200 34.8912 0.0011
104.7400 34.8978 0.0018
104.7600 34.9044 0.0114
104.7800 34.9110 0.0056
104.8000 34.9177 0.0061
104.8200 34.9244 0.0036
104.8400 34.9311 0.0018
104.8600 34.9378 0.0079
104.8800 34.9445 0.0087
104.9000 34.9512 -0.0011
104.9200 34.9578 0.0024
104.9400 34.9644 0.0094
104.9600 34.9710 0.0053
104.9800 34.9777 -0.0005
105.0000 34.9844 0.0133
105.0200 34.9911 0.0031
105.0400 34.9978 -0.0110
105.0600 35.0045 0.0129
105.0800 35.0112 0.0076
105.1000 35.0177 -0.0181
105.1200 35.0243 0.0180
105.1400 35.0310 0.0098
105.1600 35.0377 -0.0141
105.1800 35.0444 0.0152
105.2000 35.0511 0.0051
105.2200 35.0578 -0.0163
105.2400 35.0644 0.0171
105.2600 35.0711 -0.0006
105.2800 35.0777 -0.0215
105.3000 35.0844 0.0203
105.3200 35.0910 0.0003
105.3400 35.0977 -0.0119
105.3600 35.1044 0.0176
105.3800 35.1111 -0.0139
105.4000 35.1178 -0.0070
105.4200 35.1245 0.0228
105.4400 35.1312 -0.0163
105.4600 35.1378 -0.0066
105.4800 35.1444 0.0156
105.5000 35.1510 -0.0137
105.5200 35.1577 -0.0108
105.5400 35.1645 0.0180
105.5600 35.1712 -0.0130
105.5800 35.1778 -0.0074
105.6000 35.1845 0.0071
105.6200 35.1911 -0.0177
105.6400 35.1977 0.0007
105.6600 35.2043 0.0105
105.6800 35.2110 -0.0248
105.7000 35.2177 -0.0024
105.7200 35.2244 0.0082
105.7400 35.2311 -0.0140
105.7600 35.2377 -0.0079
105.7800 35.2444 0.0005
105.8000 35.2511 -0.0108
105.8200 35.2577 -0.0041
105.8400 35.2644 -0.0004
105.8600 35.2710 -0.0116
105.8800 35.2777 -0.0041
105.9000 35.2844 -0.0029
105.9200 35.2911 -0.0057
105.9400 35.2978 -0.0049
105.9600 35.3045 -0.0033
105.9800 35.3112 -0.0075
106.0000 35.3178 -0.0121
106.0200 35.3244 -0.0023
106.0400 35.3310 0.0011
106.0600 35.3377 -0.0115
106.0800 35.3444 -0.0069
106.1000 35.3512 -0.0031
106.1200 35.3578 -0.0066
106.1400 35.3645 -0.0034
106.1600 35.3712 -0.0018
106.1800 35.3778 -0.0108
106.2000 35.3844 -0.0051
106.2200 35.3910 -0.0001
106.2400 35.3977 -0.0092
106.2600 35.4044 -0.0056
106.2800 35.4111 -0.0033
106.3000 35.4178 -0.0109
106.3200 35.4245 -0.0075
106.3400 35.4312 -0.0029
106.3600 35.4378 -0.0051
106.3800 35.4444 -0.0109
106.4000 35.4510 -0.0029
106.4200 35.4577 -0.0085
106.4400 35.4644 -0.0129
106.4600 35.4711 -0.0002
106.4800 35.4778 -0.0111
106.5000 35.4845 -0.0092
106.5200 35.4912 -0.0066
106.5400 35.4978 -0.0103
106.5600 35.5044 -0.0118
106.5800 35.5110 -0.0009
106.6000 35.5177 -0.0114
106.6200 35.5244 -0.0167
106.6400 35.5311 -0.0023
106.6600 35.5378 -0.0085
106.6800 35.5444 -0.0215
106.7000 35.5511 -0.0026
106.7200 35.5578 -0.0040
106.7400 35.5644 -0.0179
106.7600 35.5710 -0.0076
106.7800 35.5777 -0.0050
106.8000 35.5844 -0.0172
106.8200 35.5911 -0.0035
106.8400 35.5978 -0.0092
106.8600 35.6045 -0.0198
106.8800 35.6112 -0.0015
106.9000 35.6178 -0.0150
106.9200 35.6244 -0.0141
106.9400 35.6311 -0.0017
106.9600 35.6377 -0.0154
106.9800 35.6444 -0.0188
107.0000 35.6511 0.0012
107.0200 35.6578 -0.0212
107.0400 35.6645 -0.0177
107.0600 35.6712 -0.0038
107.0800 35.6778 -0.0204
107.1000 35.6844 -0.0111
107.1200 35.6910 -0.0047
107.1400 35.6977 -0.0244
107.1600 35.7044 -0.0065
107.1800 35.7111 -0.0087
107.2000 35.7178 -0.0279
107.2200 35.7245 0.0007
107.2400 35.7311 -0.0178
107.2600 35.7378 -0.0248
107.2800 35.7444 -0.0029
107.3000 35.7510 -0.0179
107.3200 35.7577 -0.0194
107.3400 35.7644 -0.0085
107.3600 35.7711 -0.0204
107.3800 35.7777 -0.0182
107.4000 35.7844 -0.0132
107.4200 35.7911 -0.0185
107.4400 35.7978 -0.0192
107.4600 35.8044 -0.0101
107.4800 35.8110 -0.0207
107.5000 35.8177 -0.0132
107.5200 35.8244 -0.0158
107.5400 35.8311 -0.0140
107.5600 35.8378 -0.0185
107.5800 35.8445 -0.0171
107.6000 35.8512 -0.0135
107.6200 35.8578 -0.0237
107.6400 35.8644 -0.0195
107.6600 35.8710 -0.0089
107.6800 35.8777 -0.0190
107.7000 35.8845 -0.0221
107.7200 35.8912 -0.0154
107.7400 35.8978 -0.0220
107.7600 35.9045 -0.0240
107.7800 35.9111 -0.0136
107.8000 35.9178 -0.0197
107.8200 35.9244 -0.0237
107.8400 35.9310 -0.0169
107.8600 35.9377 -0.0218
107.8800 35.9444 -0.0200
107.9000 35.9511 -0.0217
107.9200 35.9578 -0.0174
107.9400 35.9644 -0.0222
107.9600 35.9711 -0.0193
107.9800 35.9778 -0.0198
108.0000 35.9844 -0.0260
108.0200 35.9910 -0.0220
108.0400 35.9977 -0.0136
108.0600 36.0044 -0.0264
108.0800 36.0111 -0.0240
108.1000 36.0178 -0.0186
108.1200 36.0245 -0.0205
108.1400 36.0312 -0.0261
108.1600 36.0378 -0.0239
108.1800 36.0444 -0.0204
108.2000 36.0510 -0.0225
108.2200 36.0577 -0.0271
108.2400 36.0644 -0.0230
108.2600 36.0711 -0.0195
108.2800 36.0778 -0.0268
108.3000 36.0844 -0.0262
108.3200 36.0911 -0.0222
108.3400 36.0978 -0.0260
108.3600 36.1044 -0.0238
108.3800 36.1111 -0.0227
108.4000 36.1177 -0.0253
108.4200 36.1244 -0.0245
108.4400 36.1311 -0.0239
108.4600 36.1378 -0.0240
108.4800 36.1445 -0.0288
108.5000 36.1512 -0.0236
108.5200 36.1578 -0.0272
108.5400 36.1644 -0.0305
108.5600 36.1710 -0.0240
108.5800 36.1777 -0.0259
108.6000 36.1844 -0.0245
108.6200 36.1911 -0.0160
108.6400 36.1978 -0.0318
108.6600 36.2045 -0.0274
108.6800 36.2111 -0.0188
108.7000 36.2178 -0.0320
108.7200 36.2244 -0.0272
108.7400 36.2310 -0.0144
108.7600 36.2376 -0.0328
108.7800 36.2443 -0.0335
108.8000 36.2511 -0.0140
108.8200 36.2578 -0.0325
108.8400 36.2644 -0.0310
108.8600 36.2711 -0.0216
108.8800 36.2778 -0.0350
108.9000 36.2844 -0.0290
108.9200 36.2911 -0.0190
108.9400 36.2977 -0.0333
108.9600 36.3044 -0.0280
108.9800 36.3111 -0.0267
109.0000 36.3178 -0.0301
109.0200 36.3245 -0.0300
109.0400 36.3312 -0.0240
109.0600 36.3379 -0.0410
109.0800 36.3445 -0.0290
109.1000 36.3511 -0.0259
109.1200 36.3577 -0.0402
109.1400 36.3644 -0.0248
109.1600 36.3711 -0.0269
109.1800 36.3778 -0.0448
109.2000 36.3845 -0.0258
109.2200 36.3912 -0.0290
109.2400 36.3978 -0.0408
109.2600 36.4044 -0.0302
109.2800 36.4110 -0.0307
109.3000 36.4177 -0.0337
109.3200 36.4244 -0.0269
109.3400 36.4311 -0.0399
109.3600 36.4378 -0.0355
109.3800 36.4444 -0.0209
109.4000 36.4511 -0.0463
109.4200 36.4578 -0.0331
109.4400 36.4644 -0.0260
109.4600 36.4710 -0.0368
109.4800 36.4777 -0.0311
109.5000 36.4844 -0.0252
109.5200 36.4911 -0.0416
109.5400 36.4978 -0.0336
109.5600 36.5044 -0.0310
109.5800 36.5111 -0.0389
109.6000 36.5178 -0.0296
109.6200 36.5244 -0.0305
109.6400 36.5311 -0.0435
109.6600 36.5377 -0.0261
109.6800 36.5444 -0.0308
109.7000 36.5511 -0.0401
109.7200 36.5578 -0.0355
109.7400 36.5645 -0.0308
109.7600 36.5712 -0.0411
109.7800 36.5778 -0.0373
109.8000 36.5844 -0.0307
109.8200 36.5910 -0.0391
109.8400 36.5977 -0.0366
109.8600 36.6044 -0.0354
109.8800 36.6111 -0.0424
109.9000 36.6178 -0.0365
109.9200 36.6245 -0.0342
109.9400 36.6311 -0.0475
109.9600 36.6378 -0.0405
109.9800 36.6444 -0.0356
110.0000 36.6510 -0.0442
110.0200 36.6577 -0.0382
110.0400 36.6644 -0.0303
110.0600 36.6711 -0.0466
110.0800 36.6777 -0.0369
110.1000 36.6844 -0.0351
110.1200 36.6911 -0.0449
110.1400 36.6978 -0.0405
110.1600 36.7044 -0.0352
110.1800 36.7110 -0.0500
110.2000 36.7176 -0.0321
110.2200 36.7243 -0.0386
110.2400 36.7311 -0.0527
110.2600 36.7378 -0.0334
110.2800 36.7444 -0.0461
110.3000 36.7511 -0.0467
110.3200 36.7578 -0.0322
110.3400 36.7644 -0.0530
110.3600 36.7711 -0.0544
110.3800 36.7777 -0.0263
110.4000 36.7844 -0.0501
110.4200 36.7911 -0.0541
110.4400 36.7978 -0.0366
110.4600 36.8045 -0.0472
110.4800 36.8111 -0.0535
110.5000 36.8178 -0.0414
110.5200 36.8245 -0.0495
110.5400 36.8311 -0.0429
110.5600 36.8377 -0.0414
110.5800 36.8444 -0.0569
110.6000 36.8511 -0.0474
110.6200 36.8578 -0.0367
110.6400 36.8645 -0.0533
110.6600 36.8712 -0.0494
110.6800 36.8778 -0.0422
110.7000 36.8845 -0.0558
110.7200 36.8911 -0.0489
110.7400 36.8977 -0.0465
110.7600 36.9044 -0.0518
110.7800 36.9111 -0.0442
110.8000 36.9178 -0.0515
110.8200 36.9245 -0.0572
110.8400 36.9311 -0.0473
110.8600 36.9378 -0.0439
110.8800 36.9445 -0.0531
110.9000 36.9511 -0.0469
110.9200 36.9577 -0.0503
110.9400 36.9643 -0.0547
110.9600 36.9711 -0.0388
110.9800 36.9777 -0.0614
111.0000 36.9844 -0.0495
111.0200 36.9911 -0.0428
111.0400 36.9978 -0.0677
111.0600 37.0044 -0.0474
111.0800 37.0110 -0.0484
111.1000 37.0177 -0.0652
111.1200 37.0244 -0.0396
111.1400 37.0311 -0.0565
111.1600 37.0378 -0.0676
111.1800 37.0445 -0.0369
111.2000 37.0512 -0.0564
111.2200 37.0579 -0.0721
111.2400 37.0645 -0.0343
111.2600 37.0711 -0.0584
111.2800 37.0777 -0.0674
111.3000 37.0844 -0.0373
111.3200 37.0911 -0.0644
111.3400 37.0978 -0.0631
111.3600 37.1045 -0.0421
111.3800 37.1112 -0.0650
111.4000 37.1178 -0.0605
111.4200 37.1245 -0.0389
111.4400 37.1311 -0.0689
111.4600 37.1377 -0.0602
111.4800 37.1444 -0.0450
111.5000 37.1511 -0.0676
111.5200 37.1577 -0.0595
111.5400 37.1644 -0.0439
111.5600 37.1711 -0.0688
111.5800 37.1778 -0.0577
111.6000 37.1844 -0.0510
111.6200 37.1910 -0.0618
111.6400 37.1976 -0.0617
111.6600 37.2043 -0.0510
111.6800 37.2110 -0.0612
111.7000 37.2177 -0.0665
111.7200 37.2244 -0.0496
111.7400 37.2311 -0.0620
111.7600 37.2378 -0.0669
111.7800 37.2444 -0.0505
111.8000 37.2510 -0.0647
111.8200 37.2577 -0.0642
111.8400 37.2644 -0.0471
111.8600 37.2711 -0.0697
111.8800 37.2778 -0.0693
111.9000 37.2845 -0.0454
111.9200 37.2911 -0.0695
111.9400 37.2978 -0.0711
111.9600 37.3045 -0.0443
111.9800 37.3111 -0.0733
112.0000 37.3177 -0.0657
112.0200 37.3244 -0.0461
112.0400 37.3311 -0.0769
112.0600 37.3378 -0.0678
112.0800 37.3445 -0.0437
112.1000 37.3512 -0.0807
112.1200 37.3579 -0.0645
112.1400 37.3645 -0.0500
112.1600 37.3711 -0.0811
112.1800 37.3777 -0.0631
112.2000 37.3843 -0.0506
112.2200 37.3911 -0.0743
112.2400 37.3978 -0.0629
112.2600 37.4045 -0.0560
112.2800 37.4111 -0.0748
112.3000 37.4178 -0.0622
112.3200 37.4244 -0.0598
112.3400 37.4311 -0.0723
112.3600 37.4377 -0.0640
112.3800 37.4443 -0.0561
112.4000 37.4510 -0.0765
112.4200 37.4577 -0.0648
112.4400 37.4644 -0.0595
112.4600 37.4711 -0.0740
112.4800 37.4778 -0.0704
112.5000 37.4845 -0.0612
112.5200 37.4911 -0.0718
112.5400 37.4977 -0.0673
112.5600 37.5044 -0.0625
112.5800 37.5111 -0.0684
112.6000 37.5178 -0.0702
112.6200 37.5245 -0.0635
112.6400 37.5312 -0.0684
112.6600 37.5379 -0.0684
112.6800 37.5445 -0.0674
112.7000 37.5511 -0.0725
112.7200 37.5577 -0.0666
112.7400 37.5644 -0.0661
112.7600 37.5711 -0.0735
112.7800 37.5778 -0.0711
112.8000 37.5845 -0.0674
112.8200 37.5912 -0.0690
112.8400 37.5978 -0.0714
112.8600 37.6045 -0.0713
112.8800 37.6111 -0.0706
112.9000 37.6177 -0.0704
112.9200 37.6244 -0.0686
112.9400 37.6311 -0.0767
112.9600 37.6378 -0.0745
112.9800 37.6444 -0.0733
113.0000 37.6511 -0.0699
113.0200 37.6578 -0.0725
113.0400 37.6645 -0.0755
113.0600 37.6711 -0.0747
113.0800 37.6777 -0.0689
113.1000 37.6843 -0.0752
113.1200 37.6910 -0.0738
113.1400 37.6977 -0.0759
113.1600 37.7044 -0.0743
113.1800 37.7111 -0.0723
113.2000 37.7178 -0.0753
113.2200 37.7245 -0.0797
113.2400 37.7311 -0.0758
113.2600 37.7377 -0.0724
113.2800 37.7443 -0.0736
113.3000 37.7511 -0.0733
113.3200 37.7578 -0.0805
113.3400 37.7645 -0.0778
113.3600 37.7712 -0.0753
113.3800 37.7779 -0.0762
113.4000 37.7845 -0.0792
113.4200 37.7911 -0.0731
113.4400 37.7977 -0.0731
113.4600 37.8044 -0.0775
113.4800 37.8111 -0.0712
113.5000 37.8178 -0.0738
113.5200 37.8245 -0.0867
113.5400 37.8311 -0.0718
113.5600 37.8378 -0.0724
113.5800 37.8445 -0.0879
113.6000 37.8511 -0.0764
113.6200 37.8577 -0.0718
113.6400 37.8643 -0.0860
113.6600 37.8710 -0.0693
113.6800 37.8778 -0.0737
113.7000 37.8844 -0.0890
113.7200 37.8911 -0.0740
113.7400 37.8978 -0.0709
113.7600 37.9045 -0.0872
113.7800 37.9111 -0.0720
113.8000 37.9177 -0.0755
113.8200 37.9243 -0.0905
113.8400 37.9310 -0.0691
113.8600 37.9377 -0.0731
113.8800 37.9444 -0.0858
113.9000 37.9511 -0.0775
113.9200 37.9578 -0.0779
113.9400 37.9645 -0.0831
113.9600 37.9711 -0.0757
113.9800 37.9777 -0.0808
114.0000 37.9844 -0.0783
114.0200 37.9911 -0.0811
114.0400 37.9978 -0.0818
114.0600 38.0045 -0.0833
114.0800 38.0112 -0.0773
114.1000 38.0178 -0.0835
114.1200 38.0245 -0.0830
114.1400 38.0311 -0.0825
114.1600 38.0377 -0.0793
114.1800 38.0444 -0.0862
114.2000 38.0511 -0.0831
114.2200 38.0578 -0.0784
114.2400 38.0645 -0.0906
114.2600 38.0712 -0.0834
114.2800 38.0779 -0.0766
114.3000 38.0845 -0.0883
114.3200 38.0911 -0.0887
114.3400 38.0977 -0.0750
114.3600 38.1043 -0.0866
114.3800 38.1110 -0.0850
114.4000 38.1177 -0.0822
114.4200 38.1244 -0.0897
114.4400 38.1311 -0.0822
114.4600 38.1378 -0.0770
114.4800 38.1445 -0.0956
114.5000 38.1511 -0.0783
114.5200 38.1577 -0.0813
114.5400 38.1643 -0.0977
114.5600 38.1710 -0.0800
114.5800 38.1777 -0.0797
114.6000 38.1844 -0.1004
114.6200 38.1911 -0.0790
114.6400 38.1978 -0.0865
114.6600 38.2044 -0.0984
114.6800 38.2111 -0.0805
114.7000 38.2177 -0.0901
114.7200 38.2244 -0.0963
114.7400 38.2310 -0.0776
114.7600 38.2378 -0.0949
114.7800 38.2445 -0.1002
114.8000 38.2511 -0.0759
114.8200 38.2578 -0.0960
114.8400 38.2645 -0.0967
114.8600 38.2711 -0.0827
114.8800 38.2777 -0.0911
114.9000 38.2843 -0.0970
114.9200 38.2910 -0.0819
114.9400 38.2978 -0.0954
114.9600 38.3045 -0.0925
114.9800 38.3112 -0.0882
115.0000 38.3178 -0.0972
115.0200 38.3245 -0.0969
115.0400 38.3311 -0.0893
115.0600 38.3377 -0.0927
115.0800 38.3444 -0.0924
115.1000 38.3511 -0.0971
115.1200 38.3578 -0.0903
115.1400 38.3644 -0.0947
115.1600 38.3711 -0.0969
115.1800 38.3778 -0.0931
115.2000 38.3845 -0.0987
115.2200 38.3911 -0.0969
115.2400 38.3977 -0.0908
115.2600 38.4043 -0.0963
115.2800 38.4110 -0.0960
115.3000 38.4177 -0.0919
115.3200 38.4244 -0.1052
115.3400 38.4311 -0.0968
115.3600 38.4378 -0.0939
115.3800 38.4444 -0.1026
115.4000 38.4511 -0.0997
115.4200 38.4577 -0.0940
115.4400 38.4643 -0.1039
115.4600 38.4710 -0.0941
115.4800 38.4778 -0.0961
115.5000 38.4845 -0.1070
115.5200 38.4911 -0.0946
115.5400 38.4978 -0.0974
115.5600 38.5045 -0.1094
115.5800 38.5112 -0.0945
115.6000 38.5178 -0.1001
115.6200 38.5244 -0.1041
115.6400 38.5311 -0.0978
115.6600 38.5378 -0.1027
115.6800 38.5445 -0.1011
115.7000 38.5512 -0.1016
115.7200 38.5578 -0.1003
115.7400 38.5645 -0.1044
115.7600 38.5711 -0.1060
115.7800 38.5777 -0.1009
115.8000 38.5843 -0.0983
115.8200 38.5910 -0.1073
115.8400 38.5977 -0.1008
115.8600 38.6044 -0.1010
115.8800 38.6111 -0.1116
115.9000 38.6178 -0.0969
115.9200 38.6245 -0.0993
115.9400 38.6311 -0.1184
115.9600 38.6377 -0.0911
115.9800 38.6443 -0.1055
116.0000 38.6510 -0.1170
116.0200 38.6578 -0.0914
116.0400 38.6645 -0.1081
116.0600 38.6711 -0.1212
116.0800 38.6778 -0.0846
116.1000 38.6845 -0.1102
116.1200 38.6911 -0.1145
116.1400 38.6978 -0.0935
116.1600 38.7044 -0.1185
116.1800 38.7111 -0.1071
116.2000 38.7178 -0.0945
116.2200 38.7245 -0.1203
116.2400 38.7311 -0.1082
116.2600 38.7378 -0.0955
116.2800 38.7445 -0.1250
116.3000 38.7512 -0.1067
116.3200 38.7578 -0.1008
116.3400 38.7644 -0.1184
116.3600 38.7710 -0.1058
116.3800 38.7777 -0.1045
116.4000 38.7845 -0.1215
116.4200 38.7911 -0.1015
116.4400 38.7978 -0.1100
116.4600 38.8045 -0.1185
116.4800 38.8111 -0.1041
116.5000 38.8177 -0.1087
116.5200 38.8243 -0.1196
116.5400 38.8310 -0.1053
116.5600 38.8377 -0.1104
116.5800 38.8444 -0.1172
116.6000 38.8511 -0.1148
116.6200 38.8578 -0.1114
116.6400 38.8645 -0.1146
116.6600 38.8711 -0.1154
116.6800 38.8777 -0.1105
116.7000 38.8843 -0.1126
116.7200 38.8910 -0.1151
116.7400 38.8977 -0.1119
116.7600 38.9044 -0.1147
116.7800 38.9111 -0.1182
116.8000 38.9178 -0.1089
116.8200 38.9245 -0.1124
116.8400 38.9312 -0.1174
116.8600 38.9378 -0.1150
116.8800 38.9443 -0.1099
116.9000 38.9510 -0.1146
116.9200 38.9577 -0.1134
116.9400 38.9645 -0.1129
116.9600 38.9712 -0.1156
116.9800 38.9778 -0.1141
117.0000 38.9845 -0.1151
117.0200 38.9911 -0.1197
117.0400 38.9977 -0.1074
117.0600 39.0044 -0.1122
117.0800 39.0110 -0.1165
117.1000 39.0178 -0.1158
117.1200 39.0245 -0.1139
117.1400 39.0311 -0.1135
117.1600 39.0378 -0.1194
117.1800 39.0445 -0.1142
117.2000 39.0511 -0.1160
117.2200 39.0577 -0.1220
117.2400 39.0644 -0.1154
117.2600 39.0710 -0.1060
117.2800 39.0777 -0.1189
117.3000 39.0844 -0.1164
117.3200 39.0911 -0.1132
117.3400 39.0978 -0.1193
117.3600 39.1045 -0.1152
117.3800 39.1111 -0.1146
117.4000 39.1177 -0.1247
117.4200 39.1243 -0.1115
117.4400 39.1310 -0.1139
117.4600 39.1377 -0.1249
117.4800 39.1444 -0.1141
117.5000 39.1511 -0.1152
117.5200 39.1577 -0.1317
117.5400 39.1644 -0.1109
117.5600 39.1711 -0.1175
117.5800 39.1778 -0.1317
117.6000 39.1844 -0.1142
117.6200 39.1910 -0.1136
117.6400 39.1978 -0.1333
117.6600 39.2045 -0.1201
117.6800 39.2111 -0.1150
117.7000 39.2178 -0.1389
117.7200 39.2245 -0.1181
117.7400 39.2312 -0.1209
117.7600 39.2378 -0.1352
117.7800 39.2444 -0.1161
117.8000 39.2510 -0.1230
117.8200 39.2577 -0.1391
117.8400 39.2644 -0.1126
117.8600 39.2711 -0.1242
117.8800 39.2778 -0.1392
117.9000 39.2845 -0.1220
117.9200 39.2911 -0.1282
117.9400 39.2977 -0.1341
117.9600 39.3043 -0.1178
117.9800 39.3110 -0.1353
118.0000 39.3177 -0.1327
118.0200 39.3244 -0.1194
118.0400 39.3311 -0.1351
118.0600 39.3378 -0.1358
118.0800 39.3445 -0.1184
118.1000 39.3511 -0.1341
118.1200 39.3577 -0.1362
118.1400 39.3644 -0.1231
118.1600 39.3710 -0.1313
118.1800 39.3777 -0.1316
118.2000 39.3844 -0.1286
118.2200 39.3911 -0.1297
118.2400 39.3977 -0.1330
118.2600 39.4044 -0.1312
118.2800 39.4111 -0.1288
118.3000 39.4178 -0.1357
118.3200 39.4244 -0.1328
118.3400 39.4310 -0.1222
118.3600 39.4377 -0.1371
118.3800 39.4444 -0.1282
118.4000 39.4511 -0.1298
118.4200 39.4578 -0.1361
118.4400 39.4645 -0.1275
118.4600 39.4712 -0.1283
118.4800 39.4778 -0.1419
118.5000 39.4844 -0.1257
118.5200 39.4910 -0.1304
118.5400 39.4977 -0.1416
118.5600 39.5044 -0.1243
118.5800 39.5111 -0.1320
118.6000 39.5178 -0.1482
118.6200 39.5245 -0.1203
118.6400 39.5312 -0.1317
118.6600 39.5378 -0.1466
118.6800 39.5444 -0.1246
118.7000 39.5510 -0.1368
118.7200 39.5577 -0.1434
118.7400 39.5644 -0.1234
118.7600 39.5711 -0.1372
118.7800 39.5778 -0.1435
118.8000 39.5845 -0.1248
118.8200 39.5911 -0.1402
118.8400 39.5978 -0.1369
118.8600 39.6044 -0.1257
118.8800 39.6110 -0.1424
118.9000 39.6177 -0.1379
118.9200 39.6244 -0.1270
118.9400 39.6311 -0.1473
118.9600 39.6378 -0.1361
118.9800 39.6445 -0.1320
119.0000 39.6511 -0.1448
119.0200 39.6578 -0.1391
119.0400 39.6644 -0.1323
119.0600 39.6710 -0.1463
119.0800 39.6777 -0.1360
119.1000 39.6845 -0.1331
119.1200 39.6912 -0.1515
119.1400 39.6978 -0.1384
119.1600 39.7045 -0.1345
119.1800 39.7112 -0.1513
119.2000 39.7178 -0.1418
119.2200 39.7244 -0.1320
119.2400 39.7310 -0.1532
119.2600 39.7377 -0.1393
119.2800 39.7444 -0.1403
119.3000 39.7511 -0.1463
119.3200 39.7578 -0.1378
119.3400 39.7645 -0.1390
119.3600 39.7712 -0.1554
119.3800 39.7778 -0.1385
119.4000 39.7844 -0.1415
119.4200 39.7910 -0.1504
119.4400 39.7977 -0.1387
119.4600 39.8044 -0.1446
119.4800 39.8111 -0.1524
119.5000 39.8178 -0.1374
119.5200 39.8245 -0.1455
119.5400 39.8312 -0.1534
119.5600 39.8378 -0.1453
119.5800 39.8444 -0.1452
119.6000 39.8510 -0.1491
119.6200 39.8577 -0.1446
119.6400 39.8644 -0.1488
119.6600 39.8711 -0.1502
119.6800 39.8778 -0.1466
119.7000 39.8844 -0.1506
119.7200 39.8911 -0.1485
119.7400 39.8978 -0.1507
119.7600 39.9044 -0.1485
119.7800 39.9110 -0.1473
119.8000 39.9177 -0.1471
119.8200 39.9244 -0.1526
119.8400 39.9311 -0.1541
119.8600 39.9378 -0.1560
119.8800 39.9445 -0.1507
119.9000 39.9512 -0.1520
119.9200 39.9578 -0.1569
119.9400 39.9644 -0.1538
119.9600 39.9710 -0.1487
119.9800 39.9777 -0.1600
120.0000 39.9844 -0.1522
120.0200 39.9911 -0.1546
120.0400 39.9978 -0.1615
120.0470 40.0001 -0.1699
