Raw Data
Time Displacement Force
(s) (mm) (N)
0.0000 0.0000 0.6749
0.0200 0.0001 0.6767
0.0400 0.0011 0.6936
0.0600 0.0050 0.7345
0.0800 0.0106 0.6919
0.1000 0.0164 0.6926
0.1200 0.0225 0.7471
0.1400 0.0294 0.7035
0.1600 0.0368 0.6964
0.1800 0.0442 0.7333
0.2000 0.0513 0.6936
0.2200 0.0581 0.7044
0.2400 0.0647 0.7409
0.2600 0.0713 0.6979
0.2800 0.0780 0.7106
0.3000 0.0847 0.7391
0.3200 0.0915 0.6952
0.3400 0.0982 0.7190
0.3600 0.1048 0.7369
0.3800 0.1115 0.6899
0.4000 0.1182 0.7291
0.4200 0.1248 0.7295
0.4400 0.1315 0.6957
0.4600 0.1381 0.7292
0.4800 0.1448 0.7296
0.5000 0.1515 0.6967
0.5200 0.1582 0.7290
0.5400 0.1649 0.7308
0.5600 0.1716 0.7024
0.5800 0.1782 0.7280
0.6000 0.1848 0.7320
0.6200 0.1914 0.7062
0.6400 0.1981 0.7277
0.6600 0.2048 0.7337
0.6800 0.2115 0.7088
0.7000 0.2182 0.7236
0.7200 0.2249 0.7306
0.7400 0.2316 0.7123
0.7600 0.2382 0.7227
0.7800 0.2448 0.7304
0.8000 0.2514 0.7159
0.8200 0.2581 0.7251
0.8400 0.2648 0.7287
0.8600 0.2715 0.7131
0.8800 0.2782 0.7199
0.9000 0.2849 0.7312
0.9200 0.2915 0.7098
0.9400 0.2982 0.7215
0.9600 0.3048 0.7260
0.9800 0.3114 0.7119
1.0000 0.3181 0.7232
1.0200 0.3248 0.7300
1.0400 0.3315 0.7024
1.0600 0.3381 0.7259
1.0800 0.3448 0.7262
1.1000 0.3515 0.7007
1.1200 0.3582 0.7281
1.1400 0.3648 0.7215
1.1600 0.3714 0.7002
1.1800 0.3781 0.7298
1.2000 0.3848 0.7148
1.2200 0.3915 0.6984
1.2400 0.3982 0.7285
1.2600 0.4049 0.7126
1.2800 0.4116 0.6993
1.3000 0.4182 0.7281
1.3200 0.4248 0.7085
1.3400 0.4314 0.6985
1.3600 0.4381 0.7257
1.3800 0.4448 0.7013
1.4000 0.4515 0.7058
1.4200 0.4582 0.7182
1.4400 0.4649 0.6990
1.4600 0.4716 0.7032
1.4800 0.4782 0.7152
1.5000 0.4849 0.6968
1.5200 0.4915 0.7083
1.5400 0.4981 0.7107
1.5600 0.5048 0.6992
1.5800 0.5115 0.7050
1.6000 0.5182 0.7069
1.6200 0.5249 0.6969
1.6400 0.5316 0.7079
1.6600 0.5382 0.6992
1.6800 0.5448 0.6904
1.7000 0.5514 0.7093
1.7200 0.5580 0.6961
1.7400 0.5647 0.6958
1.7600 0.5715 0.7084
1.7800 0.5782 0.6889
1.8000 0.5848 0.6928
1.8200 0.5915 0.7036
1.8400 0.5982 0.6857
1.8600 0.6048 0.6945
1.8800 0.6114 0.7035
1.9000 0.6181 0.6835
1.9200 0.6248 0.6912
1.9400 0.6315 0.7022
1.9600 0.6382 0.6752
1.9800 0.6449 0.6933
2.0000 0.6516 0.6923
2.0200 0.6583 0.6760
2.0400 0.6649 0.6897
2.0600 0.6715 0.6915
2.0800 0.6781 0.6760
2.1000 0.6848 0.6913
2.1200 0.6915 0.6862
2.1400 0.6982 0.6746
2.1600 0.7049 0.6840
2.1800 0.7115 0.6810
2.2000 0.7182 0.6756
2.2200 0.7248 0.6812
2.2400 0.7314 0.6759
2.2600 0.7380 0.6731
2.2800 0.7448 0.6779
2.3000 0.7515 0.6694
2.3200 0.7582 0.6719
2.3400 0.7649 0.6709
2.3600 0.7715 0.6672
2.3800 0.7782 0.6686
2.4000 0.7848 0.6762
2.4200 0.7915 0.6649
2.4400 0.7981 0.6634
2.4600 0.8048 0.6681
2.4800 0.8115 0.6584
2.5000 0.8182 0.6584
2.5200 0.8248 0.6713
2.5400 0.8315 0.6545
2.5600 0.8382 0.6637
2.5800 0.8449 0.6608
2.6000 0.8515 0.6551
2.6200 0.8581 0.6637
2.6400 0.8648 0.6589
2.6600 0.8715 0.6512
2.6800 0.8782 0.6610
2.7000 0.8849 0.6517
2.7200 0.8916 0.6553
2.7400 0.8982 0.6637
2.7600 0.9048 0.6442
2.7800 0.9114 0.6507
2.8000 0.9181 0.6661
2.8200 0.9248 0.6433
2.8400 0.9315 0.6477
2.8600 0.9382 0.6601
2.8800 0.9449 0.6381
2.9000 0.9516 0.6521
2.9200 0.9583 0.6581
2.9400 0.9649 0.6334
2.9600 0.9715 0.6508
2.9800 0.9781 0.6588
3.0000 0.9848 0.6313
3.0200 0.9915 0.6474
3.0400 0.9982 0.6540
3.0600 1.0048 0.6355
3.0800 1.0115 0.6478
3.1000 1.0182 0.6519
3.1200 1.0248 0.6296
3.1400 1.0314 0.6508
3.1600 1.0381 0.6490
3.1800 1.0447 0.6311
3.2000 1.0515 0.6516
3.2200 1.0581 0.6475
3.2400 1.0648 0.6253
3.2600 1.0715 0.6455
3.2800 1.0782 0.6470
3.3000 1.0848 0.6222
3.3200 1.0915 0.6505
3.3400 1.0981 0.6448
3.3600 1.1048 0.6178
3.3800 1.1116 0.6472
3.4000 1.1183 0.6466
3.4200 1.1249 0.6188
3.4400 1.1316 0.6409
3.4600 1.1383 0.6464
3.4800 1.1449 0.6184
3.5000 1.1515 0.6377
3.5200 1.1581 0.6527
3.5400 1.1648 0.6116
3.5600 1.1715 0.6350
3.5800 1.1782 0.6430
3.6000 1.1849 0.6125
3.6200 1.1916 0.6359
3.6400 1.1982 0.6452
3.6600 1.2049 0.6019
3.6800 1.2115 0.6373
3.7000 1.2181 0.6450
3.7200 1.2248 0.6029
3.7400 1.2315 0.6373
3.7600 1.2382 0.6421
3.7800 1.2449 0.5990
3.8000 1.2516 0.6368
3.8200 1.2582 0.6424
3.8400 1.2649 0.5995
3.8600 1.2715 0.6328
3.8800 1.2781 0.6372
3.9000 1.2847 0.6067
3.9200 1.2915 0.6285
3.9400 1.2982 0.6335
3.9600 1.3048 0.5997
3.9800 1.3115 0.6329
4.0000 1.3182 0.6295
4.0200 1.3248 0.6057
4.0400 1.3314 0.6290
4.0600 1.3381 0.6273
4.0800 1.3448 0.6038
4.1000 1.3515 0.6259
4.1200 1.3582 0.6239
4.1400 1.3649 0.6072
4.1600 1.3716 0.6203
4.1800 1.3783 0.6200
4.2000 1.3849 0.6077
4.2200 1.3915 0.6217
4.2400 1.3981 0.6174
4.2600 1.4048 0.6087
4.2800 1.4115 0.6173
4.3000 1.4182 0.6164
4.3200 1.4249 0.6095
4.3400 1.4316 0.6107
4.3600 1.4382 0.6088
4.3800 1.4448 0.6071
4.4000 1.4514 0.6144
4.4200 1.4581 0.6090
4.4400 1.4648 0.6048
4.4600 1.4715 0.6098
4.4800 1.4782 0.6089
4.5000 1.4848 0.5990
4.5200 1.4915 0.6089
4.5400 1.4982 0.6115
4.5600 1.5048 0.5977
4.5800 1.5115 0.6023
4.6000 1.5181 0.6102
4.6200 1.5248 0.6001
4.6400 1.5315 0.6017
4.6600 1.5382 0.6049
4.6800 1.5449 0.5953
4.7000 1.5516 0.6045
4.7200 1.5583 0.6012
4.7400 1.5649 0.5886
4.7600 1.5715 0.6044
4.7800 1.5781 0.5996
4.8000 1.5848 0.5919
4.8200 1.5915 0.6009
4.8400 1.5982 0.5968
4.8600 1.6049 0.5902
4.8800 1.6116 0.5979
4.9000 1.6182 0.5967
4.9200 1.6249 0.5874
4.9400 1.6315 0.5953
4.9600 1.6381 0.5914
4.9800 1.6448 0.5933
5.0000 1.6515 0.5941
5.0200 1.6582 0.5845
5.0400 1.6649 0.5883
5.0600 1.6716 0.5932
5.0800 1.6782 0.5762
5.1000 1.6849 0.5885
5.1200 1.6915 0.5927
5.1400 1.6981 0.5750
5.1600 1.7048 0.5864
5.1800 1.7115 0.5901
5.2000 1.7182 0.5726
5.2200 1.7249 0.5894
5.2400 1.7315 0.5841
5.2600 1.7382 0.5730
5.2800 1.7449 0.5862
5.3000 1.7515 0.5792
5.3200 1.7581 0.5736
5.3400 1.7647 0.5864
5.3600 1.7714 0.5837
5.3800 1.7782 0.5686
5.4000 1.7849 0.5850
5.4200 1.7915 0.5751
5.4400 1.7982 0.5713
5.4600 1.8048 0.5809
5.4800 1.8115 0.5715
5.5000 1.8181 0.5739
5.5200 1.8248 0.5795
5.5400 1.8315 0.5672
5.5600 1.8382 0.5753
5.5800 1.8449 0.5748
5.6000 1.8515 0.5732
5.6200 1.8582 0.5709
5.6400 1.8649 0.5737
5.6600 1.8715 0.5711
5.6800 1.8781 0.5677
5.7000 1.8848 0.5709
5.7200 1.8915 0.5767
5.7400 1.8982 0.5610
5.7600 1.9049 0.5692
5.7800 1.9116 0.5744
5.8000 1.9183 0.5641
5.8200 1.9249 0.5654
5.8400 1.9315 0.5709
5.8600 1.9381 0.5602
5.8800 1.9448 0.5674
5.9000 1.9515 0.5762
5.9200 1.9582 0.5526
5.9400 1.9649 0.5674
5.9600 1.9715 0.5707
5.9800 1.9782 0.5528
6.0000 1.9849 0.5701
6.0200 1.9915 0.5685
6.0400 1.9981 0.5458
6.0600 2.0048 0.5739
6.0800 2.0114 0.5621
6.1000 2.0181 0.5493
6.1200 2.0248 0.5736
6.1400 2.0315 0.5581
6.1600 2.0382 0.5450
6.1800 2.0449 0.5723
6.2000 2.0515 0.5490
6.2200 2.0581 0.5470
6.2400 2.0648 0.5728
6.2600 2.0715 0.5466
6.2800 2.0782 0.5485
6.3000 2.0849 0.5671
6.3200 2.0916 0.5408
6.3400 2.0983 0.5513
6.3600 2.1049 0.5662
6.3800 2.1115 0.5395
6.4000 2.1181 0.5522
6.4200 2.1248 0.5597
6.4400 2.1315 0.5353
6.4600 2.1382 0.5504
6.4800 2.1449 0.5518
6.5000 2.1516 0.5339
6.5200 2.1582 0.5542
6.5400 2.1649 0.5431
6.5600 2.1715 0.5384
6.5800 2.1781 0.5513
6.6000 2.1848 0.5424
6.6200 2.1915 0.5360
6.6400 2.1982 0.5481
6.6600 2.2048 0.5391
6.6800 2.2115 0.5384
6.7000 2.2182 0.5467
6.7200 2.2249 0.5373
6.7400 2.2315 0.5315
6.7600 2.2381 0.5466
6.7800 2.2447 0.5401
6.8000 2.2514 0.5291
6.8200 2.2582 0.5448
6.8400 2.2649 0.5357
6.8600 2.2716 0.5277
6.8800 2.2782 0.5376
6.9000 2.2849 0.5335
6.9200 2.2915 0.5261
6.9400 2.2981 0.5356
6.9600 2.3048 0.5301
6.9800 2.3115 0.5278
7.0000 2.3182 0.5310
7.0200 2.3249 0.5260
7.0400 2.3315 0.5202
7.0600 2.3382 0.5297
7.0800 2.3449 0.5234
7.1000 2.3516 0.5235
7.1200 2.3582 0.5229
7.1400 2.3648 0.5274
7.1600 2.3715 0.5223
7.1800 2.3782 0.5191
7.2000 2.3849 0.5244
7.2200 2.3916 0.5190
7.2400 2.3983 0.5135
7.2600 2.4049 0.5209
7.2800 2.4116 0.5196
7.3000 2.4182 0.5140
7.3200 2.4248 0.5172
7.3400 2.4314 0.5214
7.3600 2.4381 0.5100
7.3800 2.4449 0.5171
7.4000 2.4515 0.5159
7.4200 2.4582 0.5077
7.4400 2.4649 0.5175
7.4600 2.4715 0.5095
7.4800 2.4781 0.5117
7.5000 2.4847 0.5125
7.5200 2.4914 0.5115
7.5400 2.4981 0.5058
7.5600 2.5048 0.5073
7.5800 2.5115 0.5102
7.6000 2.5182 0.5018
7.6200 2.5248 0.5067
7.6400 2.5315 0.5077
7.6600 2.5381 0.4976
7.6800 2.5448 0.5085
7.7000 2.5514 0.5033
7.7200 2.5582 0.5038
7.7400 2.5649 0.5009
7.7600 2.5716 0.5036
7.7800 2.5782 0.5009
7.8000 2.5849 0.4999
7.8200 2.5916 0.5034
7.8400 2.5982 0.4994
7.8600 2.6048 0.5012
7.8800 2.6115 0.5040
7.9000 2.6182 0.5002
7.9200 2.6249 0.4952
7.9400 2.6316 0.5033
7.9600 2.6382 0.4992
7.9800 2.6449 0.4949
8.0000 2.6515 0.5020
8.0200 2.6581 0.4983
8.0400 2.6647 0.4946
8.0600 2.6714 0.5077
8.0800 2.6782 0.4909
8.1000 2.6849 0.4944
8.1200 2.6915 0.5025
8.1400 2.6982 0.4902
8.1600 2.7049 0.4921
8.1800 2.7115 0.5035
8.2000 2.7182 0.4821
8.2200 2.7248 0.4929
8.2400 2.7314 0.5033
8.2600 2.7381 0.4857
8.2800 2.7448 0.4928
8.3000 2.7515 0.4956
8.3200 2.7582 0.4819
8.3400 2.7648 0.4944
8.3600 2.7715 0.4921
8.3800 2.7781 0.4787
8.4000 2.7847 0.4962
8.4200 2.7914 0.4882
8.4400 2.7982 0.4836
8.4600 2.8049 0.4853
8.4800 2.8116 0.4870
8.5000 2.8183 0.4811
8.5200 2.8249 0.4844
8.5400 2.8316 0.4858
8.5600 2.8382 0.4826
8.5800 2.8448 0.4804
8.6000 2.8515 0.4864
8.6200 2.8582 0.4806
8.6400 2.8649 0.4800
8.6600 2.8715 0.4856
8.6800 2.8782 0.4763
8.7000 2.8849 0.4729
8.7200 2.8915 0.4847
8.7400 2.8982 0.4735
8.7600 2.9048 0.4781
8.7800 2.9114 0.4797
8.8000 2.9181 0.4674
8.8200 2.9248 0.4785
8.8400 2.9315 0.4784
8.8600 2.9382 0.4638
8.8800 2.9449 0.4717
8.9000 2.9515 0.4754
8.9200 2.9581 0.4591
8.9400 2.9647 0.4792
8.9600 2.9714 0.4767
8.9800 2.9781 0.4574
9.0000 2.9848 0.4748
9.0200 2.9915 0.4706
9.0400 2.9982 0.4577
9.0600 3.0049 0.4799
9.0800 3.0115 0.4671
9.1000 3.0182 0.4588
9.1200 3.0248 0.4819
9.1400 3.0315 0.4708
9.1600 3.0382 0.4522
9.1800 3.0449 0.4752
9.2000 3.0515 0.4692
9.2200 3.0582 0.4528
9.2400 3.0649 0.4751
9.2600 3.0716 0.4642
9.2800 3.0782 0.4521
9.3000 3.0848 0.4751
9.3200 3.0914 0.4563
9.3400 3.0981 0.4546
9.3600 3.1048 0.4769
9.3800 3.1115 0.4566
9.4000 3.1182 0.4486
9.4200 3.1249 0.4701
9.4400 3.1316 0.4564
9.4600 3.1382 0.4506
9.4800 3.1448 0.4704
9.5000 3.1514 0.4501
9.5200 3.1582 0.4523
9.5400 3.1649 0.4603
9.5600 3.1716 0.4500
9.5800 3.1782 0.4536
9.6000 3.1849 0.4589
9.6200 3.1915 0.4432
9.6400 3.1982 0.4524
9.6600 3.2048 0.4558
9.6800 3.2114 0.4491
9.7000 3.2181 0.4555
9.7200 3.2248 0.4529
9.7400 3.2315 0.4381
9.7600 3.2382 0.4551
9.7800 3.2449 0.4489
9.8000 3.2515 0.4404
9.8200 3.2581 0.4523
9.8400 3.2648 0.4458
9.8600 3.2714 0.4373
9.8800 3.2781 0.4495
9.9000 3.2849 0.4441
9.9200 3.2916 0.4418
9.9400 3.2983 0.4508
9.9600 3.3050 0.4327
9.9800 3.3116 0.4423
10.0000 3.3182 0.4522
10.0200 3.3248 0.4316
10.0400 3.3314 0.4419
10.0600 3.3382 0.4514
10.0800 3.3449 0.4296
10.1000 3.3516 0.4408
10.1200 3.3583 0.4463
10.1400 3.3649 0.4337
10.1600 3.3716 0.4427
10.1800 3.3782 0.4384
10.2000 3.3848 0.4363
10.2200 3.3914 0.4467
10.2400 3.3981 0.4340
10.2600 3.4048 0.4313
10.2800 3.4115 0.4471
10.3000 3.4182 0.4407
10.3200 3.4249 0.4312
10.3400 3.4316 0.4465
10.3600 3.4382 0.4335
10.3800 3.4447 0.4335
10.4000 3.4514 0.4468
10.4200 3.4581 0.4309
10.4400 3.4648 0.4356
10.4600 3.4715 0.4435
10.4800 3.4782 0.4290
10.5000 3.4849 0.4361
10.5200 3.4915 0.4487
10.5400 3.4981 0.4263
10.5600 3.5048 0.4398
10.5800 3.5114 0.4478
10.6000 3.5181 0.4216
10.6200 3.5249 0.4397
10.6400 3.5316 0.4493
10.6600 3.5382 0.4198
10.6800 3.5449 0.4409
10.7000 3.5516 0.4402
10.7200 3.5582 0.4241
10.7400 3.5649 0.4399
10.7600 3.5715 0.4386
10.7800 3.5782 0.4245
10.8000 3.5848 0.4422
10.8200 3.5915 0.4338
10.8400 3.5982 0.4191
10.8600 3.6049 0.4454
10.8800 3.6116 0.4262
10.9000 3.6182 0.4171
10.9200 3.6248 0.4439
10.9400 3.6314 0.4249
10.9600 3.6381 0.4205
10.9800 3.6448 0.4420
11.0000 3.6515 0.4217
11.0200 3.6582 0.4239
11.0400 3.6649 0.4356
11.0600 3.6715 0.4210
11.0800 3.6781 0.4222
11.1000 3.6847 0.4312
11.1200 3.6914 0.4140
11.1400 3.6981 0.4293
11.1600 3.7048 0.4217
11.1800 3.7115 0.4108
11.2000 3.7182 0.4292
11.2200 3.7249 0.4219
11.2400 3.7316 0.4060
11.2600 3.7382 0.4262
11.2800 3.7448 0.4169
11.3000 3.7515 0.4108
11.3200 3.7581 0.4233
11.3400 3.7648 0.4135
11.3600 3.7715 0.4096
11.3800 3.7782 0.4193
11.4000 3.7849 0.4110
11.4200 3.7916 0.4041
11.4400 3.7982 0.4194
11.4600 3.8048 0.4131
11.4800 3.8114 0.4054
11.5000 3.8181 0.4123
11.5200 3.8249 0.4095
11.5400 3.8316 0.4030
11.5600 3.8383 0.4152
11.5800 3.8449 0.4046
11.6000 3.8516 0.4022
11.6200 3.8582 0.4113
11.6400 3.8648 0.4079
11.6600 3.8715 0.3998
11.6800 3.8782 0.4053
11.7000 3.8849 0.4004
11.7200 3.8915 0.4023
11.7400 3.8982 0.4023
11.7600 3.9049 0.4030
11.7800 3.9116 0.3964
11.8000 3.9182 0.4031
11.8200 3.9248 0.4024
11.8400 3.9314 0.3955
11.8600 3.9381 0.4006
11.8800 3.9448 0.3999
11.9000 3.9515 0.3905
11.9200 3.9582 0.3970
11.9400 3.9649 0.4014
11.9600 3.9716 0.3851
11.9800 3.9782 0.3961
12.0000 3.9848 0.3978
12.0200 3.9914 0.3879
12.0400 3.9981 0.3956
12.0600 4.0049 0.3950
12.0800 4.0116 0.3818
12.1000 4.0183 0.3924
12.1200 4.0249 0.3895
12.1400 4.0316 0.3859
12.1600 4.0382 0.3912
12.1800 4.0448 0.3904
12.2000 4.0515 0.3832
12.2200 4.0582 0.3928
12.2400 4.0649 0.3843
12.2600 4.0716 0.3838
12.2800 4.0782 0.3900
12.3000 4.0849 0.3843
12.3200 4.0916 0.3755
12.3400 4.0982 0.3857
12.3600 4.1048 0.3886
12.3800 4.1114 0.3800
12.4000 4.1181 0.3814
12.4200 4.1248 0.3837
12.4400 4.1315 0.3821
12.4600 4.1382 0.3806
12.4800 4.1449 0.3855
12.5000 4.1516 0.3779
12.5200 4.1582 0.3783
12.5400 4.1648 0.3837
12.5600 4.1714 0.3803
12.5800 4.1781 0.3819
12.6000 4.1848 0.3856
12.6200 4.1915 0.3769
12.6400 4.1982 0.3816
12.6600 4.2049 0.3813
12.6800 4.2115 0.3763
12.7000 4.2182 0.3755
12.7200 4.2248 0.3830
12.7400 4.2314 0.3742
12.7600 4.2381 0.3777
12.7800 4.2448 0.3831
12.8000 4.2515 0.3747
12.8200 4.2582 0.3699
12.8400 4.2649 0.3874
12.8600 4.2716 0.3760
12.8800 4.2782 0.3712
12.9000 4.2848 0.3850
12.9200 4.2914 0.3739
12.9400 4.2981 0.3738
12.9600 4.3048 0.3786
12.9800 4.3116 0.3724
13.0000 4.3182 0.3735
13.0200 4.3249 0.3737
13.0400 4.3316 0.3688
13.0600 4.3382 0.3797
13.0800 4.3448 0.3706
13.1000 4.3514 0.3711
13.1200 4.3581 0.3761
13.1400 4.3648 0.3669
13.1600 4.3715 0.3737
13.1800 4.3782 0.3775
13.2000 4.3849 0.3630
13.2200 4.3915 0.3693
13.2400 4.3982 0.3728
13.2600 4.4048 0.3656
13.2800 4.4114 0.3698
13.3000 4.4181 0.3719
13.3200 4.4248 0.3657
13.3400 4.4315 0.3667
13.3600 4.4381 0.3667
13.3800 4.4448 0.3666
13.4000 4.4515 0.3621
13.4200 4.4582 0.3617
13.4400 4.4648 0.3639
13.4600 4.4714 0.3582
13.4800 4.4781 0.3647
13.5000 4.4848 0.3616
13.5200 4.4915 0.3560
13.5400 4.4982 0.3650
13.5600 4.5049 0.3594
13.5800 4.5116 0.3541
13.6000 4.5182 0.3676
13.6200 4.5248 0.3533
13.6400 4.5314 0.3563
13.6600 4.5381 0.3636
13.6800 4.5448 0.3545
13.7000 4.5515 0.3532
13.7200 4.5582 0.3672
13.7400 4.5649 0.3447
13.7600 4.5716 0.3532
13.7800 4.5782 0.3667
13.8000 4.5848 0.3496
13.8200 4.5915 0.3488
13.8400 4.5981 0.3594
13.8600 4.6048 0.3519
13.8800 4.6115 0.3485
13.9000 4.6182 0.3562
13.9200 4.6249 0.3480
13.9400 4.6316 0.3537
13.9600 4.6382 0.3516
13.9800 4.6448 0.3438
14.0000 4.6514 0.3544
14.0200 4.6580 0.3582
14.0400 4.6647 0.3431
14.0600 4.6715 0.3481
14.0800 4.6782 0.3504
14.1000 4.6848 0.3478
14.1200 4.6915 0.3457
14.1400 4.6981 0.3506
14.1600 4.7048 0.3423
14.1800 4.7114 0.3475
14.2000 4.7181 0.3537
14.2200 4.7248 0.3410
14.2400 4.7315 0.3409
14.2600 4.7382 0.3540
14.2800 4.7449 0.3381
14.3000 4.7516 0.3454
14.3200 4.7583 0.3541
14.3400 4.7649 0.3384
14.3600 4.7715 0.3436
14.3800 4.7782 0.3547
14.4000 4.7849 0.3360
14.4200 4.7916 0.3403
14.4400 4.7982 0.3494
14.4600 4.8049 0.3329
14.4800 4.8116 0.3432
14.5000 4.8182 0.3484
14.5200 4.8248 0.3299
14.5400 4.8314 0.3391
14.5600 4.8381 0.3565
14.5800 4.8448 0.3292
14.6000 4.8515 0.3370
14.6200 4.8582 0.3478
14.6400 4.8649 0.3282
14.6600 4.8715 0.3359
14.6800 4.8782 0.3500
14.7000 4.8848 0.3239
14.7200 4.8914 0.3396
14.7400 4.8981 0.3427
14.7600 4.9048 0.3287
14.7800 4.9115 0.3364
14.8000 4.9182 0.3405
14.8200 4.9249 0.3233
14.8400 4.9315 0.3392
14.8600 4.9382 0.3372
14.8800 4.9449 0.3261
14.9000 4.9515 0.3418
14.9200 4.9581 0.3275
14.9400 4.9648 0.3273
14.9600 4.9715 0.3365
14.9800 4.9782 0.3268
15.0000 4.9849 0.3280
15.0200 4.9916 0.3370
15.0400 4.9983 0.3231
15.0600 5.0049 0.3296
15.0800 5.0115 0.3347
15.1000 5.0181 0.3221
15.1200 5.0248 0.3281
15.1400 5.0315 0.3309
15.1600 5.0382 0.3197
15.1800 5.0449 0.3322
15.2000 5.0516 0.3263
15.2200 5.0582 0.3200
15.2400 5.0648 0.3281
15.2600 5.0714 0.3289
15.2800 5.0781 0.3232
15.3000 5.0848 0.3273
15.3200 5.0915 0.3216
15.3400 5.0982 0.3195
15.3600 5.1049 0.3292
15.3800 5.1115 0.3213
15.4000 5.1182 0.3196
15.4200 5.1248 0.3280
15.4400 5.1314 0.3238
15.4600 5.1381 0.3171
15.4800 5.1448 0.3273
15.5000 5.1515 0.3256
15.5200 5.1582 0.3133
15.5400 5.1648 0.3247
15.5600 5.1715 0.3217
15.5800 5.1782 0.3128
15.6000 5.1849 0.3238
15.6200 5.1915 0.3174
15.6400 5.1981 0.3167
15.6600 5.2048 0.3249
15.6800 5.2115 0.3191
15.7000 5.2182 0.3115
15.7200 5.2249 0.3192
15.7400 5.2316 0.3138
15.7600 5.2382 0.3144
15.7800 5.2449 0.3206
15.8000 5.2515 0.3150
15.8200 5.2581 0.3081
15.8400 5.2648 0.3223
15.8600 5.2715 0.3131
15.8800 5.2782 0.3056
15.9000 5.2849 0.3185
15.9200 5.2916 0.3145
15.9400 5.2982 0.3044
15.9600 5.3049 0.3109
15.9800 5.3115 0.3146
16.0000 5.3181 0.3060
16.0200 5.3248 0.3153
16.0400 5.3315 0.3060
16.0600 5.3382 0.3018
16.0800 5.3449 0.3139
16.1000 5.3516 0.3063
16.1200 5.3582 0.2973
16.1400 5.3648 0.3123
16.1600 5.3714 0.3015
16.1800 5.3780 0.3009
16.2000 5.3847 0.3075
16.2200 5.3915 0.3010
16.2400 5.3982 0.2945
16.2600 5.4048 0.3090
16.2800 5.4115 0.2992
16.3000 5.4182 0.2938
16.3200 5.4248 0.3059
16.3400 5.4315 0.2963
16.3600 5.4381 0.2932
16.3800 5.4448 0.3013
16.4000 5.4515 0.2934
16.4200 5.4582 0.2936
16.4400 5.4649 0.3013
16.4600 5.4716 0.2944
16.4800 5.4783 0.2900
16.5000 5.4849 0.2991
16.5200 5.4915 0.2925
16.5400 5.4981 0.2907
16.5600 5.5048 0.2972
16.5800 5.5115 0.2871
16.6000 5.5182 0.2899
16.6200 5.5249 0.2941
16.6400 5.5316 0.2894
16.6600 5.5382 0.2830
16.6800 5.5448 0.2965
16.7000 5.5514 0.2860
16.7200 5.5581 0.2853
16.7400 5.5648 0.2937
16.7600 5.5715 0.2857
16.7800 5.5782 0.2823
16.8000 5.5849 0.2947
16.8200 5.5915 0.2830
16.8400 5.5982 0.2806
16.8600 5.6048 0.2945
16.8800 5.6115 0.2800
16.9000 5.6181 0.2824
16.9200 5.6248 0.2935
16.9400 5.6315 0.2767
16.9600 5.6382 0.2807
16.9800 5.6448 0.2932
17.0000 5.6515 0.2762
17.0200 5.6582 0.2834
17.0400 5.6649 0.2881
17.0600 5.6715 0.2758
17.0800 5.6781 0.2834
17.1000 5.6848 0.2897
17.1200 5.6915 0.2719
17.1400 5.6982 0.2841
17.1600 5.7049 0.2805
17.1800 5.7116 0.2764
17.2000 5.7183 0.2806
17.2200 5.7249 0.2792
17.2400 5.7315 0.2736
17.2600 5.7381 0.2877
17.2800 5.7448 0.2770
17.3000 5.7515 0.2745
17.3200 5.7582 0.2793
17.3400 5.7649 0.2810
17.3600 5.7716 0.2745
17.3800 5.7782 0.2795
17.4000 5.7849 0.2772
17.4200 5.7915 0.2750
17.4400 5.7981 0.2791
17.4600 5.8048 0.2764
17.4800 5.8115 0.2751
17.5000 5.8182 0.2803
17.5200 5.8248 0.2756
17.5400 5.8315 0.2701
17.5600 5.8382 0.2772
17.5800 5.8449 0.2748
17.6000 5.8515 0.2761
17.6200 5.8581 0.2749
17.6400 5.8647 0.2778
17.6600 5.8714 0.2720
17.6800 5.8782 0.2726
17.7000 5.8848 0.2759
17.7200 5.8915 0.2746
17.7400 5.8982 0.2692
17.7600 5.9049 0.2773
17.7800 5.9115 0.2729
17.8000 5.9181 0.2705
17.8200 5.9248 0.2742
17.8400 5.9315 0.2695
17.8600 5.9382 0.2665
17.8800 5.9449 0.2725
17.9000 5.9516 0.2724
17.9200 5.9582 0.2667
17.9400 5.9649 0.2695
17.9600 5.9715 0.2709
17.9800 5.9781 0.2667
18.0000 5.9848 0.2681
18.0200 5.9915 0.2679
18.0400 5.9982 0.2646
18.0600 6.0049 0.2678
18.0800 6.0116 0.2677
18.1000 6.0182 0.2624
18.1200 6.0249 0.2625
18.1400 6.0315 0.2720
18.1600 6.0381 0.2596
18.1800 6.0447 0.2657
18.2000 6.0514 0.2704
18.2200 6.0581 0.2606
18.2400 6.0648 0.2573
18.2600 6.0715 0.2667
18.2800 6.0782 0.2563
18.3000 6.0849 0.2588
18.3200 6.0915 0.2681
18.3400 6.0981 0.2557
18.3600 6.1047 0.2614
18.3800 6.1114 0.2605
18.4000 6.1182 0.2483
18.4200 6.1248 0.2623
18.4400 6.1315 0.2580
18.4600 6.1382 0.2449
18.4800 6.1449 0.2596
18.5000 6.1515 0.2531
18.5200 6.1581 0.2471
18.5400 6.1648 0.2645
18.5600 6.1715 0.2493
18.5800 6.1782 0.2466
18.6000 6.1849 0.2612
18.6200 6.1916 0.2417
18.6400 6.1983 0.2499
18.6600 6.2049 0.2564
18.6800 6.2115 0.2384
18.7000 6.2181 0.2482
18.7200 6.2248 0.2554
18.7400 6.2315 0.2342
18.7600 6.2382 0.2528
18.7800 6.2449 0.2518
18.8000 6.2516 0.2307
18.8200 6.2582 0.2504
18.8400 6.2649 0.2523
18.8600 6.2715 0.2270
18.8800 6.2781 0.2494
18.9000 6.2847 0.2489
18.9200 6.2915 0.2292
18.9400 6.2982 0.2452
18.9600 6.3048 0.2412
18.9800 6.3115 0.2300
19.0000 6.3182 0.2469
19.0200 6.3248 0.2367
19.0400 6.3315 0.2249
19.0600 6.3381 0.2468
19.0800 6.3447 0.2377
19.1000 6.3514 0.2234
19.1200 6.3581 0.2449
19.1400 6.3648 0.2381
19.1600 6.3715 0.2204
19.1800 6.3782 0.2427
19.2000 6.3849 0.2270
19.2200 6.3915 0.2272
19.2400 6.3981 0.2388
19.2600 6.4048 0.2330
19.2800 6.4115 0.2161
19.3000 6.4182 0.2356
19.3200 6.4249 0.2253
19.3400 6.4316 0.2146
19.3600 6.4383 0.2391
19.3800 6.4449 0.2232
19.4000 6.4515 0.2131
19.4200 6.4581 0.2406
19.4400 6.4648 0.2193
19.4600 6.4715 0.2138
19.4800 6.4782 0.2353
19.5000 6.4849 0.2182
19.5200 6.4915 0.2141
19.5400 6.4982 0.2324
19.5600 6.5049 0.2132
19.5800 6.5115 0.2094
19.6000 6.5182 0.2315
19.6200 6.5248 0.2145
19.6400 6.5315 0.2161
19.6600 6.5382 0.2246
19.6800 6.5448 0.2159
19.7000 6.5515 0.2134
19.7200 6.5582 0.2255
19.7400 6.5649 0.2116
19.7600 6.5715 0.2101
19.7800 6.5781 0.2235
19.8000 6.5847 0.2172
19.8200 6.5914 0.2098
19.8400 6.5982 0.2236
19.8600 6.6049 0.2124
19.8800 6.6115 0.2128
19.9000 6.6182 0.2184
19.9200 6.6249 0.2150
19.9400 6.6315 0.2116
19.9600 6.6381 0.2191
19.9800 6.6448 0.2187
20.0000 6.6515 0.2122
20.0200 6.6582 0.2180
20.0400 6.6649 0.2162
20.0600 6.6715 0.2155
20.0800 6.6782 0.2187
20.1000 6.6849 0.2101
20.1200 6.6915 0.2082
20.1400 6.6982 0.2212
20.1600 6.7048 0.2068
20.1800 6.7115 0.2121
20.2000 6.7182 0.2206
20.2200 6.7249 0.2076
20.2400 6.7316 0.2096
20.2600 6.7383 0.2201
20.2800 6.7449 0.2071
20.3000 6.7515 0.2109
20.3200 6.7581 0.2166
20.3400 6.7647 0.2072
20.3600 6.7715 0.2085
20.3800 6.7782 0.2173
20.4000 6.7849 0.2020
20.4200 6.7916 0.2121
20.4400 6.7982 0.2118
20.4600 6.8049 0.2033
20.4800 6.8115 0.2119
20.5000 6.8181 0.2116
20.5200 6.8247 0.1995
20.5400 6.8314 0.2102
20.5600 6.8382 0.2135
20.5800 6.8448 0.1937
20.6000 6.8515 0.2130
20.6200 6.8582 0.2114
20.6400 6.8649 0.1931
20.6600 6.8715 0.2099
20.6800 6.8781 0.2156
20.7000 6.8848 0.1912
20.7200 6.8915 0.2119
20.7400 6.8982 0.2105
20.7600 6.9049 0.1886
20.7800 6.9116 0.2141
20.8000 6.9183 0.2134
20.8200 6.9249 0.1877
20.8400 6.9315 0.2145
20.8600 6.9381 0.2049
20.8800 6.9448 0.1885
20.9000 6.9515 0.2157
20.9200 6.9582 0.2026
20.9400 6.9649 0.1910
20.9600 6.9716 0.2165
20.9800 6.9782 0.2035
21.0000 6.9849 0.1871
21.0200 6.9915 0.2142
21.0400 6.9981 0.2027
21.0600 7.0048 0.1894
21.0800 7.0114 0.2137
21.1000 7.0181 0.1993
21.1200 7.0248 0.1844
21.1400 7.0315 0.2134
21.1600 7.0382 0.2016
21.1800 7.0449 0.1934
21.2000 7.0515 0.2081
21.2200 7.0581 0.1968
21.2400 7.0647 0.1899
21.2600 7.0714 0.2061
21.2800 7.0781 0.1988
21.3000 7.0849 0.1939
21.3200 7.0915 0.2022
21.3400 7.0982 0.1958
21.3600 7.1049 0.1895
21.3800 7.1115 0.2050
21.4000 7.1181 0.1956
21.4200 7.1248 0.1897
21.4400 7.1314 0.2059
21.4600 7.1382 0.1954
21.4800 7.1449 0.1846
21.5000 7.1515 0.2042
21.5200 7.1582 0.1926
21.5400 7.1649 0.1834
21.5600 7.1716 0.1985
21.5800 7.1782 0.1936
21.6000 7.1848 0.1885
21.6200 7.1915 0.1991
21.6400 7.1982 0.1926
21.6600 7.2049 0.1831
21.6800 7.2115 0.1983
21.7000 7.2182 0.1875
21.7200 7.2249 0.1871
21.7400 7.2316 0.1927
21.7600 7.2382 0.1866
21.7800 7.2448 0.1833
21.8000 7.2514 0.1982
21.8200 7.2582 0.1869
21.8400 7.2649 0.1856
21.8600 7.2715 0.1932
21.8800 7.2782 0.1862
21.9000 7.2849 0.1812
21.9200 7.2915 0.1962
21.9400 7.2981 0.1849
21.9600 7.3047 0.1814
21.9800 7.3114 0.1954
22.0000 7.3181 0.1833
22.0200 7.3248 0.1831
22.0400 7.3315 0.1906
22.0600 7.3382 0.1810
22.0800 7.3449 0.1799
22.1000 7.3515 0.1920
22.1200 7.3581 0.1781
22.1400 7.3648 0.1782
22.1600 7.3715 0.1945
22.1800 7.3782 0.1806
22.2000 7.3849 0.1728
22.2200 7.3916 0.1902
22.2400 7.3982 0.1797
22.2600 7.4049 0.1766
22.2800 7.4116 0.1819
22.3000 7.4182 0.1784
22.3200 7.4248 0.1728
22.3400 7.4315 0.1839
22.3600 7.4382 0.1776
22.3800 7.4449 0.1713
22.4000 7.4516 0.1824
22.4200 7.4582 0.1794
22.4400 7.4649 0.1707
22.4600 7.4716 0.1785
22.4800 7.4781 0.1744
22.5000 7.4848 0.1736
22.5200 7.4915 0.1764
22.5400 7.4982 0.1675
22.5600 7.5049 0.1787
22.5800 7.5115 0.1732
22.6000 7.5182 0.1657
22.6200 7.5249 0.1716
22.6400 7.5315 0.1702
22.6600 7.5382 0.1636
22.6800 7.5448 0.1729
22.7000 7.5514 0.1700
22.7200 7.5581 0.1643
22.7400 7.5648 0.1691
22.7600 7.5715 0.1689
22.7800 7.5782 0.1614
22.8000 7.5849 0.1725
22.8200 7.5915 0.1631
22.8400 7.5981 0.1628
22.8600 7.6048 0.1716
22.8800 7.6114 0.1617
22.9000 7.6182 0.1577
22.9200 7.6249 0.1693
22.9400 7.6316 0.1639
22.9600 7.6382 0.1572
22.9800 7.6449 0.1669
23.0000 7.6515 0.1597
23.0200 7.6582 0.1588
23.0400 7.6648 0.1618
23.0600 7.6715 0.1606
23.0800 7.6782 0.1579
23.1000 7.6849 0.1606
23.1200 7.6916 0.1560
23.1400 7.6983 0.1569
23.1600 7.7049 0.1592
23.1800 7.7116 0.1574
23.2000 7.7182 0.1533
23.2200 7.7248 0.1651
23.2400 7.7314 0.1533
23.2600 7.7381 0.1577
23.2800 7.7448 0.1531
23.3000 7.7515 0.1513
23.3200 7.7582 0.1593
23.3400 7.7649 0.1525
23.3600 7.7715 0.1480
23.3800 7.7781 0.1600
23.4000 7.7847 0.1521
23.4200 7.7914 0.1511
23.4400 7.7981 0.1598
23.4600 7.8048 0.1491
23.4800 7.8115 0.1496
23.5000 7.8182 0.1564
23.5200 7.8249 0.1415
23.5400 7.8315 0.1474
23.5600 7.8382 0.1597
23.5800 7.8448 0.1423
23.6000 7.8515 0.1506
23.6200 7.8582 0.1541
23.6400 7.8649 0.1449
23.6600 7.8715 0.1473
23.6800 7.8782 0.1524
23.7000 7.8849 0.1455
23.7200 7.8916 0.1480
23.7400 7.8982 0.1499
23.7600 7.9048 0.1464
23.7800 7.9114 0.1439
23.8000 7.9181 0.1519
23.8200 7.9248 0.1423
23.8400 7.9316 0.1412
23.8600 7.9382 0.1479
23.8800 7.9449 0.1418
23.9000 7.9516 0.1397
23.9200 7.9582 0.1468
23.9400 7.9648 0.1439
23.9600 7.9714 0.1369
23.9800 7.9781 0.1429
24.0000 7.9849 0.1428
24.0200 7.9916 0.1429
24.0400 7.9982 0.1409
24.0600 8.0049 0.1376
24.0800 8.0115 0.1408
24.1000 8.0182 0.1423
24.1200 8.0248 0.1367
24.1400 8.0314 0.1423
24.1600 8.0381 0.1424
24.1800 8.0448 0.1352
24.2000 8.0515 0.1358
24.2200 8.0581 0.1443
24.2400 8.0648 0.1341
24.2600 8.0715 0.1385
24.2800 8.0782 0.1382
24.3000 8.0848 0.1327
24.3200 8.0914 0.1432
24.3400 8.0981 0.1397
24.3600 8.1048 0.1285
24.3800 8.1116 0.1421
24.4000 8.1183 0.1355
24.4200 8.1250 0.1276
24.4400 8.1316 0.1416
24.4600 8.1382 0.1375
24.4800 8.1448 0.1292
24.5000 8.1515 0.1416
24.5200 8.1582 0.1344
24.5400 8.1649 0.1302
24.5600 8.1716 0.1427
24.5800 8.1782 0.1309
24.6000 8.1849 0.1318
24.6200 8.1916 0.1430
24.6400 8.1982 0.1276
24.6600 8.2048 0.1329
24.6800 8.2114 0.1478
24.7000 8.2181 0.1239
24.7200 8.2248 0.1394
24.7400 8.2315 0.1371
24.7600 8.2382 0.1214
24.7800 8.2448 0.1412
24.8000 8.2515 0.1387
24.8200 8.2582 0.1203
24.8400 8.2648 0.1418
24.8600 8.2714 0.1372
24.8800 8.2781 0.1225
24.9000 8.2848 0.1430
24.9200 8.2915 0.1303
24.9400 8.2982 0.1190
24.9600 8.3049 0.1432
24.9800 8.3115 0.1330
25.0000 8.3182 0.1232
25.0200 8.3248 0.1454
25.0400 8.3314 0.1323
25.0600 8.3381 0.1250
25.0800 8.3449 0.1401
25.1000 8.3516 0.1273
25.1200 8.3583 0.1233
25.1400 8.3649 0.1379
25.1600 8.3716 0.1284
25.1800 8.3782 0.1291
25.2000 8.3848 0.1363
25.2200 8.3915 0.1313
25.2400 8.3982 0.1215
25.2600 8.4049 0.1358
25.2800 8.4115 0.1343
25.3000 8.4182 0.1246
25.3200 8.4249 0.1284
25.3400 8.4316 0.1387
25.3600 8.4382 0.1226
25.3800 8.4448 0.1270
25.4000 8.4514 0.1345
25.4200 8.4581 0.1232
25.4400 8.4648 0.1274
25.4600 8.4715 0.1364
25.4800 8.4782 0.1172
25.5000 8.4849 0.1243
25.5200 8.4916 0.1343
25.5400 8.4982 0.1146
25.5600 8.5048 0.1284
25.5800 8.5114 0.1361
25.6000 8.5181 0.1161
25.6200 8.5248 0.1257
25.6400 8.5315 0.1354
25.6600 8.5382 0.1120
25.6800 8.5449 0.1266
25.7000 8.5516 0.1302
25.7200 8.5582 0.1093
25.7400 8.5648 0.1265
25.7600 8.5715 0.1316
25.7800 8.5781 0.1109
25.8000 8.5848 0.1281
25.8200 8.5915 0.1293
25.8400 8.5982 0.1129
25.8600 8.6049 0.1254
25.8800 8.6116 0.1262
25.9000 8.6182 0.1029
25.9200 8.6248 0.1279
25.9400 8.6314 0.1260
25.9600 8.6381 0.1056
25.9800 8.6448 0.1179
26.0000 8.6516 0.1269
26.0200 8.6583 0.1067
26.0400 8.6649 0.1168
26.0600 8.6716 0.1219
26.0800 8.6782 0.1063
26.1000 8.6848 0.1180
26.1200 8.6915 0.1213
26.1400 8.6982 0.1090
26.1600 8.7049 0.1174
26.1800 8.7115 0.1218
26.2000 8.7182 0.1000
26.2200 8.7249 0.1134
26.2400 8.7315 0.1191
26.2600 8.7382 0.1031
26.2800 8.7448 0.1102
26.3000 8.7514 0.1200
26.3200 8.7580 0.0951
26.3400 8.7648 0.1161
26.3600 8.7715 0.1191
26.3800 8.7782 0.0906
26.4000 8.7849 0.1094
26.4200 8.7916 0.1173
26.4400 8.7982 0.0934
26.4600 8.8048 0.1117
26.4800 8.8114 0.1193
26.5000 8.8181 0.0939
26.5200 8.8248 0.1035
26.5400 8.8316 0.1161
26.5600 8.8383 0.0907
26.5800 8.8449 0.1055
26.6000 8.8516 0.1137
26.6200 8.8582 0.0837
26.6400 8.8648 0.1077
26.6600 8.8714 0.1170
26.6800 8.8781 0.0845
26.7000 8.8849 0.0999
26.7200 8.8916 0.1179
26.7400 8.8982 0.0819
26.7600 8.9049 0.0997
26.7800 8.9116 0.1149
26.8000 8.9182 0.0858
26.8200 8.9248 0.0945
26.8400 8.9314 0.1158
26.8600 8.9381 0.0840
26.8800 8.9448 0.0972
26.9000 8.9515 0.1123
26.9200 8.9582 0.0829
26.9400 8.9649 0.0992
26.9600 8.9716 0.1096
26.9800 8.9782 0.0799
27.0000 8.9848 0.0989
27.0200 8.9914 0.1114
27.0400 8.9981 0.0796
27.0600 9.0048 0.1011
27.0800 9.0115 0.1061
27.1000 9.0182 0.0766
27.1200 9.0249 0.0986
27.1400 9.0315 0.1096
27.1600 9.0382 0.0745
27.1800 9.0448 0.0955
27.2000 9.0514 0.1054
27.2200 9.0581 0.0826
27.2400 9.0648 0.0905
27.2600 9.0716 0.1013
27.2800 9.0782 0.0835
27.3000 9.0849 0.0963
27.3200 9.0916 0.0942
27.3400 9.0982 0.0836
27.3600 9.1049 0.0922
27.3800 9.1115 0.0919
27.4000 9.1181 0.0826
27.4200 9.1248 0.0905
27.4400 9.1315 0.0879
27.4600 9.1382 0.0860
27.4800 9.1449 0.0826
27.5000 9.1516 0.0883
27.5200 9.1582 0.0859
27.5400 9.1648 0.0803
27.5600 9.1714 0.0916
27.5800 9.1781 0.0859
27.6000 9.1848 0.0743
27.6200 9.1915 0.0881
27.6400 9.1982 0.0899
27.6600 9.2049 0.0705
27.6800 9.2115 0.0873
27.7000 9.2182 0.0804
27.7200 9.2248 0.0702
27.7400 9.2314 0.0880
27.7600 9.2381 0.0843
27.7800 9.2448 0.0677
27.8000 9.2515 0.0858
27.8200 9.2582 0.0779
27.8400 9.2648 0.0695
27.8600 9.2715 0.0858
27.8800 9.2782 0.0742
27.9000 9.2848 0.0647
27.9200 9.2915 0.0881
27.9400 9.2981 0.0768
27.9600 9.3048 0.0638
27.9800 9.3115 0.0823
28.0000 9.3182 0.0732
28.0200 9.3249 0.0662
28.0400 9.3316 0.0849
28.0600 9.3383 0.0684
28.0800 9.3449 0.0666
28.1000 9.3515 0.0819
28.1200 9.3581 0.0698
28.1400 9.3648 0.0660
28.1600 9.3715 0.0761
28.1800 9.3782 0.0666
28.2000 9.3849 0.0580
28.2200 9.3916 0.0801
28.2400 9.3982 0.0664
28.2600 9.4048 0.0568
28.2800 9.4115 0.0732
28.3000 9.4181 0.0685
28.3200 9.4248 0.0565
28.3400 9.4315 0.0723
28.3600 9.4382 0.0642
28.3800 9.4449 0.0547
28.4000 9.4516 0.0709
28.4200 9.4582 0.0618
28.4400 9.4648 0.0544
28.4600 9.4714 0.0740
28.4800 9.4780 0.0569
28.5000 9.4847 0.0538
28.5200 9.4915 0.0683
28.5400 9.4982 0.0536
28.5600 9.5048 0.0539
28.5800 9.5115 0.0702
28.6000 9.5182 0.0504
28.6200 9.5248 0.0572
28.6400 9.5314 0.0682
28.6600 9.5381 0.0498
28.6800 9.5448 0.0570
28.7000 9.5515 0.0631
28.7200 9.5582 0.0509
28.7400 9.5649 0.0547
28.7600 9.5716 0.0589
28.7800 9.5782 0.0511
28.8000 9.5849 0.0622
28.8200 9.5915 0.0522
28.8400 9.5982 0.0528
28.8600 9.6048 0.0585
28.8800 9.6115 0.0531
28.9000 9.6182 0.0502
28.9200 9.6249 0.0580
28.9400 9.6316 0.0495
28.9600 9.6382 0.0544
28.9800 9.6448 0.0549
29.0000 9.6514 0.0451
29.0200 9.6581 0.0581
29.0400 9.6647 0.0560
29.0600 9.6715 0.0379
29.0800 9.6782 0.0556
29.1000 9.6848 0.0552
29.1200 9.6915 0.0406
29.1400 9.6982 0.0543
29.1600 9.7048 0.0571
29.1800 9.7114 0.0406
29.2000 9.7181 0.0548
29.2200 9.7248 0.0524
29.2400 9.7315 0.0381
29.2600 9.7382 0.0564
29.2800 9.7449 0.0499
29.3000 9.7515 0.0365
29.3200 9.7582 0.0535
29.3400 9.7649 0.0510
29.3600 9.7715 0.0347
29.3800 9.7781 0.0554
29.4000 9.7848 0.0464
29.4200 9.7915 0.0360
29.4400 9.7982 0.0513
29.4600 9.8049 0.0455
29.4800 9.8116 0.0305
29.5000 9.8183 0.0507
29.5200 9.8249 0.0454
29.5400 9.8315 0.0340
29.5600 9.8381 0.0471
29.5800 9.8448 0.0462
29.6000 9.8515 0.0298
29.6200 9.8582 0.0439
29.6400 9.8649 0.0461
29.6600 9.8716 0.0292
29.6800 9.8782 0.0427
29.7000 9.8848 0.0392
29.7200 9.8914 0.0335
29.7400 9.8981 0.0421
29.7600 9.9048 0.0419
29.7800 9.9115 0.0270
29.8000 9.9182 0.0388
29.8200 9.9249 0.0433
29.8400 9.9315 0.0334
29.8600 9.9382 0.0322
29.8800 9.9449 0.0377
29.9000 9.9515 0.0264
29.9200 9.9581 0.0329
29.9400 9.9647 0.0408
29.9600 9.9714 0.0273
29.9800 9.9781 0.0260
30.0000 9.9848 0.0374
30.0200 9.9915 0.0251
30.0400 9.9982 0.0346
30.0600 10.0049 0.0377
30.0800 10.0115 0.0182
30.1000 10.0181 0.0341
30.1200 10.0248 0.0342
30.1400 10.0315 0.0187
30.1600 10.0382 0.0340
30.1800 10.0449 0.0322
30.2000 10.0516 0.0148
30.2200 10.0582 0.0381
30.2400 10.0649 0.0286
30.2600 10.0715 0.0158
30.2800 10.0781 0.0372
30.3000 10.0848 0.0270
30.3200 10.0915 0.0144
30.3400 10.0982 0.0380
30.3600 10.1049 0.0263
30.3800 10.1116 0.0184
30.4000 10.1182 0.0308
30.4200 10.1249 0.0207
30.4400 10.1315 0.0214
30.4600 10.1381 0.0363
30.4800 10.1448 0.0223
30.5000 10.1515 0.0182
30.5200 10.1582 0.0307
30.5400 10.1649 0.0248
30.5600 10.1716 0.0178
30.5800 10.1782 0.0270
30.6000 10.1849 0.0239
30.6200 10.1914 0.0177
30.6400 10.1980 0.0256
30.6600 10.2047 0.0256
30.6800 10.2114 0.0186
30.7000 10.2182 0.0190
30.7200 10.2248 0.0269
30.7400 10.2315 0.0207
30.7600 10.2382 0.0203
30.7800 10.2448 0.0250
30.8000 10.2515 0.0162
30.8200 10.2581 0.0215
30.8400 10.2648 0.0267
30.8600 10.2715 0.0103
30.8800 10.2782 0.0220
30.9000 10.2849 0.0264
30.9200 10.2916 0.0093
30.9400 10.2983 0.0215
30.9600 10.3049 0.0256
30.9800 10.3115 0.0087
31.0000 10.3181 0.0260
31.0200 10.3248 0.0274
31.0400 10.3315 0.0101
31.0600 10.3382 0.0176
31.0800 10.3449 0.0278
31.1000 10.3516 0.0092
31.1200 10.3583 0.0164
31.1400 10.3649 0.0242
31.1600 10.3715 0.0101
31.1800 10.3781 0.0169
31.2000 10.3847 0.0243
31.2200 10.3915 0.0147
31.2400 10.3982 0.0134
31.2600 10.4049 0.0213
31.2800 10.4115 0.0153
31.3000 10.4182 0.0129
31.3200 10.4249 0.0178
31.3400 10.4315 0.0180
31.3600 10.4381 0.0127
31.3800 10.4448 0.0213
31.4000 10.4515 0.0151
31.4200 10.4582 0.0108
31.4400 10.4648 0.0177
31.4600 10.4715 0.0147
31.4800 10.4782 0.0072
31.5000 10.4849 0.0222
31.5200 10.4915 0.0093
31.5400 10.4981 0.0060
31.5600 10.5048 0.0271
31.5800 10.5115 0.0116
31.6000 10.5182 -0.0018
31.6200 10.5249 0.0265
31.6400 10.5316 0.0150
31.6600 10.5382 -0.0052
31.6800 10.5449 0.0265
31.7000 10.5515 0.0117
31.7200 10.5581 0.0004
31.7400 10.5648 0.0242
31.7600 10.5715 0.0093
31.7800 10.5782 -0.0001
31.8000 10.5849 0.0289
31.8200 10.5916 0.0049
31.8400 10.5982 0.0001
31.8600 10.6049 0.0290
31.8800 10.6115 0.0000
31.9000 10.6181 0.0008
31.9200 10.6248 0.0280
31.9400 10.6315 -0.0036
31.9600 10.6382 0.0085
31.9800 10.6448 0.0223
32.0000 10.6515 -0.0021
32.0200 10.6582 0.0048
32.0400 10.6649 0.0212
32.0600 10.6715 -0.0006
32.0800 10.6781 0.0044
32.1000 10.6847 0.0219
32.1200 10.6914 -0.0012
32.1400 10.6981 0.0008
32.1600 10.7048 0.0167
32.1800 10.7115 0.0014
32.2000 10.7182 0.0021
32.2200 10.7249 0.0128
32.2400 10.7315 0.0008
32.2600 10.7381 0.0009
32.2800 10.7448 0.0140
32.3000 10.7515 0.0057
32.3200 10.7582 -0.0048
32.3400 10.7649 0.0165
32.3600 10.7716 0.0026
32.3800 10.7782 -0.0076
32.4000 10.7849 0.0161
32.4200 10.7915 0.0059
32.4400 10.7981 -0.0096
32.4600 10.8048 0.0097
32.4800 10.8115 0.0046
32.5000 10.8182 -0.0071
32.5200 10.8249 0.0083
32.5400 10.8316 0.0084
32.5600 10.8383 -0.0150
32.5800 10.8449 0.0120
32.6000 10.8515 0.0063
32.6200 10.8581 -0.0124
32.6400 10.8647 0.0133
32.6600 10.8714 0.0051
32.6800 10.8782 -0.0146
32.7000 10.8849 0.0062
32.7200 10.8916 0.0077
32.7400 10.8982 -0.0160
32.7600 10.9049 0.0050
32.7800 10.9115 0.0014
32.8000 10.9181 -0.0141
32.8200 10.9247 0.0088
32.8400 10.9314 0.0015
32.8600 10.9382 -0.0197
32.8800 10.9448 0.0078
32.9000 10.9515 0.0014
32.9200 10.9582 -0.0219
32.9400 10.9649 -0.0011
32.9600 10.9715 0.0041
32.9800 10.9781 -0.0220
33.0000 10.9848 0.0009
33.0200 10.9915 0.0015
33.0400 10.9982 -0.0208
33.0600 11.0049 -0.0041
33.0800 11.0116 -0.0024
33.1000 11.0183 -0.0221
33.1200 11.0249 -0.0012
33.1400 11.0315 -0.0048
33.1600 11.0381 -0.0250
33.1800 11.0448 -0.0026
33.2000 11.0515 -0.0010
33.2200 11.0582 -0.0230
33.2400 11.0649 -0.0084
33.2600 11.0716 -0.0097
33.2800 11.0783 -0.0259
33.3000 11.0849 -0.0065
33.3200 11.0915 -0.0114
33.3400 11.0981 -0.0178
33.3600 11.1047 -0.0061
33.3800 11.1114 -0.0100
33.4000 11.1182 -0.0250
33.4200 11.1248 -0.0101
33.4400 11.1315 -0.0107
33.4600 11.1382 -0.0218
33.4800 11.1449 -0.0182
33.5000 11.1515 -0.0112
33.5200 11.1581 -0.0173
33.5400 11.1647 -0.0169
33.5600 11.1714 -0.0153
33.5800 11.1782 -0.0190
33.6000 11.1848 -0.0172
33.6200 11.1915 -0.0091
33.6400 11.1982 -0.0284
33.6600 11.2049 -0.0165
33.6800 11.2115 -0.0105
33.7000 11.2181 -0.0311
33.7200 11.2248 -0.0139
33.7400 11.2315 -0.0077
33.7600 11.2382 -0.0309
33.7800 11.2449 -0.0241
33.8000 11.2516 -0.0084
33.8200 11.2582 -0.0275
33.8400 11.2649 -0.0167
33.8600 11.2715 -0.0153
33.8800 11.2781 -0.0294
33.9000 11.2848 -0.0202
33.9200 11.2915 -0.0164
33.9400 11.2982 -0.0272
33.9600 11.3049 -0.0184
33.9800 11.3115 -0.0205
34.0000 11.3182 -0.0270
34.0200 11.3249 -0.0239
34.0400 11.3316 -0.0196
34.0600 11.3382 -0.0280
34.0800 11.3448 -0.0195
34.1000 11.3515 -0.0236
34.1200 11.3582 -0.0263
34.1400 11.3648 -0.0252
34.1600 11.3715 -0.0251
34.1800 11.3782 -0.0171
34.2000 11.3849 -0.0281
34.2200 11.3915 -0.0244
34.2400 11.3981 -0.0202
34.2600 11.4047 -0.0261
34.2800 11.4114 -0.0264
34.3000 11.4181 -0.0179
34.3200 11.4249 -0.0285
34.3400 11.4315 -0.0269
34.3600 11.4382 -0.0207
34.3800 11.4449 -0.0313
34.4000 11.4515 -0.0256
34.4200 11.4581 -0.0226
34.4400 11.4648 -0.0355
34.4600 11.4715 -0.0223
34.4800 11.4782 -0.0291
34.5000 11.4849 -0.0317
34.5200 11.4915 -0.0219
34.5400 11.4982 -0.0299
34.5600 11.5049 -0.0322
34.5800 11.5115 -0.0233
34.6000 11.5182 -0.0331
34.6200 11.5248 -0.0305
34.6400 11.5315 -0.0265
34.6600 11.5382 -0.0357
34.6800 11.5449 -0.0306
34.7000 11.5516 -0.0251
34.7200 11.5583 -0.0361
34.7400 11.5649 -0.0288
34.7600 11.5716 -0.0276
34.7800 11.5781 -0.0372
34.8000 11.5848 -0.0226
34.8200 11.5914 -0.0341
34.8400 11.5982 -0.0370
34.8600 11.6049 -0.0294
34.8800 11.6115 -0.0374
34.9000 11.6182 -0.0362
34.9200 11.6249 -0.0287
34.9400 11.6315 -0.0381
34.9600 11.6381 -0.0341
34.9800 11.6447 -0.0319
35.0000 11.6514 -0.0331
35.0200 11.6581 -0.0345
35.0400 11.6648 -0.0360
35.0600 11.6715 -0.0434
35.0800 11.6782 -0.0290
35.1000 11.6849 -0.0391
35.1200 11.6915 -0.0395
35.1400 11.6981 -0.0293
35.1600 11.7048 -0.0422
35.1800 11.7114 -0.0387
35.2000 11.7182 -0.0357
35.2200 11.7249 -0.0390
35.2400 11.7316 -0.0391
35.2600 11.7383 -0.0360
35.2800 11.7449 -0.0410
35.3000 11.7516 -0.0423
35.3200 11.7582 -0.0350
35.3400 11.7648 -0.0365
35.3600 11.7715 -0.0421
35.3800 11.7782 -0.0412
35.4000 11.7849 -0.0392
35.4200 11.7916 -0.0415
35.4400 11.7982 -0.0412
35.4600 11.8049 -0.0347
35.4800 11.8115 -0.0514
35.5000 11.8181 -0.0370
35.5200 11.8248 -0.0379
35.5400 11.8314 -0.0511
35.5600 11.8381 -0.0390
35.5800 11.8448 -0.0414
35.6000 11.8515 -0.0528
35.6200 11.8582 -0.0396
35.6400 11.8649 -0.0418
35.6600 11.8715 -0.0556
35.6800 11.8781 -0.0382
35.7000 11.8847 -0.0426
35.7200 11.8914 -0.0582
35.7400 11.8981 -0.0327
35.7600 11.9048 -0.0460
35.7800 11.9115 -0.0629
35.8000 11.9182 -0.0332
35.8200 11.9249 -0.0467
35.8400 11.9315 -0.0598
35.8600 11.9382 -0.0353
35.8800 11.9448 -0.0429
35.9000 11.9515 -0.0666
35.9200 11.9582 -0.0380
35.9400 11.9649 -0.0504
35.9600 11.9715 -0.0635
35.9800 11.9782 -0.0383
36.0000 11.9849 -0.0494
36.0200 11.9916 -0.0676
36.0400 11.9982 -0.0362
36.0600 12.0048 -0.0534
36.0800 12.0115 -0.0570
36.1000 12.0182 -0.0390
36.1200 12.0249 -0.0548
36.1400 12.0315 -0.0592
36.1600 12.0382 -0.0389
36.1800 12.0449 -0.0538
36.2000 12.0516 -0.0635
36.2200 12.0582 -0.0394
36.2400 12.0648 -0.0549
36.2600 12.0714 -0.0592
36.2800 12.0781 -0.0371
36.3000 12.0849 -0.0560
36.3200 12.0916 -0.0620
36.3400 12.0982 -0.0416
36.3600 12.1049 -0.0591
36.3800 12.1115 -0.0630
36.4000 12.1181 -0.0397
36.4200 12.1247 -0.0525
36.4400 12.1314 -0.0643
36.4600 12.1381 -0.0352
36.4800 12.1448 -0.0592
36.5000 12.1515 -0.0634
36.5200 12.1582 -0.0380
36.5400 12.1649 -0.0584
36.5600 12.1715 -0.0678
36.5800 12.1782 -0.0367
36.6000 12.1848 -0.0557
36.6200 12.1914 -0.0650
36.6400 12.1981 -0.0452
36.6600 12.2049 -0.0571
36.6800 12.2116 -0.0679
36.7000 12.2183 -0.0454
36.7200 12.2249 -0.0588
36.7400 12.2316 -0.0665
36.7600 12.2382 -0.0446
36.7800 12.2448 -0.0580
36.8000 12.2514 -0.0627
36.8200 12.2582 -0.0489
36.8400 12.2649 -0.0638
36.8600 12.2716 -0.0618
36.8800 12.2783 -0.0501
36.9000 12.2849 -0.0652
36.9200 12.2916 -0.0634
36.9400 12.2982 -0.0519
36.9600 12.3048 -0.0625
36.9800 12.3114 -0.0653
37.0000 12.3181 -0.0479
37.0200 12.3248 -0.0686
37.0400 12.3315 -0.0647
37.0600 12.3382 -0.0529
37.0800 12.3449 -0.0680
37.1000 12.3516 -0.0618
37.1200 12.3582 -0.0592
37.1400 12.3648 -0.0684
37.1600 12.3714 -0.0592
37.1800 12.3781 -0.0630
37.2000 12.3848 -0.0664
37.2200 12.3915 -0.0621
37.2400 12.3982 -0.0681
37.2600 12.4049 -0.0663
37.2800 12.4115 -0.0651
37.3000 12.4182 -0.0733
37.3200 12.4248 -0.0633
37.3400 12.4314 -0.0655
37.3600 12.4381 -0.0780
37.3800 12.4449 -0.0582
37.4000 12.4516 -0.0730
37.4200 12.4583 -0.0781
37.4400 12.4649 -0.0567
37.4600 12.4716 -0.0775
37.4800 12.4782 -0.0797
37.5000 12.4848 -0.0567
37.5200 12.4914 -0.0842
37.5400 12.4982 -0.0755
37.5600 12.5049 -0.0587
37.5800 12.5116 -0.0890
37.6000 12.5182 -0.0697
37.6200 12.5249 -0.0609
37.6400 12.5316 -0.1022
37.6600 12.5382 -0.0651
37.6800 12.5448 -0.0602
37.7000 12.5514 -0.1017
37.7200 12.5581 -0.0666
37.7400 12.5648 -0.0650
37.7600 12.5715 -0.1044
37.7800 12.5782 -0.0658
37.8000 12.5849 -0.0711
37.8200 12.5916 -0.1049
37.8400 12.5982 -0.0679
37.8600 12.6047 -0.0742
37.8800 12.6114 -0.1007
37.9000 12.6181 -0.0635
37.9200 12.6248 -0.0791
37.9400 12.6315 -0.1071
37.9600 12.6382 -0.0610
37.9800 12.6449 -0.0893
38.0000 12.6515 -0.1050
38.0200 12.6582 -0.0619
38.0400 12.6648 -0.0823
38.0600 12.6714 -0.1102
38.0800 12.6781 -0.0698
38.1000 12.6848 -0.0811
38.1200 12.6915 -0.1062
38.1400 12.6982 -0.0752
38.1600 12.7049 -0.0797
38.1800 12.7116 -0.1095
38.2000 12.7182 -0.0739
38.2200 12.7248 -0.0863
38.2400 12.7314 -0.0999
38.2600 12.7381 -0.0729
38.2800 12.7448 -0.0898
38.3000 12.7515 -0.1091
38.3200 12.7582 -0.0689
38.3400 12.7649 -0.0911
38.3600 12.7716 -0.1200
38.3800 12.7782 -0.0714
38.4000 12.7848 -0.0875
38.4200 12.7914 -0.1158
38.4400 12.7982 -0.0769
38.4600 12.8049 -0.0921
38.4800 12.8116 -0.1147
38.5000 12.8182 -0.0768
38.5200 12.8249 -0.0996
38.5400 12.8316 -0.1104
38.5600 12.8382 -0.0774
38.5800 12.8448 -0.1027
38.6000 12.8514 -0.1112
38.6200 12.8581 -0.0773
38.6400 12.8648 -0.1064
38.6600 12.8715 -0.1077
38.6800 12.8781 -0.0858
38.7000 12.8848 -0.1077
38.7200 12.8915 -0.1044
38.7400 12.8982 -0.0911
38.7600 12.9048 -0.1054
38.7800 12.9114 -0.1042
38.8000 12.9181 -0.0957
38.8200 12.9248 -0.1035
38.8400 12.9316 -0.1086
38.8600 12.9382 -0.0977
38.8800 12.9449 -0.1039
38.9000 12.9516 -0.1084
38.9200 12.9582 -0.1000
38.9400 12.9648 -0.1018
38.9600 12.9715 -0.0996
38.9800 12.9781 -0.1083
39.0000 12.9849 -0.1103
39.0200 12.9916 -0.1024
39.0400 12.9983 -0.1014
39.0600 13.0049 -0.1130
39.0800 13.0116 -0.1071
39.1000 13.0182 -0.1128
39.1200 13.0248 -0.1083
39.1400 13.0314 -0.1042
39.1600 13.0381 -0.1091
39.1800 13.0448 -0.1072
39.2000 13.0515 -0.1051
39.2200 13.0582 -0.1170
39.2400 13.0649 -0.1041
39.2600 13.0716 -0.1016
39.2800 13.0782 -0.1219
39.3000 13.0848 -0.1112
39.3200 13.0914 -0.1028
39.3400 13.0980 -0.1145
39.3600 13.1048 -0.1069
39.3800 13.1115 -0.1082
39.4000 13.1182 -0.1194
39.4200 13.1249 -0.1031
39.4400 13.1315 -0.1110
39.4600 13.1382 -0.1196
39.4800 13.1448 -0.1047
39.5000 13.1514 -0.1136
39.5200 13.1581 -0.1183
39.5400 13.1649 -0.1043
39.5600 13.1716 -0.1198
39.5800 13.1782 -0.1159
39.6000 13.1849 -0.1063
39.6200 13.1916 -0.1171
39.6400 13.1982 -0.1193
39.6600 13.2048 -0.1060
39.6800 13.2115 -0.1197
39.7000 13.2181 -0.1187
39.7200 13.2248 -0.1125
39.7400 13.2315 -0.1197
39.7600 13.2382 -0.1196
39.7800 13.2449 -0.1108
39.8000 13.2516 -0.1233
39.8200 13.2582 -0.1241
39.8400 13.2648 -0.1107
39.8600 13.2714 -0.1232
39.8800 13.2781 -0.1211
39.9000 13.2848 -0.1070
39.9200 13.2915 -0.1273
39.9400 13.2982 -0.1295
39.9600 13.3049 -0.1046
39.9800 13.3116 -0.1302
40.0000 13.3182 -0.1287
40.0200 13.3248 -0.1047
40.0400 13.3314 -0.1280
40.0600 13.3381 -0.1288
40.0800 13.3448 -0.1024
40.1000 13.3515 -0.1345
40.1200 13.3582 -0.1224
40.1400 13.3649 -0.1019
40.1600 13.3716 -0.1304
40.1800 13.3782 -0.1318
40.2000 13.3848 -0.1122
40.2200 13.3915 -0.1251
40.2400 13.3981 -0.1216
40.2600 13.4048 -0.1163
40.2800 13.4115 -0.1276
40.3000 13.4182 -0.1278
40.3200 13.4249 -0.1207
40.3400 13.4316 -0.1199
40.3600 13.4382 -0.1207
40.3800 13.4448 -0.1259
40.4000 13.4514 -0.1238
40.4200 13.4581 -0.1219
40.4400 13.4648 -0.1267
40.4600 13.4715 -0.1252
40.4800 13.4782 -0.1298
40.5000 13.4849 -0.1266
40.5200 13.4916 -0.1211
40.5400 13.4982 -0.1294
40.5600 13.5048 -0.1313
40.5800 13.5114 -0.1203
40.6000 13.5181 -0.1294
40.6200 13.5248 -0.1288
40.6400 13.5315 -0.1218
40.6600 13.5382 -0.1329
40.6800 13.5448 -0.1329
40.7000 13.5515 -0.1229
40.7200 13.5582 -0.1369
40.7400 13.5648 -0.1315
40.7600 13.5714 -0.1267
40.7800 13.5780 -0.1347
40.8000 13.5848 -0.1275
40.8200 13.5915 -0.1206
40.8400 13.5982 -0.1410
40.8600 13.6049 -0.1319
40.8800 13.6116 -0.1213
40.9000 13.6182 -0.1418
40.9200 13.6248 -0.1353
40.9400 13.6314 -0.1199
40.9600 13.6381 -0.1377
40.9800 13.6448 -0.1430
41.0000 13.6515 -0.1223
41.0200 13.6583 -0.1422
41.0400 13.6649 -0.1374
41.0600 13.6716 -0.1227
41.0800 13.6783 -0.1452
41.1000 13.6849 -0.1456
41.1200 13.6915 -0.1141
41.1400 13.6981 -0.1424
41.1600 13.7048 -0.1472
41.1800 13.7115 -0.1154
41.2000 13.7182 -0.1456
41.2200 13.7249 -0.1492
41.2400 13.7316 -0.1153
41.2600 13.7382 -0.1516
41.2800 13.7448 -0.1464
41.3000 13.7514 -0.1166
41.3200 13.7581 -0.1523
41.3400 13.7648 -0.1439
41.3600 13.7715 -0.1218
41.3800 13.7782 -0.1569
41.4000 13.7849 -0.1394
41.4200 13.7916 -0.1248
41.4400 13.7982 -0.1599
41.4600 13.8048 -0.1373
41.4800 13.8114 -0.1295
41.5000 13.8181 -0.1583
41.5200 13.8248 -0.1333
41.5400 13.8315 -0.1300
41.5600 13.8382 -0.1605
41.5800 13.8449 -0.1330
41.6000 13.8516 -0.1376
41.6200 13.8582 -0.1593
41.6400 13.8648 -0.1303
41.6600 13.8714 -0.1349
41.6800 13.8781 -0.1614
41.7000 13.8848 -0.1352
41.7200 13.8915 -0.1436
41.7400 13.8982 -0.1513
41.7600 13.9049 -0.1403
41.7800 13.9116 -0.1474
41.8000 13.9183 -0.1551
41.8200 13.9249 -0.1345
41.8400 13.9315 -0.1445
41.8600 13.9381 -0.1574
41.8800 13.9448 -0.1423
41.9000 13.9515 -0.1473
41.9200 13.9582 -0.1554
41.9400 13.9649 -0.1412
41.9600 13.9716 -0.1463
41.9800 13.9783 -0.1545
42.0000 13.9849 -0.1456
42.0200 13.9914 -0.1461
42.0400 13.9981 -0.1527
42.0600 14.0048 -0.1453
42.0800 14.0115 -0.1493
42.1000 14.0182 -0.1564
42.1200 14.0249 -0.1451
42.1400 14.0315 -0.1562
42.1600 14.0382 -0.1512
42.1800 14.0448 -0.1483
42.2000 14.0514 -0.1547
42.2200 14.0581 -0.1502
42.2400 14.0648 -0.1459
42.2600 14.0715 -0.1652
42.2800 14.0782 -0.1490
42.3000 14.0848 -0.1486
42.3200 14.0915 -0.1604
42.3400 14.0982 -0.1489
42.3600 14.1048 -0.1484
42.3800 14.1115 -0.1649
42.4000 14.1181 -0.1458
42.4200 14.1248 -0.1496
42.4400 14.1315 -0.1660
42.4600 14.1382 -0.1442
42.4800 14.1449 -0.1544
42.5000 14.1516 -0.1654
42.5200 14.1582 -0.1424
42.5400 14.1649 -0.1551
42.5600 14.1715 -0.1680
42.5800 14.1781 -0.1373
42.6000 14.1848 -0.1595
42.6200 14.1915 -0.1653
42.6400 14.1982 -0.1433
42.6600 14.2049 -0.1596
42.6800 14.2116 -0.1660
42.7000 14.2182 -0.1400
42.7200 14.2248 -0.1653
42.7400 14.2315 -0.1666
42.7600 14.2381 -0.1388
42.7800 14.2448 -0.1625
42.8000 14.2515 -0.1698
42.8200 14.2582 -0.1382
42.8400 14.2649 -0.1699
42.8600 14.2715 -0.1684
42.8800 14.2782 -0.1452
42.9000 14.2848 -0.1741
42.9200 14.2914 -0.1618
42.9400 14.2980 -0.1434
42.9600 14.3047 -0.1749
42.9800 14.3115 -0.1689
43.0000 14.3182 -0.1476
43.0200 14.3248 -0.1692
43.0400 14.3315 -0.1670
43.0600 14.3382 -0.1463
43.0800 14.3448 -0.1727
43.1000 14.3514 -0.1749
43.1200 14.3581 -0.1444
43.1400 14.3648 -0.1657
43.1600 14.3715 -0.1713
43.1800 14.3782 -0.1564
43.2000 14.3849 -0.1672
43.2200 14.3916 -0.1724
43.2400 14.3983 -0.1559
43.2600 14.4049 -0.1672
43.2800 14.4115 -0.1673
43.3000 14.4182 -0.1613
43.3200 14.4248 -0.1697
43.3400 14.4315 -0.1622
43.3600 14.4382 -0.1587
43.3800 14.4449 -0.1724
43.4000 14.4516 -0.1673
43.4200 14.4582 -0.1588
43.4400 14.4649 -0.1694
43.4600 14.4715 -0.1752
43.4800 14.4781 -0.1586
43.5000 14.4848 -0.1741
43.5200 14.4915 -0.1729
43.5400 14.4982 -0.1615
43.5600 14.5049 -0.1744
43.5800 14.5115 -0.1713
43.6000 14.5182 -0.1690
43.6200 14.5248 -0.1687
43.6400 14.5314 -0.1672
43.6600 14.5381 -0.1668
43.6800 14.5448 -0.1811
43.7000 14.5515 -0.1692
43.7200 14.5582 -0.1693
43.7400 14.5649 -0.1773
43.7600 14.5715 -0.1695
43.7800 14.5782 -0.1727
43.8000 14.5849 -0.1853
43.8200 14.5915 -0.1688
43.8400 14.5981 -0.1686
43.8600 14.6048 -0.1809
43.8800 14.6115 -0.1832
43.9000 14.6182 -0.1708
43.9200 14.6249 -0.1702
43.9400 14.6316 -0.1802
43.9600 14.6383 -0.1792
43.9800 14.6449 -0.1695
44.0000 14.6515 -0.1755
44.0200 14.6581 -0.1854
44.0400 14.6648 -0.1731
44.0600 14.6715 -0.1694
44.0800 14.6782 -0.1833
44.1000 14.6849 -0.1917
44.1200 14.6916 -0.1720
44.1400 14.6982 -0.1667
44.1600 14.7049 -0.1826
44.1800 14.7114 -0.1951
44.2000 14.7181 -0.1714
44.2200 14.7247 -0.1687
44.2400 14.7315 -0.1890
44.2600 14.7382 -0.1808
44.2800 14.7449 -0.1737
44.3000 14.7515 -0.1938
44.3200 14.7582 -0.1780
44.3400 14.7649 -0.1698
44.3600 14.7715 -0.1876
44.3800 14.7781 -0.1883
44.4000 14.7848 -0.1766
44.4200 14.7915 -0.1872
44.4400 14.7982 -0.1819
44.4600 14.8048 -0.1815
44.4800 14.8115 -0.1880
44.5000 14.8182 -0.1855
44.5200 14.8249 -0.1878
44.5400 14.8315 -0.1791
44.5600 14.8381 -0.1773
44.5800 14.8448 -0.1935
44.6000 14.8515 -0.1925
44.6200 14.8582 -0.1695
44.6400 14.8649 -0.1900
44.6600 14.8716 -0.2007
44.6800 14.8782 -0.1699
44.7000 14.8849 -0.1872
44.7200 14.8915 -0.2013
44.7400 14.8981 -0.1739
44.7600 14.9048 -0.1820
44.7800 14.9115 -0.1919
44.8000 14.9182 -0.1883
44.8200 14.9249 -0.1860
44.8400 14.9316 -0.1909
44.8600 14.9383 -0.1869
44.8800 14.9449 -0.1894
44.9000 14.9515 -0.1907
44.9200 14.9581 -0.1959
44.9400 14.9648 -0.1874
44.9600 14.9715 -0.1837
44.9800 14.9782 -0.1953
45.0000 14.9849 -0.2010
45.0200 14.9915 -0.1817
45.0400 14.9982 -0.1890
45.0600 15.0049 -0.2008
45.0800 15.0115 -0.1941
45.1000 15.0181 -0.1878
45.1200 15.0247 -0.1875
45.1400 15.0315 -0.2049
45.1600 15.0382 -0.1934
45.1800 15.0449 -0.1832
45.2000 15.0515 -0.2004
45.2200 15.0582 -0.2068
45.2400 15.0649 -0.1816
45.2600 15.0715 -0.1941
45.2800 15.0781 -0.2057
45.3000 15.0848 -0.1917
45.3200 15.0915 -0.1915
45.3400 15.0982 -0.2083
45.3600 15.1049 -0.1937
45.3800 15.1116 -0.1900
45.4000 15.1183 -0.2048
45.4200 15.1249 -0.2025
45.4400 15.1315 -0.1954
45.4600 15.1381 -0.2032
45.4800 15.1448 -0.1991
45.5000 15.1515 -0.1988
45.5200 15.1582 -0.2066
45.5400 15.1649 -0.1950
45.5600 15.1716 -0.2067
45.5800 15.1782 -0.2067
45.6000 15.1849 -0.1946
45.6200 15.1915 -0.2047
45.6400 15.1981 -0.2120
45.6600 15.2047 -0.1966
45.6800 15.2115 -0.1976
45.7000 15.2182 -0.2163
45.7200 15.2249 -0.2092
45.7400 15.2315 -0.1979
45.7600 15.2382 -0.2054
45.7800 15.2449 -0.2077
45.8000 15.2515 -0.2173
45.8200 15.2581 -0.2063
45.8400 15.2648 -0.1996
45.8600 15.2715 -0.2150
45.8800 15.2782 -0.2100
45.9000 15.2848 -0.2081
45.9200 15.2915 -0.2163
45.9400 15.2981 -0.2065
45.9600 15.3048 -0.2014
45.9800 15.3115 -0.2206
46.0000 15.3182 -0.2142
46.0200 15.3248 -0.2067
46.0400 15.3315 -0.2165
46.0600 15.3382 -0.2005
46.0800 15.3449 -0.2107
46.1000 15.3516 -0.2238
46.1200 15.3583 -0.2077
46.1400 15.3649 -0.2126
46.1600 15.3715 -0.2144
46.1800 15.3781 -0.2060
46.2000 15.3848 -0.2128
46.2200 15.3915 -0.2346
46.2400 15.3982 -0.2098
46.2600 15.4049 -0.1970
46.2800 15.4116 -0.2286
46.3000 15.4183 -0.2202
46.3200 15.4249 -0.2131
46.3400 15.4315 -0.2195
46.3600 15.4381 -0.2107
46.3800 15.4448 -0.2141
46.4000 15.4515 -0.2254
46.4200 15.4582 -0.2175
46.4400 15.4648 -0.2132
46.4600 15.4715 -0.2226
46.4800 15.4782 -0.2148
46.5000 15.4849 -0.2206
46.5200 15.4915 -0.2245
46.5400 15.4981 -0.2182
46.5600 15.5047 -0.2166
46.5800 15.5114 -0.2248
46.6000 15.5181 -0.2214
46.6200 15.5248 -0.2142
46.6400 15.5315 -0.2278
46.6600 15.5382 -0.2253
46.6800 15.5449 -0.2191
46.7000 15.5515 -0.2307
46.7200 15.5581 -0.2267
46.7400 15.5648 -0.2126
46.7600 15.5715 -0.2292
46.7800 15.5782 -0.2292
46.8000 15.5849 -0.2192
46.8200 15.5916 -0.2295
46.8400 15.5983 -0.2334
46.8600 15.6049 -0.2142
46.8800 15.6115 -0.2294
46.9000 15.6181 -0.2359
46.9200 15.6248 -0.2259
46.9400 15.6315 -0.2220
46.9600 15.6382 -0.2286
46.9800 15.6449 -0.2340
47.0000 15.6516 -0.2291
47.0200 15.6583 -0.2321
47.0400 15.6649 -0.2319
47.0600 15.6715 -0.2292
47.0800 15.6781 -0.2412
47.1000 15.6847 -0.2313
47.1200 15.6914 -0.2280
47.1400 15.6981 -0.2382
47.1600 15.7048 -0.2305
47.1800 15.7115 -0.2355
47.2000 15.7182 -0.2386
47.2200 15.7249 -0.2337
47.2400 15.7315 -0.2340
47.2600 15.7381 -0.2437
47.2800 15.7447 -0.2294
47.3000 15.7514 -0.2293
47.3200 15.7582 -0.2461
47.3400 15.7649 -0.2428
47.3600 15.7715 -0.2265
47.3800 15.7782 -0.2407
47.4000 15.7848 -0.2462
47.4200 15.7915 -0.2354
47.4400 15.7981 -0.2392
47.4600 15.8048 -0.2451
47.4800 15.8115 -0.2319
47.5000 15.8182 -0.2483
47.5200 15.8249 -0.2502
47.5400 15.8316 -0.2257
47.5600 15.8383 -0.2448
47.5800 15.8449 -0.2607
47.6000 15.8516 -0.2321
47.6200 15.8582 -0.2382
47.6400 15.8648 -0.2535
47.6600 15.8715 -0.2338
47.6800 15.8782 -0.2542
47.7000 15.8849 -0.2495
47.7200 15.8916 -0.2247
47.7400 15.8982 -0.2570
47.7600 15.9049 -0.2606
47.7800 15.9115 -0.2309
47.8000 15.9181 -0.2479
47.8200 15.9247 -0.2487
47.8400 15.9314 -0.2463
47.8600 15.9382 -0.2483
47.8800 15.9448 -0.2527
47.9000 15.9515 -0.2487
47.9200 15.9582 -0.2479
47.9400 15.9648 -0.2467
47.9600 15.9715 -0.2494
47.9800 15.9781 -0.2477
48.0000 15.9847 -0.2501
48.0200 15.9914 -0.2532
48.0400 15.9981 -0.2467
48.0600 16.0048 -0.2440
48.0800 16.0115 -0.2619
48.1000 16.0182 -0.2511
48.1200 16.0249 -0.2477
48.1400 16.0316 -0.2555
48.1600 16.0382 -0.2566
48.1800 16.0448 -0.2570
48.2000 16.0515 -0.2470
48.2200 16.0582 -0.2541
48.2400 16.0649 -0.2610
48.2600 16.0716 -0.2509
48.2800 16.0782 -0.2475
48.3000 16.0849 -0.2638
48.3200 16.0915 -0.2522
48.3400 16.0981 -0.2576
48.3600 16.1048 -0.2585
48.3800 16.1115 -0.2439
48.4000 16.1182 -0.2647
48.4200 16.1249 -0.2713
48.4400 16.1315 -0.2402
48.4600 16.1382 -0.2596
48.4800 16.1449 -0.2665
48.5000 16.1516 -0.2513
48.5200 16.1582 -0.2600
48.5400 16.1648 -0.2641
48.5600 16.1715 -0.2463
48.5800 16.1781 -0.2683
48.6000 16.1848 -0.2683
48.6200 16.1915 -0.2382
48.6400 16.1982 -0.2658
48.6600 16.2049 -0.2722
48.6800 16.2116 -0.2455
48.7000 16.2181 -0.2624
48.7200 16.2247 -0.2656
48.7400 16.2314 -0.2517
48.7600 16.2381 -0.2719
48.7800 16.2449 -0.2635
48.8000 16.2515 -0.2476
48.8200 16.2582 -0.2711
48.8400 16.2649 -0.2720
48.8600 16.2715 -0.2502
48.8800 16.2781 -0.2679
48.9000 16.2848 -0.2682
48.9200 16.2915 -0.2558
48.9400 16.2982 -0.2675
48.9600 16.3049 -0.2668
48.9800 16.3115 -0.2542
49.0000 16.3182 -0.2728
49.0200 16.3249 -0.2739
49.0400 16.3316 -0.2508
49.0600 16.3382 -0.2712
49.0800 16.3448 -0.2784
49.1000 16.3515 -0.2520
49.1200 16.3582 -0.2707
49.1400 16.3649 -0.2802
49.1600 16.3715 -0.2536
49.1800 16.3782 -0.2714
49.2000 16.3849 -0.2785
49.2200 16.3916 -0.2518
49.2400 16.3982 -0.2719
49.2600 16.4048 -0.2834
49.2800 16.4114 -0.2513
49.3000 16.4182 -0.2734
49.3200 16.4249 -0.2824
49.3400 16.4316 -0.2628
49.3600 16.4382 -0.2695
49.3800 16.4449 -0.2801
49.4000 16.4515 -0.2611
49.4200 16.4581 -0.2815
49.4400 16.4647 -0.2751
49.4600 16.4714 -0.2553
49.4800 16.4781 -0.2818
49.5000 16.4848 -0.2820
49.5200 16.4915 -0.2545
49.5400 16.4981 -0.2781
49.5600 16.5048 -0.2831
49.5800 16.5115 -0.2670
49.6000 16.5182 -0.2732
49.6200 16.5248 -0.2780
49.6400 16.5315 -0.2728
49.6600 16.5382 -0.2773
49.6800 16.5449 -0.2718
49.7000 16.5516 -0.2739
49.7200 16.5583 -0.2834
49.7400 16.5649 -0.2755
49.7600 16.5716 -0.2756
49.7800 16.5782 -0.2760
49.8000 16.5848 -0.2768
49.8200 16.5915 -0.2770
49.8400 16.5982 -0.2730
49.8600 16.6049 -0.2844
49.8800 16.6116 -0.2836
49.9000 16.6182 -0.2746
49.9200 16.6249 -0.2823
49.9400 16.6315 -0.2763
49.9600 16.6382 -0.2869
49.9800 16.6448 -0.2836
50.0000 16.6514 -0.2766
50.0200 16.6581 -0.2817
50.0400 16.6648 -0.2857
50.0600 16.6715 -0.2757
50.0800 16.6782 -0.2856
50.1000 16.6849 -0.2888
50.1200 16.6915 -0.2802
50.1400 16.6982 -0.2893
50.1600 16.7047 -0.2831
50.1800 16.7114 -0.2795
50.2000 16.7181 -0.2933
50.2200 16.7248 -0.2839
50.2400 16.7315 -0.2792
50.2600 16.7382 -0.2942
50.2800 16.7449 -0.2860
50.3000 16.7516 -0.2882
50.3200 16.7582 -0.2889
50.3400 16.7648 -0.2864
50.3600 16.7714 -0.2867
50.3800 16.7781 -0.2927
50.4000 16.7848 -0.2839
50.4200 16.7915 -0.2936
50.4400 16.7982 -0.2890
50.4600 16.8049 -0.2894
50.4800 16.8116 -0.2939
50.5000 16.8182 -0.2879
50.5200 16.8248 -0.2952
50.5400 16.8315 -0.2930
50.5600 16.8382 -0.2892
50.5800 16.8449 -0.3008
50.6000 16.8516 -0.2930
50.6200 16.8582 -0.2888
50.6400 16.8649 -0.2980
50.6600 16.8716 -0.2986
50.6800 16.8782 -0.2916
50.7000 16.8848 -0.3002
50.7200 16.8914 -0.2922
50.7400 16.8981 -0.2933
50.7600 16.9048 -0.3067
50.7800 16.9115 -0.2915
50.8000 16.9182 -0.2972
50.8200 16.9249 -0.3023
50.8400 16.9315 -0.2924
50.8600 16.9382 -0.3037
50.8800 16.9447 -0.2978
50.9000 16.9514 -0.2922
50.9200 16.9581 -0.3096
50.9400 16.9648 -0.3004
50.9600 16.9715 -0.3024
50.9800 16.9781 -0.3085
51.0000 16.9848 -0.3010
51.0200 16.9915 -0.3036
51.0400 16.9982 -0.3079
51.0600 17.0048 -0.2945
51.0800 17.0114 -0.3092
51.1000 17.0182 -0.3138
51.1200 17.0249 -0.2942
51.1400 17.0316 -0.3138
51.1600 17.0382 -0.3162
51.1800 17.0449 -0.2999
51.2000 17.0516 -0.3174
51.2200 17.0582 -0.3084
51.2400 17.0648 -0.2992
51.2600 17.0714 -0.3208
51.2800 17.0781 -0.3148
51.3000 17.0848 -0.3005
51.3200 17.0916 -0.3198
51.3400 17.0982 -0.3139
51.3600 17.1049 -0.3009
51.3800 17.1116 -0.3308
51.4000 17.1182 -0.3085
51.4200 17.1248 -0.3010
51.4400 17.1314 -0.3275
51.4600 17.1381 -0.3110
51.4800 17.1449 -0.3091
51.5000 17.1515 -0.3272
51.5200 17.1582 -0.3085
51.5400 17.1649 -0.3095
51.5600 17.1716 -0.3300
51.5800 17.1782 -0.3102
51.6000 17.1848 -0.3114
51.6200 17.1914 -0.3310
51.6400 17.1981 -0.3089
51.6600 17.2048 -0.3181
51.6800 17.2115 -0.3287
51.7000 17.2182 -0.3119
51.7200 17.2248 -0.3201
51.7400 17.2315 -0.3295
51.7600 17.2382 -0.3152
51.7800 17.2448 -0.3188
51.8000 17.2514 -0.3258
51.8200 17.2581 -0.3174
51.8400 17.2649 -0.3236
51.8600 17.2716 -0.3247
51.8800 17.2782 -0.3204
51.9000 17.2849 -0.3270
51.9200 17.2916 -0.3302
51.9400 17.2982 -0.3220
51.9600 17.3048 -0.3226
51.9800 17.3114 -0.3253
52.0000 17.3182 -0.3263
52.0200 17.3249 -0.3199
52.0400 17.3316 -0.3267
52.0600 17.3382 -0.3251
52.0800 17.3449 -0.3294
52.1000 17.3515 -0.3229
52.1200 17.3582 -0.3310
52.1400 17.3648 -0.3289
52.1600 17.3714 -0.3250
52.1800 17.3781 -0.3284
52.2000 17.3848 -0.3254
52.2200 17.3915 -0.3273
52.2400 17.3982 -0.3304
52.2600 17.4049 -0.3255
52.2800 17.4115 -0.3336
52.3000 17.4182 -0.3330
52.3200 17.4248 -0.3207
52.3400 17.4314 -0.3308
52.3600 17.4381 -0.3416
52.3800 17.4448 -0.3246
52.4000 17.4515 -0.3273
52.4200 17.4582 -0.3410
52.4400 17.4649 -0.3255
52.4600 17.4716 -0.3351
52.4800 17.4782 -0.3440
52.5000 17.4848 -0.3274
52.5200 17.4914 -0.3219
52.5400 17.4981 -0.3435
52.5600 17.5049 -0.3309
52.5800 17.5115 -0.3357
52.6000 17.5182 -0.3390
52.6200 17.5249 -0.3257
52.6400 17.5316 -0.3333
52.6600 17.5382 -0.3449
52.6800 17.5448 -0.3317
52.7000 17.5514 -0.3330
52.7200 17.5581 -0.3406
52.7400 17.5648 -0.3293
52.7600 17.5715 -0.3377
52.7800 17.5782 -0.3450
52.8000 17.5849 -0.3297
52.8200 17.5916 -0.3368
52.8400 17.5982 -0.3471
52.8600 17.6048 -0.3320
52.8800 17.6114 -0.3390
52.9000 17.6181 -0.3408
52.9200 17.6248 -0.3370
52.9400 17.6316 -0.3354
52.9600 17.6382 -0.3476
52.9800 17.6449 -0.3387
53.0000 17.6515 -0.3367
53.0200 17.6582 -0.3428
53.0400 17.6648 -0.3406
53.0600 17.6714 -0.3399
53.0800 17.6781 -0.3436
53.1000 17.6848 -0.3415
53.1200 17.6915 -0.3458
53.1400 17.6982 -0.3345
53.1600 17.7048 -0.3423
53.1800 17.7115 -0.3500
53.2000 17.7182 -0.3428
53.2200 17.7248 -0.3375
53.2400 17.7314 -0.3512
53.2600 17.7381 -0.3459
53.2800 17.7448 -0.3405
53.3000 17.7515 -0.3569
53.3200 17.7582 -0.3455
53.3400 17.7650 -0.3395
53.3600 17.7716 -0.3582
53.3800 17.7783 -0.3433
53.4000 17.7848 -0.3370
53.4200 17.7914 -0.3545
53.4400 17.7981 -0.3481
53.4600 17.8048 -0.3471
53.4800 17.8116 -0.3517
53.5000 17.8183 -0.3438
53.5200 17.8249 -0.3457
53.5400 17.8316 -0.3573
53.5600 17.8382 -0.3430
53.5800 17.8448 -0.3501
53.6000 17.8514 -0.3572
53.6200 17.8581 -0.3432
53.6400 17.8648 -0.3546
53.6600 17.8715 -0.3627
53.6800 17.8782 -0.3468
53.7000 17.8848 -0.3550
53.7200 17.8915 -0.3571
53.7400 17.8982 -0.3498
53.7600 17.9048 -0.3566
53.7800 17.9114 -0.3586
53.8000 17.9180 -0.3445
53.8200 17.9247 -0.3591
53.8400 17.9315 -0.3669
53.8600 17.9382 -0.3538
53.8800 17.9448 -0.3542
53.9000 17.9515 -0.3643
53.9200 17.9582 -0.3623
53.9400 17.9648 -0.3515
53.9600 17.9714 -0.3647
53.9800 17.9781 -0.3648
54.0000 17.9848 -0.3553
54.0200 17.9915 -0.3664
54.0400 17.9982 -0.3615
54.0600 18.0049 -0.3595
54.0800 18.0116 -0.3734
54.1000 18.0182 -0.3559
54.1200 18.0248 -0.3598
54.1400 18.0315 -0.3770
54.1600 18.0381 -0.3601
54.1800 18.0448 -0.3568
54.2000 18.0515 -0.3823
54.2200 18.0582 -0.3600
54.2400 18.0649 -0.3635
54.2600 18.0716 -0.3788
54.2800 18.0783 -0.3620
54.3000 18.0849 -0.3685
54.3200 18.0914 -0.3759
54.3400 18.0981 -0.3646
54.3600 18.1048 -0.3682
54.3800 18.1115 -0.3817
54.4000 18.1182 -0.3659
54.4200 18.1249 -0.3683
54.4400 18.1316 -0.3823
54.4600 18.1382 -0.3683
54.4800 18.1448 -0.3742
54.5000 18.1514 -0.3793
54.5200 18.1581 -0.3707
54.5400 18.1648 -0.3742
54.5600 18.1715 -0.3790
54.5800 18.1782 -0.3848
54.6000 18.1848 -0.3708
54.6200 18.1915 -0.3792
54.6400 18.1982 -0.3813
54.6600 18.2048 -0.3756
54.6800 18.2115 -0.3796
54.7000 18.2181 -0.3849
54.7200 18.2248 -0.3744
54.7400 18.2315 -0.3868
54.7600 18.2382 -0.3890
54.7800 18.2449 -0.3697
54.8000 18.2516 -0.3822
54.8200 18.2583 -0.3951
54.8400 18.2649 -0.3730
54.8600 18.2715 -0.3871
54.8800 18.2781 -0.3947
54.9000 18.2848 -0.3714
54.9200 18.2916 -0.3900
54.9400 18.2982 -0.3966
54.9600 18.3049 -0.3720
54.9800 18.3116 -0.3944
55.0000 18.3182 -0.3980
55.0200 18.3248 -0.3649
55.0400 18.3315 -0.3993
55.0600 18.3382 -0.3982
55.0800 18.3448 -0.3688
55.1000 18.3515 -0.4036
55.1200 18.3582 -0.3971
55.1400 18.3649 -0.3609
55.1600 18.3715 -0.4138
55.1800 18.3782 -0.3992
55.2000 18.3848 -0.3690
55.2200 18.3914 -0.4079
55.2400 18.3981 -0.3900
55.2600 18.4047 -0.3700
55.2800 18.4115 -0.4197
55.3000 18.4182 -0.3907
55.3200 18.4249 -0.3775
55.3400 18.4316 -0.4142
55.3600 18.4382 -0.3870
55.3800 18.4448 -0.3889
55.4000 18.4514 -0.4179
55.4200 18.4581 -0.3830
55.4400 18.4648 -0.3870
55.4600 18.4715 -0.4216
55.4800 18.4783 -0.3852
55.5000 18.4849 -0.3872
55.5200 18.4916 -0.4209
55.5400 18.4982 -0.3890
55.5600 18.5048 -0.3914
55.5800 18.5115 -0.4196
55.6000 18.5181 -0.3878
55.6200 18.5248 -0.3998
55.6400 18.5316 -0.4159
55.6600 18.5382 -0.3930
55.6800 18.5449 -0.3996
55.7000 18.5515 -0.4175
55.7200 18.5582 -0.3951
55.7400 18.5648 -0.4076
55.7600 18.5714 -0.4143
55.7800 18.5781 -0.3935
55.8000 18.5848 -0.4060
55.8200 18.5915 -0.4167
55.8400 18.5982 -0.3950
55.8600 18.6049 -0.4064
55.8800 18.6116 -0.4166
55.9000 18.6182 -0.3996
55.9200 18.6248 -0.4035
55.9400 18.6314 -0.4171
55.9600 18.6381 -0.4036
55.9800 18.6448 -0.4066
56.0000 18.6515 -0.4188
56.0200 18.6582 -0.4087
56.0400 18.6649 -0.4083
56.0600 18.6715 -0.4164
56.0800 18.6782 -0.4112
56.1000 18.6848 -0.4122
56.1200 18.6914 -0.4193
56.1400 18.6981 -0.4060
56.1600 18.7048 -0.4101
56.1800 18.7115 -0.4350
56.2000 18.7182 -0.4099
56.2200 18.7249 -0.4004
56.2400 18.7316 -0.4366
56.2600 18.7383 -0.4125
56.2800 18.7449 -0.4049
56.3000 18.7515 -0.4383
56.3200 18.7581 -0.4128
56.3400 18.7648 -0.4074
56.3600 18.7715 -0.4422
56.3800 18.7782 -0.4123
56.4000 18.7849 -0.4091
56.4200 18.7916 -0.4460
56.4400 18.7983 -0.4129
56.4600 18.8049 -0.4114
56.4800 18.8115 -0.4422
56.5000 18.8181 -0.4215
56.5200 18.8248 -0.4049
56.5400 18.8315 -0.4308
56.5600 18.8382 -0.4359
56.5800 18.8449 -0.4186
56.6000 18.8515 -0.4181
56.6200 18.8582 -0.4322
56.6400 18.8648 -0.4242
56.6600 18.8714 -0.4240
56.6800 18.8781 -0.4264
56.7000 18.8848 -0.4252
56.7200 18.8915 -0.4251
56.7400 18.8982 -0.4287
56.7600 18.9048 -0.4209
56.7800 18.9115 -0.4276
56.8000 18.9182 -0.4337
56.8200 18.9249 -0.4256
56.8400 18.9315 -0.4245
56.8600 18.9381 -0.4303
56.8800 18.9448 -0.4240
56.9000 18.9515 -0.4294
56.9200 18.9582 -0.4309
56.9400 18.9649 -0.4267
56.9600 18.9716 -0.4261
56.9800 18.9783 -0.4308
57.0000 18.9849 -0.4224
57.0200 18.9915 -0.4198
57.0400 18.9981 -0.4386
57.0600 19.0048 -0.4325
57.0800 19.0115 -0.4153
57.1000 19.0182 -0.4304
57.1200 19.0249 -0.4389
57.1400 19.0316 -0.4226
57.1600 19.0382 -0.4329
57.1800 19.0449 -0.4306
57.2000 19.0515 -0.4255
57.2200 19.0581 -0.4289
57.2400 19.0648 -0.4360
57.2600 19.0715 -0.4236
57.2800 19.0782 -0.4321
57.3000 19.0849 -0.4301
57.3200 19.0915 -0.4303
57.3400 19.0982 -0.4346
57.3600 19.1049 -0.4372
57.3800 19.1115 -0.4318
57.4000 19.1180 -0.4350
57.4200 19.1247 -0.4343
57.4400 19.1314 -0.4350
57.4600 19.1381 -0.4422
57.4800 19.1448 -0.4313
57.5000 19.1515 -0.4318
57.5200 19.1582 -0.4420
57.5400 19.1648 -0.4448
57.5600 19.1714 -0.4359
57.5800 19.1781 -0.4385
57.6000 19.1848 -0.4395
57.6200 19.1915 -0.4399
57.6400 19.1982 -0.4410
57.6600 19.2049 -0.4450
57.6800 19.2116 -0.4411
57.7000 19.2183 -0.4451
57.7200 19.2249 -0.4425
57.7400 19.2315 -0.4479
57.7600 19.2382 -0.4451
57.7800 19.2449 -0.4488
57.8000 19.2515 -0.4487
57.8200 19.2582 -0.4488
57.8400 19.2649 -0.4530
57.8600 19.2716 -0.4514
57.8800 19.2783 -0.4516
57.9000 19.2849 -0.4561
57.9200 19.2915 -0.4521
57.9400 19.2981 -0.4495
57.9600 19.3047 -0.4586
57.9800 19.3115 -0.4533
58.0000 19.3182 -0.4550
58.0200 19.3249 -0.4664
58.0400 19.3315 -0.4541
58.0600 19.3382 -0.4561
58.0800 19.3448 -0.4726
58.1000 19.3514 -0.4578
58.1200 19.3581 -0.4564
58.1400 19.3648 -0.4729
58.1600 19.3715 -0.4620
58.1800 19.3782 -0.4541
58.2000 19.3849 -0.4799
58.2200 19.3915 -0.4630
58.2400 19.3982 -0.4623
58.2600 19.4049 -0.4794
58.2800 19.4115 -0.4645
58.3000 19.4181 -0.4656
58.3200 19.4248 -0.4852
58.3400 19.4315 -0.4656
58.3600 19.4382 -0.4684
58.3800 19.4449 -0.4875
58.4000 19.4516 -0.4628
58.4200 19.4583 -0.4717
58.4400 19.4649 -0.4940
58.4600 19.4715 -0.4636
58.4800 19.4781 -0.4717
58.5000 19.4848 -0.4935
58.5200 19.4915 -0.4659
58.5400 19.4982 -0.4820
58.5600 19.5049 -0.4937
58.5800 19.5116 -0.4693
58.6000 19.5182 -0.4812
58.6200 19.5249 -0.4960
58.6400 19.5315 -0.4733
58.6600 19.5381 -0.4874
58.6800 19.5448 -0.4892
58.7000 19.5515 -0.4739
58.7200 19.5582 -0.4903
58.7400 19.5649 -0.4911
58.7600 19.5715 -0.4820
58.7800 19.5782 -0.4919
58.8000 19.5849 -0.4890
58.8200 19.5915 -0.4957
58.8400 19.5981 -0.4908
58.8600 19.6047 -0.4853
58.8800 19.6114 -0.4924
58.9000 19.6181 -0.4944
58.9200 19.6248 -0.4859
58.9400 19.6315 -0.4964
58.9600 19.6382 -0.4951
58.9800 19.6449 -0.4886
59.0000 19.6515 -0.4924
59.0200 19.6581 -0.4927
59.0400 19.6648 -0.4913
59.0600 19.6715 -0.4978
59.0800 19.6782 -0.5024
59.1000 19.6849 -0.4931
59.1200 19.6916 -0.4943
59.1400 19.6982 -0.4987
59.1600 19.7049 -0.4994
59.1800 19.7115 -0.4945
59.2000 19.7181 -0.4994
59.2200 19.7247 -0.4966
59.2400 19.7315 -0.4967
59.2600 19.7382 -0.4973
59.2800 19.7449 -0.4960
59.3000 19.7516 -0.4975
59.3200 19.7582 -0.5030
59.3400 19.7649 -0.4981
59.3600 19.7715 -0.4958
59.3800 19.7781 -0.4982
59.4000 19.7847 -0.4996
59.4200 19.7914 -0.4983
59.4400 19.7982 -0.5022
59.4600 19.8049 -0.4948
59.4800 19.8116 -0.5010
59.5000 19.8182 -0.5085
59.5200 19.8249 -0.4995
59.5400 19.8315 -0.5044
59.5600 19.8381 -0.4998
59.5800 19.8447 -0.4960
59.6000 19.8514 -0.5041
59.6200 19.8582 -0.5078
59.6400 19.8648 -0.5001
59.6600 19.8715 -0.5005
59.6800 19.8782 -0.5000
59.7000 19.8849 -0.5036
59.7200 19.8915 -0.5100
59.7400 19.8981 -0.5080
59.7600 19.9048 -0.5037
59.7800 19.9115 -0.5040
59.8000 19.9182 -0.5056
59.8200 19.9249 -0.5141
59.8400 19.9316 -0.5067
59.8600 19.9383 -0.5074
59.8800 19.9449 -0.5144
59.9000 19.9516 -0.5102
59.9200 19.9582 -0.5073
59.9400 19.9648 -0.5197
59.9600 19.9715 -0.5085
59.9800 19.9782 -0.5095
60.0000 19.9849 -0.5226
60.0200 19.9916 -0.5087
60.0400 19.9982 -0.5099
60.0600 20.0049 -0.5232
60.0800 20.0115 -0.5140
60.1000 20.0181 -0.5037
60.1200 20.0247 -0.5203
60.1400 20.0314 -0.5234
60.1600 20.0382 -0.5081
60.1800 20.0449 -0.5148
60.2000 20.0515 -0.5289
60.2200 20.0582 -0.5103
60.2400 20.0649 -0.5135
60.2600 20.0715 -0.5262
60.2800 20.0781 -0.5142
60.3000 20.0848 -0.5169
60.3200 20.0914 -0.5286
60.3400 20.0982 -0.5109
60.3600 20.1048 -0.5211
60.3800 20.1115 -0.5239
60.4000 20.1182 -0.5131
60.4200 20.1249 -0.5351
60.4400 20.1315 -0.5238
60.4600 20.1381 -0.5068
60.4800 20.1448 -0.5398
60.5000 20.1515 -0.5257
60.5200 20.1582 -0.5123
60.5400 20.1649 -0.5434
60.5600 20.1716 -0.5247
60.5800 20.1783 -0.5153
60.6000 20.1849 -0.5416
60.6200 20.1915 -0.5253
60.6400 20.1981 -0.5248
60.6600 20.2048 -0.5393
60.6800 20.2115 -0.5192
60.7000 20.2182 -0.5321
60.7200 20.2249 -0.5420
60.7400 20.2316 -0.5256
60.7600 20.2383 -0.5330
60.7800 20.2449 -0.5410
60.8000 20.2515 -0.5274
60.8200 20.2581 -0.5430
60.8400 20.2648 -0.5408
60.8600 20.2715 -0.5301
60.8800 20.2782 -0.5430
60.9000 20.2848 -0.5452
60.9200 20.2915 -0.5335
60.9400 20.2982 -0.5320
60.9600 20.3049 -0.4921
60.9800 20.3115 -0.4234
61.0000 20.3181 -0.3558
61.0200 20.3247 -0.3069
61.0400 20.3314 -0.2425
61.0600 20.3381 -0.1854
61.0800 20.3448 -0.1451
61.1000 20.3515 -0.0985
61.1200 20.3582 -0.0607
61.1400 20.3649 -0.0419
61.1600 20.3715 -0.0271
61.1800 20.3781 -0.0102
61.2000 20.3848 -0.0053
61.2200 20.3915 0.0106
61.2400 20.3982 0.0185
61.2600 20.4049 0.0402
61.2800 20.4116 0.0715
61.3000 20.4183 0.0977
61.3200 20.4249 0.1211
61.3400 20.4315 0.1557
61.3600 20.4381 0.1801
61.3800 20.4448 0.2008
61.4000 20.4515 0.2295
61.4200 20.4582 0.2661
61.4400 20.4649 0.2803
61.4600 20.4716 0.3105
61.4800 20.4782 0.3361
61.5000 20.4849 0.3492
61.5200 20.4915 0.3740
61.5400 20.4981 0.4104
61.5600 20.5047 0.4271
61.5800 20.5114 0.4468
61.6000 20.5181 0.4876
61.6200 20.5248 0.5035
61.6400 20.5315 0.5296
61.6600 20.5382 0.5600
61.6800 20.5449 0.5842
61.7000 20.5515 0.6062
61.7200 20.5581 0.6392
61.7400 20.5647 0.6642
61.7600 20.5714 0.6926
61.7800 20.5781 0.7185
61.8000 20.5848 0.7398
61.8200 20.5915 0.7677
61.8400 20.5982 0.8006
61.8600 20.6048 0.8203
61.8800 20.6115 0.8450
61.9000 20.6181 0.8725
61.9200 20.6248 0.9012
61.9400 20.6315 0.9164
61.9600 20.6382 0.9427
61.9800 20.6449 0.9383
62.0000 20.6516 0.9203
62.0200 20.6583 0.9214
62.0400 20.6649 0.9213
62.0600 20.6716 0.8963
62.0800 20.6782 0.9189
62.1000 20.6848 0.9192
62.1200 20.6915 0.8923
62.1400 20.6982 0.9125
62.1600 20.7049 0.9140
62.1800 20.7116 0.9044
62.2000 20.7182 0.9211
62.2200 20.7249 0.9218
62.2400 20.7315 0.9062
62.2600 20.7381 0.9226
62.2800 20.7448 0.9209
62.3000 20.7514 0.9061
62.3200 20.7581 0.9178
62.3400 20.7648 0.9157
62.3600 20.7715 0.9031
62.3800 20.7782 0.9211
62.4000 20.7848 0.9146
62.4200 20.7915 0.9069
62.4400 20.7981 0.9221
62.4600 20.8047 0.9205
62.4800 20.8114 0.9110
62.5000 20.8181 0.9184
62.5200 20.8248 0.9118
62.5400 20.8315 0.9014
62.5600 20.8382 0.9161
62.5800 20.8449 0.9202
62.6000 20.8516 0.9053
62.6200 20.8582 0.9170
62.6400 20.8648 0.9206
62.6600 20.8715 0.9061
62.6800 20.8782 0.9184
62.7000 20.8849 0.9208
62.7200 20.8916 0.9036
62.7400 20.8983 0.9090
62.7600 20.9049 0.9165
62.7800 20.9116 0.8937
62.8000 20.9181 0.9125
62.8200 20.9248 0.9220
62.8400 20.9314 0.8922
62.8600 20.9382 0.9020
62.8800 20.9449 0.9132
62.9000 20.9515 0.8906
62.9200 20.9582 0.9050
62.9400 20.9649 0.9012
62.9600 20.9716 0.8842
62.9800 20.9782 0.9019
63.0000 20.9848 0.9032
63.0200 20.9915 0.8802
63.0400 20.9982 0.9004
63.0600 21.0049 0.9033
63.0800 21.0115 0.8815
63.1000 21.0182 0.8948
63.1200 21.0249 0.8960
63.1400 21.0316 0.8844
63.1600 21.0382 0.8894
63.1800 21.0447 0.8925
63.2000 21.0514 0.8816
63.2200 21.0581 0.8900
63.2400 21.0648 0.8787
63.2600 21.0715 0.8805
63.2800 21.0782 0.8873
63.3000 21.0849 0.8751
63.3200 21.0915 0.8732
63.3400 21.0981 0.8861
63.3600 21.1048 0.8747
63.3800 21.1115 0.8726
63.4000 21.1182 0.8785
63.4200 21.1249 0.8721
63.4400 21.1315 0.8713
63.4600 21.1382 0.8743
63.4800 21.1449 0.8691
63.5000 21.1516 0.8726
63.5200 21.1582 0.8648
63.5400 21.1648 0.8708
63.5600 21.1714 0.8696
63.5800 21.1781 0.8621
63.6000 21.1849 0.8691
63.6200 21.1916 0.8681
63.6400 21.1982 0.8540
63.6600 21.2049 0.8604
63.6800 21.2116 0.8621
63.7000 21.2182 0.8524
63.7200 21.2248 0.8604
63.7400 21.2314 0.8575
63.7600 21.2381 0.8523
63.7800 21.2449 0.8586
63.8000 21.2515 0.8521
63.8200 21.2582 0.8470
63.8400 21.2649 0.8652
63.8600 21.2715 0.8420
63.8800 21.2782 0.8422
63.9000 21.2848 0.8619
63.9200 21.2914 0.8459
63.9400 21.2981 0.8372
63.9600 21.3048 0.8574
63.9800 21.3115 0.8466
64.0000 21.3182 0.8426
64.0200 21.3248 0.8501
64.0400 21.3315 0.8472
64.0600 21.3382 0.8420
64.0800 21.3448 0.8479
64.1000 21.3514 0.8398
64.1200 21.3581 0.8324
64.1400 21.3649 0.8420
64.1600 21.3716 0.8324
64.1800 21.3783 0.8345
64.2000 21.3849 0.8360
64.2200 21.3916 0.8346
64.2400 21.3982 0.8366
64.2600 21.4048 0.8329
64.2800 21.4114 0.8316
64.3000 21.4182 0.8345
64.3200 21.4249 0.8293
64.3400 21.4316 0.8332
64.3600 21.4382 0.8321
64.3800 21.4449 0.8319
64.4000 21.4515 0.8316
64.4200 21.4582 0.8301
64.4400 21.4648 0.8270
64.4600 21.4714 0.8330
64.4800 21.4781 0.8223
64.5000 21.4848 0.8201
64.5200 21.4915 0.8276
64.5400 21.4982 0.8175
64.5600 21.5049 0.8220
64.5800 21.5116 0.8285
64.6000 21.5182 0.8136
64.6200 21.5247 0.8222
64.6400 21.5314 0.8280
64.6600 21.5381 0.8100
64.6800 21.5448 0.8142
64.7000 21.5515 0.8314
64.7200 21.5582 0.8107
64.7400 21.5649 0.8083
64.7600 21.5716 0.8249
64.7800 21.5782 0.8092
64.8000 21.5848 0.8135
64.8200 21.5914 0.8202
64.8400 21.5981 0.8084
64.8600 21.6049 0.8081
64.8800 21.6115 0.8245
64.9000 21.6182 0.8039
64.9200 21.6249 0.8045
64.9400 21.6316 0.8144
64.9600 21.6382 0.8023
64.9800 21.6448 0.8081
65.0000 21.6515 0.8196
65.0200 21.6582 0.8055
65.0400 21.6649 0.8131
65.0600 21.6716 0.8092
65.0800 21.6782 0.8047
65.1000 21.6849 0.8113
65.1200 21.6916 0.8099
65.1400 21.6982 0.7990
65.1600 21.7048 0.8066
65.1800 21.7114 0.8087
65.2000 21.7181 0.8026
65.2200 21.7248 0.8019
65.2400 21.7315 0.8006
65.2600 21.7382 0.8077
65.2800 21.7449 0.8012
65.3000 21.7515 0.7978
65.3200 21.7582 0.8025
65.3400 21.7648 0.8019
65.3600 21.7714 0.7935
65.3800 21.7781 0.8023
65.4000 21.7848 0.7979
65.4200 21.7915 0.7976
65.4400 21.7982 0.8017
65.4600 21.8048 0.7973
65.4800 21.8115 0.7952
65.5000 21.8182 0.7983
65.5200 21.8248 0.7933
65.5400 21.8314 0.7930
65.5600 21.8381 0.7988
65.5800 21.8449 0.7975
65.6000 21.8516 0.7912
65.6200 21.8583 0.7970
65.6400 21.8649 0.7960
65.6600 21.8716 0.7922
65.6800 21.8782 0.7985
65.7000 21.8848 0.7930
65.7200 21.8915 0.7894
65.7400 21.8981 0.7980
65.7600 21.9049 0.7863
65.7800 21.9116 0.7840
65.8000 21.9182 0.7998
65.8200 21.9249 0.7883
65.8400 21.9316 0.7816
65.8600 21.9382 0.7941
65.8800 21.9448 0.7898
65.9000 21.9514 0.7793
65.9200 21.9581 0.7985
65.9400 21.9649 0.7801
65.9600 21.9715 0.7823
65.9800 21.9782 0.7974
66.0000 21.9849 0.7782
66.0200 21.9916 0.7802
66.0400 21.9982 0.7958
66.0600 22.0048 0.7694
66.0800 22.0114 0.7748
66.1000 22.0181 0.7974
66.1200 22.0248 0.7679
66.1400 22.0315 0.7713
66.1600 22.0382 0.7890
66.1800 22.0448 0.7644
66.2000 22.0515 0.7725
66.2200 22.0582 0.7860
66.2400 22.0648 0.7524
66.2600 22.0714 0.7764
66.2800 22.0781 0.7891
66.3000 22.0848 0.7520
66.3200 22.0915 0.7733
66.3400 22.0982 0.7817
66.3600 22.1049 0.7498
66.3800 22.1116 0.7738
66.4000 22.1182 0.7771
66.4200 22.1248 0.7482
66.4400 22.1314 0.7688
66.4600 22.1381 0.7768
66.4800 22.1449 0.7406
66.5000 22.1516 0.7689
66.5200 22.1582 0.7732
66.5400 22.1649 0.7463
66.5600 22.1716 0.7581
66.5800 22.1782 0.7710
66.6000 22.1848 0.7469
66.6200 22.1914 0.7595
66.6400 22.1981 0.7664
66.6600 22.2048 0.7446
66.6800 22.2115 0.7587
66.7000 22.2182 0.7609
66.7200 22.2249 0.7428
66.7400 22.2316 0.7576
66.7600 22.2382 0.7564
66.7800 22.2448 0.7437
66.8000 22.2514 0.7561
66.8200 22.2581 0.7544
66.8400 22.2648 0.7466
66.8600 22.2715 0.7478
66.8800 22.2782 0.7486
66.9000 22.2849 0.7440
66.9200 22.2915 0.7496
66.9400 22.2982 0.7443
66.9600 22.3048 0.7504
66.9800 22.3114 0.7423
67.0000 22.3181 0.7402
67.0200 22.3248 0.7477
67.0400 22.3315 0.7362
67.0600 22.3382 0.7392
67.0800 22.3449 0.7564
67.1000 22.3516 0.7326
67.1200 22.3582 0.7389
67.1400 22.3648 0.7507
67.1600 22.3714 0.7268
67.1800 22.3781 0.7417
67.2000 22.3848 0.7495
67.2200 22.3915 0.7205
67.2400 22.3982 0.7380
67.2600 22.4049 0.7445
67.2800 22.4116 0.7210
67.3000 22.4182 0.7374
67.3200 22.4248 0.7410
67.3400 22.4314 0.7254
67.3600 22.4381 0.7376
67.3800 22.4449 0.7378
67.4000 22.4516 0.7204
67.4200 22.4582 0.7404
67.4400 22.4649 0.7314
67.4600 22.4715 0.7222
67.4800 22.4782 0.7365
67.5000 22.4848 0.7244
67.5200 22.4914 0.7185
67.5400 22.4981 0.7433
67.5600 22.5048 0.7200
67.5800 22.5115 0.7152
67.6000 22.5182 0.7371
67.6200 22.5248 0.7150
67.6400 22.5315 0.7152
67.6600 22.5382 0.7349
67.6800 22.5448 0.7097
67.7000 22.5514 0.7176
67.7200 22.5581 0.7325
67.7400 22.5648 0.7066
67.7600 22.5715 0.7140
67.7800 22.5783 0.7259
67.8000 22.5849 0.7084
67.8200 22.5916 0.7099
67.8400 22.5983 0.7217
67.8600 22.6048 0.7038
67.8800 22.6115 0.7151
67.9000 22.6181 0.7177
67.9200 22.6249 0.7050
67.9400 22.6316 0.7060
67.9600 22.6383 0.7134
67.9800 22.6449 0.7024
68.0000 22.6516 0.7093
68.0200 22.6582 0.7062
68.0400 22.6648 0.7005
68.0600 22.6714 0.7058
68.0800 22.6781 0.7088
68.1000 22.6848 0.6989
68.1200 22.6915 0.7050
68.1400 22.6982 0.7087
68.1600 22.7048 0.6961
68.1800 22.7115 0.6930
68.2000 22.7182 0.7100
68.2200 22.7248 0.7029
68.2400 22.7314 0.6866
68.2600 22.7381 0.7105
68.2800 22.7448 0.7026
68.3000 22.7515 0.6830
68.3200 22.7582 0.7072
68.3400 22.7648 0.6972
68.3600 22.7715 0.6834
68.3800 22.7782 0.7029
68.4000 22.7848 0.6955
68.4200 22.7914 0.6879
68.4400 22.7981 0.7004
68.4600 22.8048 0.6913
68.4800 22.8116 0.6820
68.5000 22.8183 0.7033
68.5200 22.8249 0.6850
68.5400 22.8316 0.6860
68.5600 22.8382 0.7001
68.5800 22.8449 0.6868
68.6000 22.8515 0.6849
68.6200 22.8582 0.6950
68.6400 22.8649 0.6873
68.6600 22.8715 0.6836
68.6800 22.8782 0.6937
68.7000 22.8849 0.6833
68.7200 22.8916 0.6800
68.7400 22.8983 0.6919
68.7600 22.9049 0.6861
68.7800 22.9114 0.6748
68.8000 22.9181 0.6944
68.8200 22.9248 0.6830
68.8400 22.9315 0.6750
68.8600 22.9382 0.6898
68.8800 22.9449 0.6815
68.9000 22.9515 0.6678
68.9200 22.9582 0.6918
68.9400 22.9648 0.6778
68.9600 22.9714 0.6711
68.9800 22.9781 0.6879
69.0000 22.9848 0.6764
69.0200 22.9915 0.6704
69.0400 22.9982 0.6858
69.0600 23.0048 0.6699
69.0800 23.0115 0.6683
69.1000 23.0182 0.6767
69.1200 23.0248 0.6733
69.1400 23.0314 0.6668
69.1600 23.0381 0.6802
69.1800 23.0448 0.6664
69.2000 23.0515 0.6696
69.2200 23.0582 0.6763
69.2400 23.0649 0.6642
69.2600 23.0716 0.6664
69.2800 23.0783 0.6701
69.3000 23.0849 0.6640
69.3200 23.0915 0.6628
69.3400 23.0981 0.6698
69.3600 23.1048 0.6658
69.3800 23.1115 0.6551
69.4000 23.1182 0.6689
69.4200 23.1249 0.6647
69.4400 23.1316 0.6505
69.4600 23.1382 0.6662
69.4800 23.1448 0.6586
69.5000 23.1515 0.6596
69.5200 23.1581 0.6666
69.5400 23.1648 0.6624
69.5600 23.1715 0.6461
69.5800 23.1782 0.6640
69.6000 23.1849 0.6672
69.6200 23.1915 0.6466
69.6400 23.1982 0.6600
69.6600 23.2048 0.6571
69.6800 23.2114 0.6406
69.7000 23.2180 0.6697
69.7200 23.2247 0.6528
69.7400 23.2315 0.6422
69.7600 23.2382 0.6650
69.7800 23.2449 0.6520
69.8000 23.2516 0.6417
69.8200 23.2582 0.6636
69.8400 23.2649 0.6485
69.8600 23.2715 0.6385
69.8800 23.2781 0.6610
69.9000 23.2848 0.6435
69.9200 23.2915 0.6469
69.9400 23.2982 0.6553
69.9600 23.3049 0.6400
69.9800 23.3116 0.6463
70.0000 23.3183 0.6486
70.0200 23.3249 0.6418
70.0400 23.3315 0.6498
70.0600 23.3381 0.6384
70.0800 23.3448 0.6456
70.1000 23.3515 0.6437
70.1200 23.3582 0.6351
70.1400 23.3649 0.6416
70.1600 23.3715 0.6442
70.1800 23.3782 0.6300
70.2000 23.3848 0.6457
70.2200 23.3915 0.6419
70.2400 23.3981 0.6279
70.2600 23.4048 0.6453
70.2800 23.4115 0.6347
70.3000 23.4182 0.6257
70.3200 23.4249 0.6519
70.3400 23.4315 0.6324
70.3600 23.4382 0.6243
70.3800 23.4449 0.6452
70.4000 23.4515 0.6340
70.4200 23.4581 0.6264
70.4400 23.4648 0.6413
70.4600 23.4715 0.6302
70.4800 23.4782 0.6202
70.5000 23.4849 0.6379
70.5200 23.4915 0.6272
70.5400 23.4982 0.6249
70.5600 23.5048 0.6354
70.5800 23.5115 0.6316
70.6000 23.5181 0.6197
70.6200 23.5248 0.6370
70.6400 23.5315 0.6307
70.6600 23.5382 0.6189
70.6800 23.5449 0.6293
70.7000 23.5516 0.6278
70.7200 23.5583 0.6159
70.7400 23.5649 0.6317
70.7600 23.5715 0.6266
70.7800 23.5781 0.6168
70.8000 23.5848 0.6304
70.8200 23.5915 0.6218
70.8400 23.5982 0.6163
70.8600 23.6049 0.6243
70.8800 23.6116 0.6209
70.9000 23.6183 0.6133
70.9200 23.6249 0.6244
70.9400 23.6315 0.6184
70.9600 23.6381 0.6160
70.9800 23.6448 0.6284
71.0000 23.6515 0.6150
71.0200 23.6582 0.6091
71.0400 23.6649 0.6272
71.0600 23.6715 0.6122
71.0800 23.6782 0.6132
71.1000 23.6849 0.6226
71.1200 23.6915 0.6110
71.1400 23.6981 0.6077
71.1600 23.7048 0.6258
71.1800 23.7115 0.6073
71.2000 23.7182 0.6052
71.2200 23.7248 0.6210
71.2400 23.7315 0.6048
71.2600 23.7382 0.6054
71.2800 23.7449 0.6210
71.3000 23.7515 0.6015
71.3200 23.7581 0.6069
71.3400 23.7648 0.6188
71.3600 23.7715 0.6000
71.3800 23.7782 0.6050
71.4000 23.7849 0.6175
71.4200 23.7916 0.5965
71.4400 23.7983 0.6028
71.4600 23.8049 0.6090
71.4800 23.8115 0.5940
71.5000 23.8181 0.6093
71.5200 23.8248 0.6062
71.5400 23.8315 0.5951
71.5600 23.8382 0.6021
71.5800 23.8449 0.6033
71.6000 23.8516 0.5887
71.6200 23.8582 0.6040
71.6400 23.8649 0.5964
71.6600 23.8715 0.5916
71.6800 23.8781 0.6024
71.7000 23.8848 0.5967
71.7200 23.8915 0.5940
71.7400 23.8982 0.5997
71.7600 23.9049 0.5956
71.7800 23.9115 0.5950
71.8000 23.9182 0.5919
71.8200 23.9249 0.5924
71.8400 23.9315 0.5893
71.8600 23.9381 0.5938
71.8800 23.9447 0.5908
71.9000 23.9514 0.5872
71.9200 23.9581 0.5881
71.9400 23.9648 0.5888
71.9600 23.9715 0.5931
71.9800 23.9782 0.5839
72.0000 23.9848 0.5866
72.0200 23.9914 0.5854
72.0400 23.9981 0.5846
72.0600 24.0048 0.5919
72.0800 24.0115 0.5855
72.1000 24.0182 0.5790
72.1200 24.0249 0.5897
72.1400 24.0316 0.5822
72.1600 24.0383 0.5821
72.1800 24.0449 0.5839
72.2000 24.0515 0.5827
72.2200 24.0582 0.5755
72.2400 24.0648 0.5897
72.2600 24.0715 0.5791
72.2800 24.0782 0.5751
72.3000 24.0849 0.5864
72.3200 24.0916 0.5687
72.3400 24.0982 0.5809
72.3600 24.1049 0.5867
72.3800 24.1115 0.5711
72.4000 24.1181 0.5799
72.4200 24.1247 0.5803
72.4400 24.1314 0.5744
72.4600 24.1381 0.5811
72.4800 24.1448 0.5809
72.5000 24.1515 0.5732
72.5200 24.1582 0.5718
72.5400 24.1649 0.5774
72.5600 24.1714 0.5723
72.5800 24.1781 0.5784
72.6000 24.1847 0.5728
72.6200 24.1915 0.5719
72.6400 24.1982 0.5736
72.6600 24.2049 0.5741
72.6800 24.2115 0.5660
72.7000 24.2182 0.5734
72.7200 24.2249 0.5793
72.7400 24.2315 0.5675
72.7600 24.2381 0.5688
72.7800 24.2448 0.5762
72.8000 24.2515 0.5654
72.8200 24.2582 0.5685
72.8400 24.2649 0.5711
72.8600 24.2716 0.5672
72.8800 24.2783 0.5688
72.9000 24.2849 0.5644
72.9200 24.2915 0.5638
72.9400 24.2981 0.5688
72.9600 24.3048 0.5663
72.9800 24.3115 0.5652
73.0000 24.3182 0.5604
73.0200 24.3249 0.5580
73.0400 24.3316 0.5699
73.0600 24.3382 0.5559
73.0800 24.3449 0.5597
73.1000 24.3515 0.5684
73.1200 24.3581 0.5505
73.1400 24.3647 0.5579
73.1600 24.3715 0.5708
73.1800 24.3782 0.5442
73.2000 24.3849 0.5568
73.2200 24.3915 0.5614
73.2400 24.3982 0.5466
73.2600 24.4049 0.5593
73.2800 24.4115 0.5590
73.3000 24.4181 0.5415
73.3200 24.4248 0.5614
73.3400 24.4314 0.5572
73.3600 24.4381 0.5348
73.3800 24.4448 0.5579
73.4000 24.4515 0.5572
73.4200 24.4582 0.5347
73.4400 24.4649 0.5548
73.4600 24.4715 0.5544
73.4800 24.4781 0.5382
73.5000 24.4848 0.5559
73.5200 24.4915 0.5472
73.5400 24.4982 0.5343
73.5600 24.5049 0.5499
73.5800 24.5116 0.5452
73.6000 24.5183 0.5331
73.6200 24.5249 0.5470
73.6400 24.5315 0.5427
73.6600 24.5381 0.5350
73.6800 24.5448 0.5461
73.7000 24.5515 0.5385
73.7200 24.5582 0.5352
73.7400 24.5649 0.5457
73.7600 24.5716 0.5344
73.7800 24.5782 0.5429
73.8000 24.5849 0.5374
73.8200 24.5915 0.5309
73.8400 24.5981 0.5392
73.8600 24.6048 0.5398
73.8800 24.6114 0.5324
73.9000 24.6182 0.5379
73.9200 24.6249 0.5317
73.9400 24.6316 0.5346
73.9600 24.6382 0.5403
73.9800 24.6449 0.5251
74.0000 24.6515 0.5304
74.0200 24.6581 0.5409
74.0400 24.6647 0.5273
74.0600 24.6714 0.5322
74.0800 24.6782 0.5340
74.1000 24.6849 0.5216
74.1200 24.6915 0.5314
74.1400 24.6982 0.5280
74.1600 24.7049 0.5224
74.1800 24.7115 0.5291
74.2000 24.7181 0.5250
74.2200 24.7248 0.5202
74.2400 24.7315 0.5335
74.2600 24.7382 0.5216
74.2800 24.7449 0.5217
74.3000 24.7516 0.5243
74.3200 24.7583 0.5215
74.3400 24.7649 0.5200
74.3600 24.7716 0.5246
74.3800 24.7782 0.5214
74.4000 24.7848 0.5221
74.4200 24.7915 0.5248
74.4400 24.7982 0.5178
74.4600 24.8049 0.5179
74.4800 24.8116 0.5242
74.5000 24.8182 0.5212
74.5200 24.8249 0.5112
74.5400 24.8315 0.5188
74.5600 24.8381 0.5230
74.5800 24.8447 0.5113
74.6000 24.8515 0.5154
74.6200 24.8582 0.5198
74.6400 24.8649 0.5100
74.6600 24.8715 0.5186
74.6800 24.8782 0.5137
74.7000 24.8849 0.5064
74.7200 24.8915 0.5182
74.7400 24.8981 0.5130
74.7600 24.9048 0.5050
74.7800 24.9115 0.5212
74.8000 24.9182 0.5082
74.8200 24.9249 0.5056
74.8400 24.9315 0.5147
74.8600 24.9382 0.5122
74.8800 24.9449 0.5036
74.9000 24.9515 0.5133
74.9200 24.9581 0.5068
74.9400 24.9648 0.5073
74.9600 24.9714 0.5160
74.9800 24.9782 0.5007
75.0000 24.9849 0.5034
75.0200 24.9916 0.5112
75.0400 24.9982 0.5045
75.0600 25.0049 0.5040
75.0800 25.0115 0.4998
75.1000 25.0181 0.5068
75.1200 25.0248 0.5054
75.1400 25.0315 0.5006
75.1600 25.0382 0.5107
75.1800 25.0449 0.5035
75.2000 25.0516 0.5003
75.2200 25.0582 0.5054
75.2400 25.0649 0.5053
75.2600 25.0715 0.4926
75.2800 25.0781 0.5083
75.3000 25.0848 0.5010
75.3200 25.0915 0.4935
75.3400 25.0982 0.5077
75.3600 25.1048 0.4973
75.3800 25.1115 0.4921
75.4000 25.1182 0.5098
75.4200 25.1249 0.4941
75.4400 25.1315 0.4970
75.4600 25.1381 0.5070
75.4800 25.1447 0.4927
75.5000 25.1514 0.4931
75.5200 25.1581 0.5055
75.5400 25.1648 0.4862
75.5600 25.1715 0.4968
75.5800 25.1782 0.5068
75.6000 25.1849 0.4821
75.6200 25.1915 0.4957
75.6400 25.1981 0.5043
75.6600 25.2048 0.4851
75.6800 25.2115 0.4961
75.7000 25.2182 0.5015
75.7200 25.2249 0.4797
75.7400 25.2316 0.4985
75.7600 25.2383 0.4939
75.7800 25.2449 0.4849
75.8000 25.2515 0.4915
75.8200 25.2581 0.4952
75.8400 25.2648 0.4868
75.8600 25.2714 0.4922
75.8800 25.2782 0.4860
75.9000 25.2849 0.4874
75.9200 25.2916 0.4892
75.9400 25.2983 0.4860
75.9600 25.3049 0.4874
75.9800 25.3116 0.4826
76.0000 25.3182 0.4823
76.0200 25.3248 0.4869
76.0400 25.3314 0.4818
76.0600 25.3381 0.4853
76.0800 25.3448 0.4833
76.1000 25.3515 0.4798
76.1200 25.3582 0.4891
76.1400 25.3649 0.4786
76.1600 25.3715 0.4687
76.1800 25.3781 0.4883
76.2000 25.3847 0.4784
76.2200 25.3914 0.4730
76.2400 25.3981 0.4917
76.2600 25.4048 0.4670
76.2800 25.4115 0.4751
76.3000 25.4182 0.4853
76.3200 25.4248 0.4687
76.3400 25.4315 0.4716
76.3600 25.4381 0.4827
76.3800 25.4448 0.4656
76.4000 25.4514 0.4743
76.4200 25.4582 0.4811
76.4400 25.4649 0.4668
76.4600 25.4716 0.4738
76.4800 25.4782 0.4775
76.5000 25.4849 0.4615
76.5200 25.4916 0.4768
76.5400 25.4982 0.4723
76.5600 25.5048 0.4633
76.5800 25.5115 0.4776
76.6000 25.5182 0.4638
76.6200 25.5249 0.4652
76.6400 25.5316 0.4803
76.6600 25.5382 0.4607
76.6800 25.5449 0.4658
76.7000 25.5515 0.4807
76.7200 25.5581 0.4563
76.7400 25.5647 0.4678
76.7600 25.5714 0.4769
76.7800 25.5781 0.4535
76.8000 25.5848 0.4682
76.8200 25.5915 0.4784
76.8400 25.5982 0.4469
76.8600 25.6048 0.4701
76.8800 25.6115 0.4738
76.9000 25.6181 0.4475
76.9200 25.6247 0.4705
76.9400 25.6314 0.4810
76.9600 25.6381 0.4420
76.9800 25.6448 0.4621
77.0000 25.6515 0.4748
77.0200 25.6582 0.4463
77.0400 25.6649 0.4650
77.0600 25.6716 0.4720
77.0800 25.6782 0.4435
77.1000 25.6848 0.4648
77.1200 25.6914 0.4695
77.1400 25.6981 0.4446
77.1600 25.7048 0.4630
77.1800 25.7115 0.4660
77.2000 25.7182 0.4424
77.2200 25.7249 0.4610
77.2400 25.7316 0.4640
77.2600 25.7382 0.4378
77.2800 25.7448 0.4637
77.3000 25.7514 0.4603
77.3200 25.7581 0.4403
77.3400 25.7649 0.4631
77.3600 25.7716 0.4556
77.3800 25.7782 0.4336
77.4000 25.7849 0.4618
77.4200 25.7916 0.4513
77.4400 25.7982 0.4323
77.4600 25.8048 0.4576
77.4800 25.8115 0.4550
77.5000 25.8181 0.4320
77.5200 25.8248 0.4589
77.5400 25.8315 0.4470
77.5600 25.8382 0.4304
77.5800 25.8449 0.4558
77.6000 25.8516 0.4478
77.6200 25.8582 0.4296
77.6400 25.8648 0.4478
77.6600 25.8714 0.4487
77.6800 25.8781 0.4249
77.7000 25.8848 0.4481
77.7200 25.8915 0.4432
77.7400 25.8982 0.4217
77.7600 25.9049 0.4470
77.7800 25.9115 0.4394
77.8000 25.9181 0.4192
77.8200 25.9248 0.4475
77.8400 25.9314 0.4425
77.8600 25.9381 0.4181
77.8800 25.9449 0.4380
77.9000 25.9515 0.4439
77.9200 25.9582 0.4142
77.9400 25.9649 0.4422
77.9600 25.9716 0.4394
77.9800 25.9782 0.4131
78.0000 25.9848 0.4425
78.0200 25.9915 0.4405
78.0400 25.9981 0.4116
78.0600 26.0048 0.4414
78.0800 26.0115 0.4352
78.1000 26.0182 0.4109
78.1200 26.0249 0.4398
78.1400 26.0316 0.4352
78.1600 26.0382 0.4096
78.1800 26.0448 0.4403
78.2000 26.0514 0.4339
78.2200 26.0581 0.4063
78.2400 26.0649 0.4425
78.2600 26.0716 0.4285
78.2800 26.0782 0.4082
78.3000 26.0849 0.4395
78.3200 26.0915 0.4287
78.3400 26.0982 0.4022
78.3600 26.1048 0.4437
78.3800 26.1114 0.4280
78.4000 26.1181 0.4038
78.4200 26.1248 0.4334
78.4400 26.1315 0.4269
78.4600 26.1381 0.4068
78.4800 26.1448 0.4375
78.5000 26.1515 0.4163
78.5200 26.1581 0.4091
78.5400 26.1648 0.4339
78.5600 26.1714 0.4182
78.5800 26.1781 0.4089
78.6000 26.1849 0.4278
78.6200 26.1916 0.4132
78.6400 26.1982 0.4073
78.6600 26.2049 0.4231
78.6800 26.2116 0.4144
78.7000 26.2182 0.4062
78.7200 26.2248 0.4188
78.7400 26.2315 0.4134
78.7600 26.2382 0.4093
78.7800 26.2449 0.4147
78.8000 26.2516 0.4075
78.8200 26.2582 0.4099
78.8400 26.2649 0.4088
78.8600 26.2715 0.4091
78.8800 26.2782 0.4048
78.9000 26.2848 0.4119
78.9200 26.2914 0.4090
78.9400 26.2981 0.4016
78.9600 26.3048 0.4006
78.9800 26.3115 0.4127
79.0000 26.3182 0.4020
79.0200 26.3249 0.4029
79.0400 26.3315 0.4095
79.0600 26.3382 0.4007
79.0800 26.3448 0.3953
79.1000 26.3514 0.4095
79.1200 26.3581 0.3983
79.1400 26.3648 0.3931
79.1600 26.3715 0.4065
79.1800 26.3782 0.3948
79.2000 26.3849 0.3974
79.2200 26.3916 0.4093
79.2400 26.3982 0.3902
79.2600 26.4048 0.3976
79.2800 26.4114 0.4060
79.3000 26.4181 0.3858
79.3200 26.4249 0.3977
79.3400 26.4315 0.4005
79.3600 26.4382 0.3904
79.3800 26.4449 0.3991
79.4000 26.4516 0.4051
79.4200 26.4582 0.3808
79.4400 26.4648 0.4006
79.4600 26.4715 0.3997
79.4800 26.4782 0.3836
79.5000 26.4848 0.3980
79.5200 26.4915 0.3991
79.5400 26.4982 0.3818
79.5600 26.5049 0.3953
79.5800 26.5116 0.3977
79.6000 26.5182 0.3827
79.6200 26.5248 0.3981
79.6400 26.5314 0.3983
79.6600 26.5381 0.3809
79.6800 26.5448 0.3992
79.7000 26.5515 0.3947
79.7200 26.5582 0.3791
79.7400 26.5649 0.3993
79.7600 26.5715 0.3897
79.7800 26.5782 0.3798
79.8000 26.5848 0.3967
79.8200 26.5914 0.3938
79.8400 26.5981 0.3787
79.8600 26.6048 0.3989
79.8800 26.6115 0.3889
79.9000 26.6181 0.3755
79.9200 26.6248 0.3978
79.9400 26.6315 0.3887
79.9600 26.6382 0.3787
79.9800 26.6448 0.3986
80.0000 26.6514 0.3831
80.0200 26.6581 0.3845
80.0400 26.6648 0.3951
80.0600 26.6716 0.3843
80.0800 26.6782 0.3803
80.1000 26.6849 0.3925
80.1200 26.6916 0.3867
80.1400 26.6982 0.3822
80.1600 26.7048 0.3892
80.1800 26.7114 0.3907
80.2000 26.7181 0.3840
80.2200 26.7248 0.3845
80.2400 26.7316 0.3864
80.2600 26.7382 0.3828
80.2800 26.7449 0.3880
80.3000 26.7516 0.3822
80.3200 26.7582 0.3782
80.3400 26.7648 0.3865
80.3600 26.7714 0.3887
80.3800 26.7781 0.3759
80.4000 26.7848 0.3861
80.4200 26.7915 0.3842
80.4400 26.7982 0.3784
80.4600 26.8049 0.3801
80.4800 26.8115 0.3825
80.5000 26.8182 0.3770
80.5200 26.8248 0.3764
80.5400 26.8314 0.3797
80.5600 26.8381 0.3832
80.5800 26.8448 0.3731
80.6000 26.8515 0.3798
80.6200 26.8582 0.3794
80.6400 26.8648 0.3733
80.6600 26.8715 0.3783
80.6800 26.8782 0.3765
80.7000 26.8848 0.3702
80.7200 26.8914 0.3744
80.7400 26.8981 0.3738
80.7600 26.9048 0.3643
80.7800 26.9115 0.3773
80.8000 26.9182 0.3688
80.8200 26.9249 0.3644
80.8400 26.9316 0.3777
80.8600 26.9382 0.3668
80.8800 26.9448 0.3636
80.9000 26.9514 0.3779
80.9200 26.9581 0.3641
80.9400 26.9649 0.3677
80.9600 26.9716 0.3704
80.9800 26.9782 0.3625
81.0000 26.9849 0.3631
81.0200 26.9916 0.3697
81.0400 26.9982 0.3620
81.0600 27.0048 0.3665
81.0800 27.0114 0.3633
81.1000 27.0181 0.3633
81.1200 27.0248 0.3607
81.1400 27.0315 0.3612
81.1600 27.0382 0.3714
81.1800 27.0449 0.3593
81.2000 27.0516 0.3543
81.2200 27.0582 0.3669
81.2400 27.0648 0.3520
81.2600 27.0714 0.3565
81.2800 27.0781 0.3729
81.3000 27.0848 0.3447
81.3200 27.0915 0.3500
81.3400 27.0982 0.3732
81.3600 27.1049 0.3433
81.3800 27.1115 0.3528
81.4000 27.1182 0.3762
81.4200 27.1248 0.3379
81.4400 27.1315 0.3560
81.4600 27.1382 0.3724
81.4800 27.1448 0.3332
81.5000 27.1515 0.3493
81.5200 27.1582 0.3782
81.5400 27.1649 0.3311
81.5600 27.1716 0.3505
81.5800 27.1782 0.3684
81.6000 27.1848 0.3299
81.6200 27.1915 0.3525
81.6400 27.1981 0.3714
81.6600 27.2048 0.3298
81.6800 27.2115 0.3526
81.7000 27.2182 0.3659
81.7200 27.2249 0.3241
81.7400 27.2316 0.3506
81.7600 27.2382 0.3687
81.7800 27.2448 0.3267
81.8000 27.2514 0.3440
81.8200 27.2581 0.3657
81.8400 27.2648 0.3363
81.8600 27.2715 0.3387
81.8800 27.2782 0.3637
81.9000 27.2849 0.3336
81.9200 27.2916 0.3387
81.9400 27.2982 0.3642
81.9600 27.3048 0.3283
81.9800 27.3114 0.3446
82.0000 27.3181 0.3599
82.0200 27.3248 0.3271
82.0400 27.3315 0.3388
82.0600 27.3382 0.3593
82.0800 27.3448 0.3274
82.1000 27.3515 0.3375
82.1200 27.3582 0.3543
82.1400 27.3648 0.3302
82.1600 27.3714 0.3389
82.1800 27.3781 0.3539
82.2000 27.3848 0.3269
82.2200 27.3915 0.3418
82.2400 27.3982 0.3496
82.2600 27.4050 0.3274
82.2800 27.4116 0.3323
82.3000 27.4183 0.3418
82.3200 27.4249 0.3277
82.3400 27.4314 0.3353
82.3600 27.4381 0.3505
82.3800 27.4448 0.3221
82.4000 27.4516 0.3318
82.4200 27.4583 0.3432
82.4400 27.4649 0.3250
82.4600 27.4716 0.3305
82.4800 27.4782 0.3425
82.5000 27.4848 0.3257
82.5200 27.4915 0.3268
82.5400 27.4981 0.3442
82.5600 27.5048 0.3279
82.5800 27.5115 0.3242
82.6000 27.5181 0.3393
82.6200 27.5248 0.3239
82.6400 27.5315 0.3263
82.6600 27.5382 0.3341
82.6800 27.5448 0.3237
82.7000 27.5514 0.3236
82.7200 27.5580 0.3377
82.7400 27.5647 0.3247
82.7600 27.5715 0.3201
82.7800 27.5782 0.3338
82.8000 27.5849 0.3238
82.8200 27.5916 0.3201
82.8400 27.5982 0.3293
82.8600 27.6048 0.3241
82.8800 27.6114 0.3176
82.9000 27.6181 0.3274
82.9200 27.6248 0.3227
82.9400 27.6315 0.3184
82.9600 27.6382 0.3224
82.9800 27.6449 0.3260
83.0000 27.6516 0.3158
83.0200 27.6583 0.3220
83.0400 27.6649 0.3242
83.0600 27.6715 0.3140
83.0800 27.6781 0.3174
83.1000 27.6848 0.3222
83.1200 27.6915 0.3084
83.1400 27.6982 0.3224
83.1600 27.7049 0.3265
83.1800 27.7116 0.3042
83.2000 27.7183 0.3177
83.2200 27.7249 0.3282
83.2400 27.7314 0.3024
83.2600 27.7381 0.3226
83.2800 27.7448 0.3255
83.3000 27.7515 0.2992
83.3200 27.7582 0.3184
83.3400 27.7649 0.3237
83.3600 27.7716 0.3020
83.3800 27.7782 0.3171
83.4000 27.7848 0.3194
83.4200 27.7914 0.3029
83.4400 27.7981 0.3220
83.4600 27.8048 0.3165
83.4800 27.8115 0.2984
83.5000 27.8182 0.3248
83.5200 27.8248 0.3130
83.5400 27.8315 0.2972
83.5600 27.8382 0.3204
83.5800 27.8449 0.3088
83.6000 27.8515 0.3043
83.6200 27.8581 0.3167
83.6400 27.8648 0.3056
83.6600 27.8715 0.3041
83.6800 27.8782 0.3160
83.7000 27.8849 0.3009
83.7200 27.8916 0.3119
83.7400 27.8983 0.3087
83.7600 27.9049 0.2987
83.7800 27.9115 0.3089
83.8000 27.9181 0.3105
83.8200 27.9248 0.3047
83.8400 27.9315 0.3092
83.8600 27.9382 0.3013
83.8800 27.9449 0.3055
83.9000 27.9516 0.3119
83.9200 27.9582 0.2928
83.9400 27.9648 0.3104
83.9600 27.9715 0.3065
83.9800 27.9781 0.2924
84.0000 27.9848 0.3082
84.0200 27.9915 0.3024
84.0400 27.9982 0.2921
84.0600 28.0049 0.3081
84.0800 28.0115 0.2986
84.1000 28.0182 0.2886
84.1200 28.0249 0.3054
84.1400 28.0315 0.2999
84.1600 28.0381 0.2872
84.1800 28.0447 0.3094
84.2000 28.0514 0.2924
84.2200 28.0581 0.2902
84.2400 28.0648 0.3054
84.2600 28.0715 0.2907
84.2800 28.0782 0.2842
84.3000 28.0849 0.3012
84.3200 28.0915 0.2956
84.3400 28.0981 0.2846
84.3600 28.1048 0.2999
84.3800 28.1115 0.2938
84.4000 28.1182 0.2799
84.4200 28.1249 0.2961
84.4400 28.1316 0.2922
84.4600 28.1383 0.2821
84.4800 28.1449 0.2931
84.5000 28.1515 0.2865
84.5200 28.1581 0.2815
84.5400 28.1648 0.2923
84.5600 28.1715 0.2875
84.5800 28.1782 0.2745
84.6000 28.1849 0.2946
84.6200 28.1915 0.2861
84.6400 28.1982 0.2762
84.6600 28.2048 0.2906
84.6800 28.2114 0.2839
84.7000 28.2181 0.2734
84.7200 28.2247 0.2913
84.7400 28.2315 0.2824
84.7600 28.2382 0.2751
84.7800 28.2449 0.2919
84.8000 28.2516 0.2803
84.8200 28.2582 0.2696
84.8400 28.2649 0.2932
84.8600 28.2715 0.2754
84.8800 28.2781 0.2709
84.9000 28.2847 0.2946
84.9200 28.2915 0.2760
84.9400 28.2982 0.2706
84.9600 28.3049 0.2922
84.9800 28.3115 0.2680
85.0000 28.3182 0.2651
85.0200 28.3249 0.2963
85.0400 28.3315 0.2740
85.0600 28.3381 0.2631
85.0800 28.3448 0.2922
85.1000 28.3515 0.2732
85.1200 28.3582 0.2627
85.1400 28.3649 0.2940
85.1600 28.3716 0.2674
85.1800 28.3782 0.2655
85.2000 28.3849 0.2843
85.2200 28.3915 0.2693
85.2400 28.3981 0.2706
85.2600 28.4048 0.2855
85.2800 28.4115 0.2674
85.3000 28.4182 0.2662
85.3200 28.4249 0.2796
85.3400 28.4316 0.2698
85.3600 28.4383 0.2616
85.3800 28.4449 0.2804
85.4000 28.4515 0.2697
85.4200 28.4581 0.2627
85.4400 28.4648 0.2752
85.4600 28.4715 0.2664
85.4800 28.4782 0.2620
85.5000 28.4849 0.2765
85.5200 28.4915 0.2689
85.5400 28.4982 0.2557
85.5600 28.5049 0.2774
85.5800 28.5115 0.2629
85.6000 28.5181 0.2596
85.6200 28.5248 0.2846
85.6400 28.5315 0.2597
85.6600 28.5382 0.2543
85.6800 28.5448 0.2828
85.7000 28.5515 0.2581
85.7200 28.5582 0.2560
85.7400 28.5649 0.2770
85.7600 28.5715 0.2591
85.7800 28.5781 0.2558
85.8000 28.5848 0.2769
85.8200 28.5915 0.2530
85.8400 28.5982 0.2549
85.8600 28.6049 0.2761
85.8800 28.6116 0.2532
85.9000 28.6183 0.2555
85.9200 28.6249 0.2667
85.9400 28.6315 0.2561
85.9600 28.6381 0.2561
85.9800 28.6448 0.2628
86.0000 28.6515 0.2588
86.0200 28.6582 0.2508
86.0400 28.6649 0.2617
86.0600 28.6716 0.2589
86.0800 28.6782 0.2534
86.1000 28.6849 0.2609
86.1200 28.6915 0.2530
86.1400 28.6981 0.2483
86.1600 28.7048 0.2598
86.1800 28.7115 0.2565
86.2000 28.7182 0.2433
86.2200 28.7249 0.2597
86.2400 28.7315 0.2555
86.2600 28.7382 0.2432
86.2800 28.7449 0.2580
86.3000 28.7515 0.2504
86.3200 28.7581 0.2405
86.3400 28.7647 0.2647
86.3600 28.7714 0.2537
86.3800 28.7781 0.2374
86.4000 28.7848 0.2539
86.4200 28.7915 0.2542
86.4400 28.7982 0.2398
86.4600 28.8048 0.2534
86.4800 28.8114 0.2499
86.5000 28.8181 0.2371
86.5200 28.8248 0.2503
86.5400 28.8315 0.2490
86.5600 28.8382 0.2372
86.5800 28.8449 0.2449
86.6000 28.8516 0.2496
86.6200 28.8583 0.2370
86.6400 28.8649 0.2492
86.6600 28.8716 0.2443
86.6800 28.8782 0.2333
86.7000 28.8848 0.2470
86.7200 28.8915 0.2442
86.7400 28.8982 0.2342
86.7600 28.9049 0.2443
86.7800 28.9116 0.2381
86.8000 28.9183 0.2392
86.8200 28.9249 0.2349
86.8400 28.9315 0.2358
86.8600 28.9381 0.2411
86.8800 28.9447 0.2366
86.9000 28.9514 0.2345
86.9200 28.9581 0.2393
86.9400 28.9648 0.2324
86.9600 28.9715 0.2296
86.9800 28.9782 0.2437
87.0000 28.9849 0.2331
87.0200 28.9915 0.2279
87.0400 28.9981 0.2403
87.0600 29.0048 0.2324
87.0800 29.0115 0.2235
87.1000 29.0182 0.2335
87.1200 29.0249 0.2264
87.1400 29.0315 0.2285
87.1600 29.0382 0.2330
87.1800 29.0449 0.2237
87.2000 29.0515 0.2280
87.2200 29.0582 0.2370
87.2400 29.0648 0.2224
87.2600 29.0715 0.2278
87.2800 29.0782 0.2320
87.3000 29.0849 0.2209
87.3200 29.0916 0.2293
87.3400 29.0983 0.2309
87.3600 29.1049 0.2165
87.3800 29.1116 0.2277
87.4000 29.1181 0.2262
87.4200 29.1248 0.2168
87.4400 29.1315 0.2312
87.4600 29.1382 0.2232
87.4800 29.1449 0.2097
87.5000 29.1516 0.2269
87.5200 29.1582 0.2247
87.5400 29.1649 0.2129
87.5600 29.1715 0.2242
87.5800 29.1781 0.2170
87.6000 29.1847 0.2220
87.6200 29.1915 0.2234
87.6400 29.1982 0.2132
87.6600 29.2049 0.2217
87.6800 29.2115 0.2201
87.7000 29.2182 0.2127
87.7200 29.2249 0.2246
87.7400 29.2315 0.2169
87.7600 29.2381 0.2120
87.7800 29.2447 0.2205
87.8000 29.2514 0.2166
87.8200 29.2581 0.2117
87.8400 29.2648 0.2230
87.8600 29.2715 0.2084
87.8800 29.2782 0.2159
87.9000 29.2849 0.2158
87.9200 29.2915 0.2061
87.9400 29.2981 0.2161
87.9600 29.3048 0.2145
87.9800 29.3115 0.2046
88.0000 29.3182 0.2149
88.0200 29.3249 0.2179
88.0400 29.3316 0.2024
88.0600 29.3383 0.2087
88.0800 29.3449 0.2164
88.1000 29.3515 0.2071
88.1200 29.3581 0.2109
88.1400 29.3648 0.2123
88.1600 29.3715 0.2058
88.1800 29.3782 0.2110
88.2000 29.3849 0.2085
88.2200 29.3916 0.2090
88.2400 29.3982 0.2049
88.2600 29.4049 0.2109
88.2800 29.4115 0.1977
88.3000 29.4181 0.2059
88.3200 29.4248 0.2154
88.3400 29.4314 0.2031
88.3600 29.4381 0.1989
88.3800 29.4448 0.2140
88.4000 29.4515 0.2008
88.4200 29.4582 0.2025
88.4400 29.4649 0.2069
88.4600 29.4715 0.1955
88.4800 29.4781 0.2026
88.5000 29.4847 0.2103
88.5200 29.4914 0.1946
88.5400 29.4981 0.2030
88.5600 29.5048 0.2080
88.5800 29.5115 0.1943
88.6000 29.5182 0.2031
88.6200 29.5249 0.2074
88.6400 29.5315 0.1906
88.6600 29.5381 0.1993
88.6800 29.5448 0.2096
88.7000 29.5515 0.1896
88.7200 29.5582 0.2002
88.7400 29.5649 0.2023
88.7600 29.5716 0.1900
88.7800 29.5782 0.1962
88.8000 29.5849 0.2027
88.8200 29.5916 0.1862
88.8400 29.5982 0.1985
88.8600 29.6048 0.1986
88.8800 29.6115 0.1868
88.9000 29.6182 0.2007
88.9200 29.6249 0.2009
88.9400 29.6316 0.1778
88.9600 29.6382 0.2027
88.9800 29.6449 0.2011
89.0000 29.6515 0.1790
89.0200 29.6581 0.2024
89.0400 29.6647 0.2006
89.0600 29.6714 0.1761
89.0800 29.6782 0.1986
89.1000 29.6849 0.1999
89.1200 29.6915 0.1737
89.1400 29.6982 0.1911
89.1600 29.7049 0.2008
89.1800 29.7115 0.1791
89.2000 29.7181 0.1916
89.2200 29.7248 0.1970
89.2400 29.7314 0.1792
89.2600 29.7381 0.1975
89.2800 29.7448 0.1859
89.3000 29.7515 0.1799
89.3200 29.7582 0.2033
89.3400 29.7649 0.1862
89.3600 29.7715 0.1642
89.3800 29.7782 0.2058
89.4000 29.7848 0.1953
89.4200 29.7914 0.1661
89.4400 29.7982 0.1968
89.4600 29.8049 0.1926
89.4800 29.8116 0.1666
89.5000 29.8182 0.1975
89.5200 29.8249 0.1891
89.5400 29.8315 0.1660
89.5600 29.8381 0.1919
89.5800 29.8448 0.1872
89.6000 29.8515 0.1745
89.6200 29.8582 0.1926
89.6400 29.8649 0.1694
89.6600 29.8716 0.1796
89.6800 29.8783 0.2016
89.7000 29.8849 0.1615
89.7200 29.8916 0.1737
89.7400 29.8982 0.2039
89.7600 29.9048 0.1611
89.7800 29.9114 0.1749
89.8000 29.9181 0.2006
89.8200 29.9248 0.1611
89.8400 29.9315 0.1758
89.8600 29.9382 0.1907
89.8800 29.9449 0.1640
89.9000 29.9515 0.1753
89.9200 29.9581 0.1863
89.9400 29.9648 0.1642
89.9600 29.9714 0.1774
89.9800 29.9781 0.1795
90.0000 29.9848 0.1667
90.0200 29.9915 0.1728
90.0400 29.9982 0.1748
90.0600 30.0049 0.1669
90.0800 30.0115 0.1733
90.1000 30.0182 0.1679
90.1200 30.0248 0.1666
90.1400 30.0315 0.1736
90.1600 30.0382 0.1716
90.1800 30.0449 0.1553
90.2000 30.0516 0.1708
90.2200 30.0582 0.1784
90.2400 30.0649 0.1503
90.2600 30.0716 0.1698
90.2800 30.0782 0.1761
90.3000 30.0848 0.1530
90.3200 30.0915 0.1646
90.3400 30.0982 0.1738
90.3600 30.1049 0.1512
90.3800 30.1116 0.1697
90.4000 30.1182 0.1650
90.4200 30.1249 0.1530
90.4400 30.1316 0.1736
90.4600 30.1382 0.1625
90.4800 30.1448 0.1485
90.5000 30.1514 0.1732
90.5200 30.1581 0.1600
90.5400 30.1648 0.1505
90.5600 30.1715 0.1679
90.5800 30.1782 0.1612
90.6000 30.1849 0.1525
90.6200 30.1915 0.1645
90.6400 30.1981 0.1544
90.6600 30.2047 0.1543
90.6800 30.2114 0.1644
90.7000 30.2181 0.1489
90.7200 30.2248 0.1527
90.7400 30.2315 0.1648
90.7600 30.2382 0.1489
90.7800 30.2448 0.1534
90.8000 30.2515 0.1599
90.8200 30.2581 0.1521
90.8400 30.2648 0.1561
90.8600 30.2715 0.1560
90.8800 30.2782 0.1525
90.9000 30.2849 0.1509
90.9200 30.2915 0.1546
90.9400 30.2982 0.1495
90.9600 30.3049 0.1546
90.9800 30.3116 0.1523
91.0000 30.3182 0.1501
91.0200 30.3248 0.1524
91.0400 30.3314 0.1568
91.0600 30.3382 0.1493
91.0800 30.3449 0.1504
91.1000 30.3516 0.1543
91.1200 30.3583 0.1488
91.1400 30.3649 0.1446
91.1600 30.3716 0.1527
91.1800 30.3782 0.1537
91.2000 30.3848 0.1423
91.2200 30.3914 0.1506
91.2400 30.3981 0.1553
91.2600 30.4048 0.1414
91.2800 30.4115 0.1492
91.3000 30.4181 0.1501
91.3200 30.4248 0.1393
91.3400 30.4315 0.1457
91.3600 30.4381 0.1481
91.3800 30.4448 0.1420
91.4000 30.4514 0.1452
91.4200 30.4581 0.1445
91.4400 30.4648 0.1375
91.4600 30.4715 0.1502
91.4800 30.4782 0.1434
91.5000 30.4849 0.1417
91.5200 30.4916 0.1441
91.5400 30.4982 0.1421
91.5600 30.5048 0.1435
91.5800 30.5114 0.1428
91.6000 30.5181 0.1392
91.6200 30.5249 0.1409
91.6400 30.5315 0.1351
91.6600 30.5382 0.1377
91.6800 30.5449 0.1443
91.7000 30.5516 0.1372
91.7200 30.5582 0.1347
91.7400 30.5648 0.1366
91.7600 30.5714 0.1362
91.7800 30.5781 0.1332
91.8000 30.5848 0.1407
91.8200 30.5915 0.1320
91.8400 30.5982 0.1359
91.8600 30.6049 0.1319
91.8800 30.6116 0.1284
91.9000 30.6182 0.1364
91.9200 30.6248 0.1331
91.9400 30.6315 0.1298
91.9600 30.6381 0.1383
91.9800 30.6448 0.1276
92.0000 30.6515 0.1283
92.0200 30.6582 0.1344
92.0400 30.6649 0.1266
92.0600 30.6716 0.1271
92.0800 30.6782 0.1288
92.1000 30.6848 0.1255
92.1200 30.6914 0.1291
92.1400 30.6981 0.1255
92.1600 30.7048 0.1230
92.1800 30.7115 0.1261
92.2000 30.7182 0.1289
92.2200 30.7249 0.1190
92.2400 30.7315 0.1262
92.2600 30.7382 0.1188
92.2800 30.7448 0.1198
92.3000 30.7514 0.1283
92.3200 30.7581 0.1171
92.3400 30.7648 0.1234
92.3600 30.7715 0.1237
92.3800 30.7782 0.1188
92.4000 30.7849 0.1227
92.4200 30.7916 0.1240
92.4400 30.7982 0.1093
92.4600 30.8048 0.1251
92.4800 30.8115 0.1159
92.5000 30.8181 0.1085
92.5200 30.8249 0.1272
92.5400 30.8316 0.1201
92.5600 30.8382 0.0997
92.5800 30.8449 0.1273
92.6000 30.8516 0.1196
92.6200 30.8582 0.1002
92.6400 30.8648 0.1249
92.6600 30.8714 0.1234
92.6800 30.8781 0.0982
92.7000 30.8849 0.1247
92.7200 30.8916 0.1176
92.7400 30.8982 0.1009
92.7600 30.9049 0.1275
92.7800 30.9116 0.1179
92.8000 30.9182 0.0977
92.8200 30.9248 0.1231
92.8400 30.9314 0.1149
92.8600 30.9381 0.1007
92.8800 30.9448 0.1209
92.9000 30.9515 0.1089
92.9200 30.9581 0.1059
92.9400 30.9648 0.1195
92.9600 30.9715 0.1065
92.9800 30.9782 0.1068
93.0000 30.9848 0.1182
93.0200 30.9914 0.1052
93.0400 30.9981 0.1120
93.0600 31.0048 0.1122
93.0800 31.0115 0.1055
93.1000 31.0182 0.1110
93.1200 31.0249 0.1048
93.1400 31.0316 0.1089
93.1600 31.0382 0.1159
93.1800 31.0448 0.1013
93.2000 31.0514 0.1144
93.2200 31.0581 0.1144
93.2400 31.0649 0.0938
93.2600 31.0716 0.1107
93.2800 31.0782 0.1158
93.3000 31.0849 0.0921
93.3200 31.0916 0.1102
93.3400 31.0982 0.1116
93.3600 31.1048 0.0937
93.3800 31.1114 0.1130
93.4000 31.1181 0.1094
93.4200 31.1248 0.0963
93.4400 31.1315 0.1090
93.4600 31.1382 0.1007
93.4800 31.1449 0.0997
93.5000 31.1516 0.1122
93.5200 31.1582 0.0981
93.5400 31.1648 0.0962
93.5600 31.1714 0.1118
93.5800 31.1781 0.1031
93.6000 31.1848 0.0945
93.6200 31.1915 0.1148
93.6400 31.1982 0.0996
93.6600 31.2049 0.0848
93.6800 31.2116 0.1137
93.7000 31.2182 0.1014
93.7200 31.2248 0.0858
93.7400 31.2314 0.1111
93.7600 31.2381 0.0957
93.7800 31.2448 0.0866
93.8000 31.2515 0.1109
93.8200 31.2582 0.0948
93.8400 31.2649 0.0817
93.8600 31.2716 0.1085
93.8800 31.2782 0.0886
93.9000 31.2848 0.0848
93.9200 31.2915 0.1151
93.9400 31.2981 0.0865
93.9600 31.3048 0.0808
93.9800 31.3115 0.1084
94.0000 31.3182 0.0888
94.0200 31.3249 0.0772
94.0400 31.3316 0.1089
94.0600 31.3382 0.0809
94.0800 31.3448 0.0762
94.1000 31.3514 0.1096
94.1200 31.3581 0.0816
94.1400 31.3648 0.0752
94.1600 31.3715 0.1066
94.1800 31.3782 0.0761
94.2000 31.3849 0.0785
94.2200 31.3916 0.1028
94.2400 31.3982 0.0777
94.2600 31.4048 0.0737
94.2800 31.4114 0.1005
94.3000 31.4181 0.0751
94.3200 31.4248 0.0797
94.3400 31.4315 0.0988
94.3600 31.4382 0.0696
94.3800 31.4448 0.0787
94.4000 31.4515 0.0947
94.4200 31.4582 0.0683
94.4400 31.4648 0.0821
94.4600 31.4714 0.0910
94.4800 31.4781 0.0668
94.5000 31.4848 0.0858
94.5200 31.4915 0.0846
94.5400 31.4982 0.0660
94.5600 31.5049 0.0864
94.5800 31.5116 0.0831
94.6000 31.5182 0.0620
94.6200 31.5249 0.0899
94.6400 31.5315 0.0739
94.6600 31.5381 0.0645
94.6800 31.5448 0.0906
94.7000 31.5515 0.0667
94.7200 31.5582 0.0649
94.7400 31.5649 0.0922
94.7600 31.5716 0.0611
94.7800 31.5782 0.0690
94.8000 31.5848 0.0890
94.8200 31.5914 0.0581
94.8400 31.5981 0.0728
94.8600 31.6048 0.0885
94.8800 31.6115 0.0500
94.9000 31.6182 0.0788
94.9200 31.6248 0.0863
94.9400 31.6315 0.0473
94.9600 31.6382 0.0811
94.9800 31.6448 0.0806
95.0000 31.6514 0.0493
95.0200 31.6581 0.0834
95.0400 31.6648 0.0767
95.0600 31.6715 0.0411
95.0800 31.6782 0.0842
95.1000 31.6848 0.0805
95.1200 31.6915 0.0452
95.1400 31.6982 0.0788
95.1600 31.7048 0.0788
95.1800 31.7114 0.0504
95.2000 31.7181 0.0824
95.2200 31.7248 0.0694
95.2400 31.7315 0.0498
95.2600 31.7382 0.0812
95.2800 31.7449 0.0721
95.3000 31.7516 0.0491
95.3200 31.7582 0.0754
95.3400 31.7648 0.0695
95.3600 31.7715 0.0493
95.3800 31.7781 0.0755
95.4000 31.7849 0.0728
95.4200 31.7916 0.0478
95.4400 31.7983 0.0708
95.4600 31.8049 0.0647
95.4800 31.8115 0.0525
95.5000 31.8182 0.0711
95.5200 31.8248 0.0639
95.5400 31.8314 0.0490
95.5600 31.8381 0.0714
95.5800 31.8448 0.0662
95.6000 31.8515 0.0433
95.6200 31.8582 0.0692
95.6400 31.8649 0.0600
95.6600 31.8715 0.0474
95.6800 31.8782 0.0653
95.7000 31.8848 0.0587
95.7200 31.8914 0.0476
95.7400 31.8981 0.0695
95.7600 31.9048 0.0591
95.7800 31.9115 0.0463
95.8000 31.9182 0.0673
95.8200 31.9249 0.0548
95.8400 31.9315 0.0409
95.8600 31.9382 0.0673
95.8800 31.9448 0.0546
95.9000 31.9514 0.0474
95.9200 31.9581 0.0641
95.9400 31.9648 0.0552
95.9600 31.9715 0.0407
95.9800 31.9782 0.0623
96.0000 31.9849 0.0587
96.0200 31.9916 0.0392
96.0400 31.9982 0.0622
96.0600 32.0049 0.0507
96.0800 32.0115 0.0430
96.1000 32.0181 0.0608
96.1200 32.0248 0.0512
96.1400 32.0315 0.0403
96.1600 32.0382 0.0545
96.1800 32.0449 0.0505
96.2000 32.0516 0.0424
96.2200 32.0583 0.0533
96.2400 32.0649 0.0545
96.2600 32.0715 0.0342
96.2800 32.0781 0.0525
96.3000 32.0848 0.0494
96.3200 32.0915 0.0402
96.3400 32.0982 0.0540
96.3600 32.1049 0.0515
96.3800 32.1116 0.0350
96.4000 32.1182 0.0436
96.4200 32.1249 0.0581
96.4400 32.1314 0.0369
96.4600 32.1381 0.0412
96.4800 32.1448 0.0611
96.5000 32.1515 0.0277
96.5200 32.1582 0.0388
96.5400 32.1648 0.0584
96.5600 32.1715 0.0313
96.5800 32.1782 0.0394
96.6000 32.1848 0.0550
96.6200 32.1914 0.0285
96.6400 32.1981 0.0396
96.6600 32.2048 0.0591
96.6800 32.2115 0.0248
96.7000 32.2182 0.0404
96.7200 32.2249 0.0495
96.7400 32.2316 0.0229
96.7600 32.2383 0.0416
96.7800 32.2449 0.0535
96.8000 32.2515 0.0202
96.8200 32.2581 0.0429
96.8400 32.2648 0.0490
96.8600 32.2715 0.0161
96.8800 32.2782 0.0421
96.9000 32.2849 0.0529
96.9200 32.2916 0.0128
96.9400 32.2983 0.0435
96.9600 32.3049 0.0452
96.9800 32.3115 0.0116
97.0000 32.3181 0.0421
97.0200 32.3248 0.0448
97.0400 32.3315 0.0127
97.0600 32.3382 0.0428
97.0800 32.3448 0.0387
97.1000 32.3515 0.0118
97.1200 32.3582 0.0422
97.1400 32.3648 0.0352
97.1600 32.3714 0.0104
97.1800 32.3781 0.0421
97.2000 32.3848 0.0333
97.2200 32.3915 0.0095
97.2400 32.3982 0.0410
97.2600 32.4048 0.0265
97.2800 32.4115 0.0157
97.3000 32.4182 0.0343
97.3200 32.4248 0.0238
97.3400 32.4314 0.0130
97.3600 32.4381 0.0364
97.3800 32.4448 0.0214
97.4000 32.4515 0.0196
97.4200 32.4582 0.0275
97.4400 32.4649 0.0208
97.4600 32.4716 0.0206
97.4800 32.4783 0.0278
97.5000 32.4849 0.0175
97.5200 32.4915 0.0204
97.5400 32.4982 0.0285
97.5600 32.5048 0.0152
97.5800 32.5115 0.0164
97.6000 32.5182 0.0239
97.6200 32.5249 0.0191
97.6400 32.5316 0.0186
97.6600 32.5383 0.0187
97.6800 32.5449 0.0129
97.7000 32.5515 0.0189
97.7200 32.5581 0.0184
97.7400 32.5648 0.0135
97.7600 32.5715 0.0100
97.7800 32.5782 0.0165
97.8000 32.5849 0.0134
97.8200 32.5915 0.0101
97.8400 32.5982 0.0120
97.8600 32.6049 0.0113
97.8800 32.6115 0.0085
97.9000 32.6181 0.0135
97.9200 32.6248 0.0108
97.9400 32.6315 0.0112
97.9600 32.6382 0.0109
97.9800 32.6448 0.0107
98.0000 32.6515 0.0037
98.0200 32.6582 0.0120
98.0400 32.6649 0.0082
98.0600 32.6715 0.0061
98.0800 32.6781 0.0086
98.1000 32.6848 0.0087
98.1200 32.6915 0.0050
98.1400 32.6982 0.0036
98.1600 32.7049 0.0118
98.1800 32.7116 0.0014
98.2000 32.7183 0.0086
98.2200 32.7249 0.0067
98.2400 32.7315 -0.0024
98.2600 32.7381 0.0128
98.2800 32.7448 0.0070
98.3000 32.7515 -0.0053
98.3200 32.7582 0.0106
98.3400 32.7649 0.0090
98.3600 32.7716 -0.0057
98.3800 32.7782 0.0018
98.4000 32.7849 0.0055
98.4200 32.7915 -0.0064
98.4400 32.7981 0.0111
98.4600 32.8048 0.0030
98.4800 32.8115 -0.0005
98.5000 32.8182 0.0039
98.5200 32.8249 -0.0035
98.5400 32.8315 0.0031
98.5600 32.8382 0.0047
98.5800 32.8449 -0.0062
98.6000 32.8515 0.0008
98.6200 32.8581 0.0013
98.6400 32.8647 0.0010
98.6600 32.8714 0.0037
98.6800 32.8781 -0.0044
98.7000 32.8848 -0.0056
98.7200 32.8915 0.0093
98.7400 32.8982 -0.0072
98.7600 32.9049 -0.0133
98.7800 32.9115 0.0132
98.8000 32.9181 -0.0089
98.8200 32.9248 -0.0098
98.8400 32.9315 0.0062
98.8600 32.9382 -0.0095
98.8800 32.9449 -0.0070
98.9000 32.9516 0.0024
98.9200 32.9583 -0.0156
98.9400 32.9649 -0.0066
98.9600 32.9715 0.0010
98.9800 32.9781 -0.0086
99.0000 32.9848 -0.0102
99.0200 32.9915 0.0015
99.0400 32.9982 -0.0115
99.0600 33.0049 -0.0126
99.0800 33.0116 -0.0036
99.1000 33.0182 -0.0108
99.1200 33.0249 -0.0132
99.1400 33.0315 -0.0098
99.1600 33.0381 -0.0119
99.1800 33.0447 -0.0141
99.2000 33.0514 -0.0104
99.2200 33.0581 -0.0086
99.2400 33.0648 -0.0157
99.2600 33.0715 -0.0170
99.2800 33.0782 -0.0045
99.3000 33.0849 -0.0233
99.3200 33.0915 -0.0156
99.3400 33.0981 0.0027
99.3600 33.1047 -0.0240
99.3800 33.1114 -0.0223
99.4000 33.1182 0.0010
99.4200 33.1249 -0.0237
99.4400 33.1315 -0.0231
99.4600 33.1382 -0.0070
99.4800 33.1449 -0.0241
99.5000 33.1515 -0.0209
99.5200 33.1581 -0.0048
99.5400 33.1648 -0.0269
99.5600 33.1715 -0.0214
99.5800 33.1782 -0.0136
99.6000 33.1849 -0.0312
99.6200 33.1916 -0.0212
99.6400 33.1983 -0.0117
99.6600 33.2049 -0.0317
99.6800 33.2115 -0.0218
99.7000 33.2181 -0.0164
99.7200 33.2248 -0.0286
99.7400 33.2315 -0.0168
99.7600 33.2382 -0.0244
99.7800 33.2449 -0.0339
99.8000 33.2516 -0.0208
99.8200 33.2583 -0.0224
99.8400 33.2649 -0.0344
99.8600 33.2715 -0.0194
99.8800 33.2781 -0.0251
99.9000 33.2848 -0.0336
99.9200 33.2915 -0.0247
99.9400 33.2982 -0.0268
99.9600 33.3049 -0.0375
99.9800 33.3115 -0.0212
100.0000 33.3182 -0.0291
100.0200 33.3249 -0.0335
100.0400 33.3315 -0.0246
100.0600 33.3381 -0.0296
100.0800 33.3447 -0.0293
100.1000 33.3514 -0.0248
100.1200 33.3582 -0.0343
100.1400 33.3648 -0.0310
100.1600 33.3715 -0.0346
100.1800 33.3782 -0.0332
100.2000 33.3849 -0.0319
100.2200 33.3915 -0.0289
100.2400 33.3981 -0.0309
100.2600 33.4048 -0.0359
100.2800 33.4115 -0.0313
100.3000 33.4182 -0.0326
100.3200 33.4249 -0.0323
100.3400 33.4316 -0.0396
100.3600 33.4383 -0.0319
100.3800 33.4449 -0.0343
100.4000 33.4515 -0.0375
100.4200 33.4581 -0.0333
100.4400 33.4648 -0.0296
100.4600 33.4715 -0.0359
100.4800 33.4782 -0.0365
100.5000 33.4849 -0.0329
100.5200 33.4916 -0.0343
100.5400 33.4982 -0.0428
100.5600 33.5049 -0.0322
100.5800 33.5115 -0.0399
100.6000 33.5181 -0.0363
100.6200 33.5248 -0.0323
100.6400 33.5315 -0.0389
100.6600 33.5382 -0.0416
100.6800 33.5449 -0.0336
100.7000 33.5515 -0.0404
100.7200 33.5582 -0.0411
100.7400 33.5649 -0.0343
100.7600 33.5715 -0.0438
100.7800 33.5781 -0.0460
100.8000 33.5847 -0.0272
100.8200 33.5914 -0.0467
100.8400 33.5981 -0.0463
100.8600 33.6048 -0.0278
100.8800 33.6115 -0.0489
100.9000 33.6182 -0.0469
100.9200 33.6248 -0.0323
100.9400 33.6314 -0.0495
100.9600 33.6381 -0.0476
100.9800 33.6447 -0.0285
101.0000 33.6515 -0.0462
101.0200 33.6582 -0.0476
101.0400 33.6649 -0.0375
101.0600 33.6716 -0.0501
101.0800 33.6783 -0.0466
101.1000 33.6849 -0.0362
101.1200 33.6916 -0.0566
101.1400 33.6982 -0.0465
101.1600 33.7048 -0.0390
101.1800 33.7115 -0.0561
101.2000 33.7182 -0.0506
101.2200 33.7249 -0.0391
101.2400 33.7316 -0.0584
101.2600 33.7382 -0.0528
101.2800 33.7449 -0.0413
101.3000 33.7515 -0.0579
101.3200 33.7581 -0.0495
101.3400 33.7648 -0.0456
101.3600 33.7714 -0.0603
101.3800 33.7781 -0.0491
101.4000 33.7848 -0.0475
101.4200 33.7915 -0.0595
101.4400 33.7982 -0.0536
101.4600 33.8049 -0.0521
101.4800 33.8115 -0.0589
101.5000 33.8181 -0.0552
101.5200 33.8247 -0.0486
101.5400 33.8315 -0.0573
101.5600 33.8382 -0.0519
101.5800 33.8449 -0.0546
101.6000 33.8515 -0.0551
101.6200 33.8582 -0.0614
101.6400 33.8649 -0.0523
101.6600 33.8715 -0.0566
101.6800 33.8782 -0.0603
101.7000 33.8848 -0.0503
101.7200 33.8915 -0.0582
101.7400 33.8982 -0.0633
101.7600 33.9049 -0.0512
101.7800 33.9115 -0.0580
101.8000 33.9182 -0.0627
101.8200 33.9249 -0.0544
101.8400 33.9316 -0.0626
101.8600 33.9381 -0.0654
101.8800 33.9448 -0.0485
101.9000 33.9514 -0.0572
101.9200 33.9582 -0.0710
101.9400 33.9649 -0.0534
101.9600 33.9716 -0.0623
101.9800 33.9782 -0.0647
102.0000 33.9849 -0.0544
102.0200 33.9915 -0.0621
102.0400 33.9981 -0.0712
102.0600 34.0047 -0.0549
102.0800 34.0114 -0.0615
102.1000 34.0182 -0.0681
102.1200 34.0249 -0.0595
102.1400 34.0315 -0.0621
102.1600 34.0382 -0.0722
102.1800 34.0448 -0.0534
102.2000 34.0515 -0.0638
102.2200 34.0581 -0.0744
102.2400 34.0648 -0.0638
102.2600 34.0714 -0.0601
102.2800 34.0781 -0.0786
102.3000 34.0848 -0.0609
102.3200 34.0915 -0.0617
102.3400 34.0982 -0.0811
102.3600 34.1049 -0.0597
102.3800 34.1116 -0.0628
102.4000 34.1182 -0.0811
102.4200 34.1248 -0.0553
102.4400 34.1315 -0.0665
102.4600 34.1382 -0.0810
102.4800 34.1449 -0.0604
102.5000 34.1516 -0.0739
102.5200 34.1583 -0.0794
102.5400 34.1649 -0.0635
102.5600 34.1715 -0.0735
102.5800 34.1781 -0.0794
102.6000 34.1848 -0.0614
102.6200 34.1914 -0.0812
102.6400 34.1982 -0.0714
102.6600 34.2049 -0.0703
102.6800 34.2116 -0.0795
102.7000 34.2183 -0.0765
102.7200 34.2249 -0.0752
102.7400 34.2316 -0.0843
102.7600 34.2382 -0.0750
102.7800 34.2448 -0.0764
102.8000 34.2514 -0.0814
102.8200 34.2581 -0.0745
102.8400 34.2648 -0.0872
102.8600 34.2715 -0.0793
102.8800 34.2782 -0.0741
102.9000 34.2849 -0.0960
102.9200 34.2915 -0.0817
102.9400 34.2981 -0.0788
102.9600 34.3047 -0.0905
102.9800 34.3114 -0.0786
103.0000 34.3181 -0.0813
103.0200 34.3248 -0.0864
103.0400 34.3315 -0.0835
103.0600 34.3382 -0.0868
103.0800 34.3449 -0.0824
103.1000 34.3515 -0.0832
103.1200 34.3582 -0.0944
103.1400 34.3648 -0.0816
103.1600 34.3715 -0.0797
103.1800 34.3782 -0.0982
103.2000 34.3849 -0.0793
103.2200 34.3916 -0.0821
103.2400 34.3983 -0.1079
103.2600 34.4049 -0.0742
103.2800 34.4116 -0.0867
103.3000 34.4182 -0.1038
103.3200 34.4248 -0.0824
103.3400 34.4315 -0.0875
103.3600 34.4382 -0.1025
103.3800 34.4449 -0.0842
103.4000 34.4516 -0.0840
103.4200 34.4582 -0.0976
103.4400 34.4649 -0.0976
103.4600 34.4715 -0.0942
103.4800 34.4781 -0.0912
103.5000 34.4847 -0.0913
103.5200 34.4914 -0.0975
103.5400 34.4981 -0.0947
103.5600 34.5049 -0.0887
103.5800 34.5115 -0.0981
103.6000 34.5182 -0.0957
103.6200 34.5249 -0.0945
103.6400 34.5315 -0.1008
103.6600 34.5381 -0.1024
103.6800 34.5448 -0.0920
103.7000 34.5514 -0.1002
103.7200 34.5582 -0.0968
103.7400 34.5648 -0.1026
103.7600 34.5715 -0.0993
103.7800 34.5782 -0.0942
103.8000 34.5849 -0.0998
103.8200 34.5915 -0.1047
103.8400 34.5981 -0.0955
103.8600 34.6048 -0.1083
103.8800 34.6114 -0.0969
103.9000 34.6181 -0.0978
103.9200 34.6248 -0.1142
103.9400 34.6315 -0.0974
103.9600 34.6382 -0.0946
103.9800 34.6449 -0.1125
104.0000 34.6516 -0.1027
104.0200 34.6582 -0.0980
104.0400 34.6648 -0.1138
104.0600 34.6715 -0.1003
104.0800 34.6782 -0.1023
104.1000 34.6849 -0.1138
104.1200 34.6916 -0.1001
104.1400 34.6983 -0.1052
104.1600 34.7049 -0.1189
104.1800 34.7116 -0.0940
104.2000 34.7182 -0.1072
104.2200 34.7248 -0.1173
104.2400 34.7315 -0.0970
104.2600 34.7382 -0.1062
104.2800 34.7449 -0.1216
104.3000 34.7515 -0.0931
104.3200 34.7582 -0.1158
104.3400 34.7649 -0.1222
104.3600 34.7715 -0.0933
104.3800 34.7782 -0.1192
104.4000 34.7848 -0.1214
104.4200 34.7914 -0.0929
104.4400 34.7981 -0.1186
104.4600 34.8048 -0.1249
104.4800 34.8115 -0.0977
104.5000 34.8182 -0.1204
104.5200 34.8249 -0.1248
104.5400 34.8315 -0.0960
104.5600 34.8382 -0.1282
104.5800 34.8448 -0.1194
104.6000 34.8514 -0.0980
104.6200 34.8582 -0.1393
104.6400 34.8649 -0.1156
104.6600 34.8716 -0.1040
104.6800 34.8783 -0.1336
104.7000 34.8849 -0.1142
104.7200 34.8916 -0.1093
104.7400 34.8982 -0.1363
104.7600 34.9048 -0.1090
104.7800 34.9114 -0.1145
104.8000 34.9181 -0.1322
104.8200 34.9249 -0.1099
104.8400 34.9315 -0.1168
104.8600 34.9382 -0.1362
104.8800 34.9449 -0.1100
104.9000 34.9516 -0.1204
104.9200 34.9582 -0.1341
104.9400 34.9648 -0.1109
104.9600 34.9714 -0.1207
104.9800 34.9781 -0.1282
105.0000 34.9848 -0.1161
105.0200 34.9915 -0.1306
105.0400 34.9982 -0.1227
105.0600 35.0049 -0.1170
105.0800 35.0116 -0.1337
105.1000 35.0182 -0.1295
105.1200 35.0247 -0.1165
105.1400 35.0314 -0.1294
105.1600 35.0381 -0.1244
105.1800 35.0448 -0.1271
105.2000 35.0515 -0.1345
105.2200 35.0582 -0.1222
105.2400 35.0649 -0.1305
105.2600 35.0715 -0.1306
105.2800 35.0782 -0.1225
105.3000 35.0848 -0.1307
105.3200 35.0915 -0.1313
105.3400 35.0981 -0.1214
105.3600 35.1048 -0.1402
105.3800 35.1115 -0.1305
105.4000 35.1182 -0.1298
105.4200 35.1249 -0.1469
105.4400 35.1316 -0.1324
105.4600 35.1382 -0.1314
105.4800 35.1448 -0.1469
105.5000 35.1514 -0.1310
105.5200 35.1581 -0.1332
105.5400 35.1649 -0.1447
105.5600 35.1716 -0.1327
105.5800 35.1782 -0.1370
105.6000 35.1849 -0.1466
105.6200 35.1915 -0.1333
105.6400 35.1981 -0.1439
105.6600 35.2047 -0.1413
105.6800 35.2114 -0.1287
105.7000 35.2181 -0.1467
105.7200 35.2248 -0.1441
105.7400 35.2315 -0.1355
105.7600 35.2382 -0.1432
105.7800 35.2448 -0.1425
105.8000 35.2515 -0.1356
105.8200 35.2582 -0.1513
105.8400 35.2648 -0.1403
105.8600 35.2714 -0.1343
105.8800 35.2781 -0.1549
105.9000 35.2848 -0.1428
105.9200 35.2915 -0.1366
105.9400 35.2982 -0.1523
105.9600 35.3049 -0.1479
105.9800 35.3116 -0.1389
106.0000 35.3182 -0.1464
106.0200 35.3248 -0.1524
106.0400 35.3315 -0.1484
106.0600 35.3381 -0.1424
106.0800 35.3449 -0.1486
106.1000 35.3516 -0.1500
106.1200 35.3582 -0.1438
106.1400 35.3649 -0.1512
106.1600 35.3716 -0.1502
106.1800 35.3782 -0.1471
106.2000 35.3848 -0.1515
106.2200 35.3914 -0.1462
106.2400 35.3981 -0.1443
106.2600 35.4049 -0.1523
106.2800 35.4115 -0.1527
106.3000 35.4182 -0.1393
106.3200 35.4249 -0.1561
106.3400 35.4316 -0.1561
106.3600 35.4382 -0.1459
106.3800 35.4448 -0.1563
106.4000 35.4515 -0.1520
106.4200 35.4581 -0.1421
106.4400 35.4648 -0.1611
106.4600 35.4715 -0.1510
106.4800 35.4782 -0.1445
106.5000 35.4849 -0.1632
106.5200 35.4916 -0.1568
106.5400 35.4982 -0.1390
106.5600 35.5048 -0.1671
106.5800 35.5114 -0.1612
106.6000 35.5181 -0.1449
106.6200 35.5248 -0.1654
106.6400 35.5315 -0.1590
106.6600 35.5382 -0.1459
106.6800 35.5449 -0.1636
106.7000 35.5515 -0.1621
106.7200 35.5582 -0.1493
106.7400 35.5648 -0.1651
106.7600 35.5714 -0.1628
106.7800 35.5781 -0.1448
106.8000 35.5848 -0.1653
106.8200 35.5915 -0.1680
106.8400 35.5982 -0.1518
106.8600 35.6049 -0.1685
106.8800 35.6116 -0.1651
106.9000 35.6182 -0.1544
106.9200 35.6248 -0.1706
106.9400 35.6315 -0.1681
106.9600 35.6381 -0.1491
106.9800 35.6448 -0.1756
107.0000 35.6515 -0.1717
107.0200 35.6582 -0.1512
107.0400 35.6649 -0.1745
107.0600 35.6716 -0.1797
107.0800 35.6782 -0.1540
107.1000 35.6848 -0.1737
107.1200 35.6914 -0.1729
107.1400 35.6981 -0.1587
107.1600 35.7048 -0.1682
107.1800 35.7115 -0.1717
107.2000 35.7182 -0.1691
107.2200 35.7249 -0.1728
107.2400 35.7315 -0.1727
107.2600 35.7382 -0.1715
107.2800 35.7448 -0.1756
107.3000 35.7514 -0.1646
107.3200 35.7581 -0.1739
107.3400 35.7648 -0.1739
107.3600 35.7715 -0.1705
107.3800 35.7781 -0.1781
107.4000 35.7848 -0.1671
107.4200 35.7915 -0.1698
107.4400 35.7982 -0.1865
107.4600 35.8048 -0.1628
107.4800 35.8115 -0.1725
107.5000 35.8181 -0.1838
107.5200 35.8248 -0.1669
107.5400 35.8315 -0.1759
107.5600 35.8382 -0.1909
107.5800 35.8449 -0.1583
107.6000 35.8516 -0.1832
107.6200 35.8582 -0.1909
107.6400 35.8648 -0.1593
107.6600 35.8715 -0.1907
107.6800 35.8782 -0.1837
107.7000 35.8849 -0.1570
107.7200 35.8916 -0.1979
107.7400 35.8982 -0.1877
107.7600 35.9049 -0.1557
107.7800 35.9116 -0.1945
107.8000 35.9182 -0.1869
107.8200 35.9248 -0.1635
107.8400 35.9314 -0.1969
107.8600 35.9381 -0.1863
107.8800 35.9448 -0.1643
107.9000 35.9515 -0.2035
107.9200 35.9582 -0.1806
107.9400 35.9649 -0.1717
107.9600 35.9715 -0.2042
107.9800 35.9782 -0.1793
108.0000 35.9848 -0.1740
108.0200 35.9914 -0.2033
108.0400 35.9981 -0.1751
108.0600 36.0048 -0.1809
108.0800 36.0115 -0.2046
108.1000 36.0182 -0.1780
108.1200 36.0249 -0.1831
108.1400 36.0316 -0.2041
108.1600 36.0382 -0.1788
108.1800 36.0448 -0.1924
108.2000 36.0514 -0.1965
108.2200 36.0581 -0.1758
108.2400 36.0648 -0.1993
108.2600 36.0715 -0.1995
108.2800 36.0782 -0.1775
108.3000 36.0849 -0.2010
108.3200 36.0916 -0.1935
108.3400 36.0982 -0.1829
108.3600 36.1049 -0.2070
108.3800 36.1115 -0.1908
108.4000 36.1181 -0.1892
108.4200 36.1248 -0.2062
108.4400 36.1315 -0.1950
108.4600 36.1382 -0.1896
108.4800 36.1449 -0.2059
108.5000 36.1516 -0.1953
108.5200 36.1582 -0.1962
108.5400 36.1648 -0.1987
108.5600 36.1714 -0.1995
108.5800 36.1781 -0.1943
108.6000 36.1848 -0.2015
108.6200 36.1915 -0.2005
108.6400 36.1982 -0.2013
108.6600 36.2049 -0.2009
108.6800 36.2116 -0.2020
108.7000 36.2182 -0.2000
108.7200 36.2248 -0.1990
108.7400 36.2314 -0.2030
108.7600 36.2381 -0.1987
108.7800 36.2448 -0.2000
108.8000 36.2515 -0.2092
108.8200 36.2582 -0.2026
108.8400 36.2648 -0.2042
108.8600 36.2715 -0.2094
108.8800 36.2782 -0.2058
108.9000 36.2848 -0.2071
108.9200 36.2915 -0.2039
108.9400 36.2981 -0.2050
108.9600 36.3048 -0.2045
108.9800 36.3115 -0.2070
109.0000 36.3182 -0.2078
109.0200 36.3249 -0.2076
109.0400 36.3316 -0.2065
109.0600 36.3383 -0.2096
109.0800 36.3449 -0.2071
109.1000 36.3515 -0.2106
109.1200 36.3581 -0.2096
109.1400 36.3648 -0.2076
109.1600 36.3715 -0.2062
109.1800 36.3782 -0.2141
109.2000 36.3849 -0.2074
109.2200 36.3916 -0.2102
109.2400 36.3982 -0.2156
109.2600 36.4048 -0.2107
109.2800 36.4114 -0.2092
109.3000 36.4181 -0.2137
109.3200 36.4248 -0.2112
109.3400 36.4315 -0.2079
109.3600 36.4382 -0.2161
109.3800 36.4448 -0.2150
109.4000 36.4515 -0.2119
109.4200 36.4582 -0.2174
109.4400 36.4648 -0.2142
109.4600 36.4714 -0.2108
109.4800 36.4781 -0.2186
109.5000 36.4848 -0.2155
109.5200 36.4915 -0.2193
109.5400 36.4982 -0.2189
109.5600 36.5048 -0.2170
109.5800 36.5115 -0.2163
109.6000 36.5182 -0.2270
109.6200 36.5248 -0.2159
109.6400 36.5314 -0.2175
109.6600 36.5381 -0.2209
109.6800 36.5448 -0.2147
109.7000 36.5515 -0.2204
109.7200 36.5582 -0.2292
109.7400 36.5649 -0.2158
109.7600 36.5716 -0.2218
109.7800 36.5782 -0.2263
109.8000 36.5848 -0.2216
109.8200 36.5914 -0.2244
109.8400 36.5981 -0.2297
109.8600 36.6048 -0.2228
109.8800 36.6116 -0.2238
109.9000 36.6182 -0.2304
109.9200 36.6249 -0.2244
109.9400 36.6316 -0.2259
109.9600 36.6382 -0.2340
109.9800 36.6448 -0.2253
110.0000 36.6514 -0.2239
110.0200 36.6581 -0.2320
110.0400 36.6648 -0.2295
110.0600 36.6715 -0.2277
110.0800 36.6782 -0.2330
110.1000 36.6848 -0.2348
110.1200 36.6915 -0.2238
110.1400 36.6982 -0.2406
110.1600 36.7048 -0.2303
110.1800 36.7114 -0.2306
110.2000 36.7180 -0.2380
110.2200 36.7248 -0.2342
110.2400 36.7315 -0.2300
110.2600 36.7382 -0.2429
110.2800 36.7448 -0.2363
110.3000 36.7515 -0.2310
110.3200 36.7582 -0.2465
110.3400 36.7649 -0.2315
110.3600 36.7715 -0.2314
110.3800 36.7781 -0.2500
110.4000 36.7848 -0.2327
110.4200 36.7915 -0.2378
110.4400 36.7982 -0.2515
110.4600 36.8049 -0.2318
110.4800 36.8116 -0.2441
110.5000 36.8182 -0.2465
110.5200 36.8249 -0.2316
110.5400 36.8315 -0.2432
110.5600 36.8381 -0.2504
110.5800 36.8448 -0.2298
110.6000 36.8515 -0.2492
110.6200 36.8582 -0.2510
110.6400 36.8649 -0.2338
110.6600 36.8716 -0.2471
110.6800 36.8783 -0.2489
110.7000 36.8849 -0.2372
110.7200 36.8915 -0.2469
110.7400 36.8981 -0.2445
110.7600 36.9048 -0.2464
110.7800 36.9115 -0.2450
110.8000 36.9182 -0.2529
110.8200 36.9249 -0.2463
110.8400 36.9316 -0.2468
110.8600 36.9382 -0.2493
110.8800 36.9449 -0.2495
110.9000 36.9515 -0.2482
110.9200 36.9581 -0.2506
110.9400 36.9648 -0.2532
110.9600 36.9715 -0.2459
110.9800 36.9781 -0.2543
111.0000 36.9848 -0.2550
111.0200 36.9915 -0.2443
111.0400 36.9982 -0.2578
111.0600 37.0048 -0.2585
111.0800 37.0114 -0.2462
111.1000 37.0181 -0.2646
111.1200 37.0248 -0.2517
111.1400 37.0315 -0.2462
111.1600 37.0382 -0.2660
111.1800 37.0449 -0.2538
111.2000 37.0516 -0.2460
111.2200 37.0583 -0.2676
111.2400 37.0649 -0.2558
111.2600 37.0715 -0.2519
111.2800 37.0781 -0.2643
111.3000 37.0848 -0.2551
111.3200 37.0915 -0.2549
111.3400 37.0982 -0.2746
111.3600 37.1049 -0.2536
111.3800 37.1116 -0.2552
111.4000 37.1183 -0.2701
111.4200 37.1249 -0.2528
111.4400 37.1315 -0.2622
111.4600 37.1381 -0.2696
111.4800 37.1448 -0.2537
111.5000 37.1515 -0.2633
111.5200 37.1582 -0.2696
111.5400 37.1648 -0.2564
111.5600 37.1715 -0.2651
111.5800 37.1782 -0.2717
111.6000 37.1849 -0.2615
111.6200 37.1915 -0.2609
111.6400 37.1980 -0.2651
111.6600 37.2047 -0.2593
111.6800 37.2114 -0.2703
111.7000 37.2181 -0.2673
111.7200 37.2248 -0.2637
111.7400 37.2315 -0.2672
111.7600 37.2382 -0.2712
111.7800 37.2448 -0.2646
111.8000 37.2514 -0.2713
111.8200 37.2581 -0.2674
111.8400 37.2648 -0.2657
111.8600 37.2715 -0.2718
111.8800 37.2782 -0.2670
111.9000 37.2849 -0.2718
111.9200 37.2916 -0.2745
111.9400 37.2982 -0.2654
111.9600 37.3049 -0.2720
111.9800 37.3115 -0.2711
112.0000 37.3182 -0.2630
112.0200 37.3248 -0.2806
112.0400 37.3315 -0.2786
112.0600 37.3382 -0.2598
112.0800 37.3449 -0.2807
112.1000 37.3516 -0.2773
112.1200 37.3583 -0.2613
112.1400 37.3649 -0.2901
112.1600 37.3715 -0.2738
112.1800 37.3781 -0.2601
112.2000 37.3848 -0.2879
112.2200 37.3915 -0.2733
112.2400 37.3982 -0.2670
112.2600 37.4049 -0.2905
112.2800 37.4115 -0.2742
112.3000 37.4182 -0.2727
112.3200 37.4249 -0.2881
112.3400 37.4315 -0.2784
112.3600 37.4381 -0.2698
112.3800 37.4447 -0.2920
112.4000 37.4515 -0.2771
112.4200 37.4582 -0.2791
112.4400 37.4648 -0.2896
112.4600 37.4715 -0.2778
112.4800 37.4782 -0.2785
112.5000 37.4849 -0.2932
112.5200 37.4915 -0.2808
112.5400 37.4981 -0.2747
112.5600 37.5048 -0.2933
112.5800 37.5115 -0.2848
112.6000 37.5182 -0.2771
112.6200 37.5249 -0.2906
112.6400 37.5316 -0.2868
112.6600 37.5383 -0.2805
112.6800 37.5449 -0.2924
112.7000 37.5515 -0.2876
112.7200 37.5581 -0.2831
112.7400 37.5648 -0.2927
112.7600 37.5715 -0.2879
112.7800 37.5782 -0.2804
112.8000 37.5849 -0.2992
112.8200 37.5916 -0.2930
112.8400 37.5982 -0.2832
112.8600 37.6049 -0.2980
112.8800 37.6115 -0.2930
112.9000 37.6181 -0.2813
112.9200 37.6248 -0.3027
112.9400 37.6315 -0.2906
112.9600 37.6382 -0.2870
112.9800 37.6448 -0.3045
113.0000 37.6515 -0.2903
113.0200 37.6582 -0.2901
113.0400 37.6649 -0.3074
113.0600 37.6715 -0.2889
113.0800 37.6781 -0.2921
113.1000 37.6847 -0.3063
113.1200 37.6914 -0.2890
113.1400 37.6981 -0.2958
113.1600 37.7048 -0.3045
113.1800 37.7115 -0.2909
113.2000 37.7182 -0.3016
113.2200 37.7249 -0.3101
113.2400 37.7315 -0.2925
113.2600 37.7381 -0.2985
113.2800 37.7448 -0.3061
113.3000 37.7515 -0.2999
113.3200 37.7582 -0.2997
113.3400 37.7649 -0.3051
113.3600 37.7716 -0.3025
113.3800 37.7783 -0.3039
113.4000 37.7849 -0.3104
113.4200 37.7915 -0.3083
113.4400 37.7981 -0.2986
113.4600 37.8048 -0.3096
113.4800 37.8115 -0.3061
113.5000 37.8182 -0.3032
113.5200 37.8249 -0.3146
113.5400 37.8316 -0.3128
113.5600 37.8382 -0.2996
113.5800 37.8449 -0.3123
113.6000 37.8515 -0.3156
113.6200 37.8581 -0.3009
113.6400 37.8647 -0.3132
113.6600 37.8714 -0.3124
113.6800 37.8782 -0.3035
113.7000 37.8848 -0.3251
113.7200 37.8915 -0.3169
113.7400 37.8982 -0.2995
113.7600 37.9049 -0.3253
113.7800 37.9115 -0.3132
113.8000 37.9181 -0.3054
113.8200 37.9248 -0.3304
113.8400 37.9315 -0.3156
113.8600 37.9382 -0.3051
113.8800 37.9449 -0.3309
113.9000 37.9515 -0.3146
113.9200 37.9582 -0.3173
113.9400 37.9649 -0.3293
113.9600 37.9715 -0.3118
113.9800 37.9781 -0.3205
114.0000 37.9848 -0.3270
114.0200 37.9915 -0.3158
114.0400 37.9982 -0.3249
114.0600 38.0049 -0.3251
114.0800 38.0116 -0.3215
114.1000 38.0182 -0.3259
114.1200 38.0249 -0.3260
114.1400 38.0316 -0.3231
114.1600 38.0382 -0.3290
114.1800 38.0448 -0.3188
114.2000 38.0515 -0.3275
114.2200 38.0582 -0.3293
114.2400 38.0649 -0.3199
114.2600 38.0716 -0.3345
114.2800 38.0783 -0.3265
114.3000 38.0849 -0.3285
114.3200 38.0915 -0.3388
114.3400 38.0981 -0.3238
114.3600 38.1047 -0.3246
114.3800 38.1114 -0.3457
114.4000 38.1182 -0.3232
114.4200 38.1248 -0.3303
114.4400 38.1315 -0.3424
114.4600 38.1382 -0.3234
114.4800 38.1448 -0.3330
114.5000 38.1515 -0.3456
114.5200 38.1581 -0.3176
114.5400 38.1647 -0.3384
114.5600 38.1714 -0.3413
114.5800 38.1782 -0.3256
114.6000 38.1848 -0.3442
114.6200 38.1915 -0.3424
114.6400 38.1982 -0.3191
114.6600 38.2049 -0.3485
114.6800 38.2115 -0.3433
114.7000 38.2182 -0.3223
114.7200 38.2248 -0.3497
114.7400 38.2315 -0.3334
114.7600 38.2382 -0.3272
114.7800 38.2449 -0.3534
114.8000 38.2516 -0.3336
114.8200 38.2583 -0.3366
114.8400 38.2649 -0.3537
114.8600 38.2715 -0.3306
114.8800 38.2781 -0.3419
114.9000 38.2848 -0.3514
114.9200 38.2915 -0.3298
114.9400 38.2982 -0.3473
114.9600 38.3049 -0.3471
114.9800 38.3116 -0.3316
115.0000 38.3182 -0.3552
115.0200 38.3249 -0.3442
115.0400 38.3315 -0.3368
115.0600 38.3381 -0.3542
115.0800 38.3448 -0.3432
115.1000 38.3515 -0.3368
115.1200 38.3582 -0.3568
115.1400 38.3648 -0.3396
115.1600 38.3715 -0.3434
115.1800 38.3782 -0.3548
115.2000 38.3849 -0.3384
115.2200 38.3915 -0.3506
115.2400 38.3981 -0.3527
115.2600 38.4047 -0.3344
115.2800 38.4114 -0.3549
115.3000 38.4181 -0.3562
115.3200 38.4248 -0.3379
115.3400 38.4315 -0.3592
115.3600 38.4382 -0.3555
115.3800 38.4448 -0.3416
115.4000 38.4515 -0.3588
115.4200 38.4581 -0.3566
115.4400 38.4648 -0.3405
115.4600 38.4715 -0.3609
115.4800 38.4782 -0.3547
115.5000 38.4849 -0.3481
115.5200 38.4916 -0.3656
115.5400 38.4982 -0.3524
115.5600 38.5049 -0.3477
115.5800 38.5116 -0.3642
115.6000 38.5182 -0.3522
115.6200 38.5248 -0.3551
115.6400 38.5315 -0.3600
115.6600 38.5382 -0.3533
115.6800 38.5449 -0.3549
115.7000 38.5516 -0.3679
115.7200 38.5582 -0.3503
115.7400 38.5649 -0.3614
115.7600 38.5715 -0.3695
115.7800 38.5781 -0.3499
115.8000 38.5847 -0.3616
115.8200 38.5914 -0.3709
115.8400 38.5981 -0.3566
115.8600 38.6048 -0.3636
115.8800 38.6115 -0.3688
115.9000 38.6182 -0.3594
115.9200 38.6249 -0.3675
115.9400 38.6315 -0.3683
115.9600 38.6381 -0.3650
115.9800 38.6447 -0.3621
116.0000 38.6514 -0.3716
116.0200 38.6582 -0.3663
116.0400 38.6649 -0.3618
116.0600 38.6715 -0.3684
116.0800 38.6782 -0.3724
116.1000 38.6848 -0.3649
116.1200 38.6915 -0.3713
116.1400 38.6981 -0.3690
116.1600 38.7048 -0.3697
116.1800 38.7115 -0.3790
116.2000 38.7182 -0.3723
116.2200 38.7249 -0.3698
116.2400 38.7316 -0.3780
116.2600 38.7383 -0.3705
116.2800 38.7449 -0.3735
116.3000 38.7516 -0.3797
116.3200 38.7582 -0.3705
116.3400 38.7648 -0.3736
116.3600 38.7714 -0.3834
116.3800 38.7782 -0.3753
116.4000 38.7849 -0.3777
116.4200 38.7916 -0.3839
116.4400 38.7982 -0.3740
116.4600 38.8049 -0.3789
116.4800 38.8115 -0.3804
116.5000 38.8181 -0.3817
116.5200 38.8248 -0.3809
116.5400 38.8314 -0.3828
116.5600 38.8381 -0.3831
116.5800 38.8448 -0.3831
116.6000 38.8515 -0.3799
116.6200 38.8582 -0.3864
116.6400 38.8649 -0.3880
116.6600 38.8715 -0.3837
116.6800 38.8781 -0.3875
116.7000 38.8848 -0.3847
116.7200 38.8914 -0.3833
116.7400 38.8981 -0.3953
116.7600 38.9048 -0.3826
116.7800 38.9115 -0.3874
116.8000 38.9182 -0.4023
116.8200 38.9249 -0.3860
116.8400 38.9316 -0.3874
116.8600 38.9382 -0.4002
116.8800 38.9448 -0.3882
116.9000 38.9514 -0.3887
116.9200 38.9581 -0.4013
116.9400 38.9649 -0.3869
116.9600 38.9716 -0.3927
116.9800 38.9783 -0.4026
117.0000 38.9849 -0.3915
117.0200 38.9916 -0.3911
117.0400 38.9982 -0.4048
117.0600 39.0048 -0.3921
117.0800 39.0115 -0.3924
117.1000 39.0182 -0.4088
117.1200 39.0249 -0.3989
117.1400 39.0316 -0.3908
117.1600 39.0382 -0.4091
117.1800 39.0449 -0.3988
117.2000 39.0516 -0.3983
117.2200 39.0582 -0.4111
117.2400 39.0648 -0.4005
117.2600 39.0714 -0.3972
117.2800 39.0781 -0.4158
117.3000 39.0848 -0.4005
117.3200 39.0915 -0.3967
117.3400 39.0982 -0.4130
117.3600 39.1049 -0.4089
117.3800 39.1115 -0.3983
117.4000 39.1181 -0.4160
117.4200 39.1247 -0.4092
117.4400 39.1314 -0.3973
117.4600 39.1381 -0.4207
117.4800 39.1448 -0.4120
117.5000 39.1515 -0.4013
117.5200 39.1582 -0.4164
117.5400 39.1649 -0.4172
117.5600 39.1715 -0.3998
117.5800 39.1782 -0.4222
117.6000 39.1848 -0.4168
117.6200 39.1915 -0.4008
117.6400 39.1982 -0.4273
117.6600 39.2049 -0.4194
117.6800 39.2116 -0.4027
117.7000 39.2182 -0.4331
117.7200 39.2249 -0.4165
117.7400 39.2316 -0.4022
117.7600 39.2382 -0.4350
117.7800 39.2448 -0.4258
117.8000 39.2515 -0.4021
117.8200 39.2582 -0.4363
117.8400 39.2649 -0.4199
117.8600 39.2716 -0.4091
117.8800 39.2782 -0.4389
117.9000 39.2849 -0.4187
117.9200 39.2915 -0.4137
117.9400 39.2981 -0.4453
117.9600 39.3048 -0.4210
117.9800 39.3114 -0.4141
118.0000 39.3181 -0.4477
118.0200 39.3249 -0.4164
118.0400 39.3315 -0.4211
118.0600 39.3382 -0.4509
118.0800 39.3449 -0.4191
118.1000 39.3515 -0.4252
118.1200 39.3582 -0.4488
118.1400 39.3648 -0.4131
118.1600 39.3714 -0.4356
118.1800 39.3781 -0.4467
118.2000 39.3848 -0.4178
118.2200 39.3915 -0.4406
118.2400 39.3982 -0.4474
118.2600 39.4049 -0.4182
118.2800 39.4115 -0.4473
118.3000 39.4182 -0.4438
118.3200 39.4248 -0.4183
118.3400 39.4314 -0.4477
118.3600 39.4381 -0.4488
118.3800 39.4448 -0.4195
118.4000 39.4515 -0.4525
118.4200 39.4582 -0.4431
118.4400 39.4649 -0.4263
118.4600 39.4716 -0.4561
118.4800 39.4782 -0.4432
118.5000 39.4848 -0.4270
118.5200 39.4914 -0.4563
118.5400 39.4981 -0.4418
118.5600 39.5049 -0.4365
118.5800 39.5116 -0.4635
118.6000 39.5183 -0.4436
118.6200 39.5249 -0.4405
118.6400 39.5316 -0.4618
118.6600 39.5382 -0.4447
118.6800 39.5448 -0.4418
118.7000 39.5514 -0.4619
118.7200 39.5581 -0.4485
118.7400 39.5648 -0.4472
118.7600 39.5715 -0.4662
118.7800 39.5782 -0.4534
118.8000 39.5849 -0.4416
118.8200 39.5915 -0.4709
118.8400 39.5982 -0.4504
118.8600 39.6048 -0.4465
118.8800 39.6114 -0.4692
118.9000 39.6181 -0.4544
118.9200 39.6248 -0.4461
118.9400 39.6315 -0.4694
118.9600 39.6382 -0.4588
118.9800 39.6449 -0.4499
119.0000 39.6515 -0.4735
119.0200 39.6582 -0.4551
119.0400 39.6647 -0.4494
119.0600 39.6714 -0.4762
119.0800 39.6781 -0.4583
119.1000 39.6849 -0.4538
119.1200 39.6916 -0.4798
119.1400 39.6983 -0.4594
119.1600 39.7049 -0.4531
119.1800 39.7116 -0.4788
119.2000 39.7182 -0.4643
119.2200 39.7248 -0.4563
119.2400 39.7314 -0.4801
119.2600 39.7381 -0.4569
119.2800 39.7449 -0.4665
119.3000 39.7516 -0.4834
119.3200 39.7582 -0.4607
119.3400 39.7649 -0.4618
119.3600 39.7715 -0.4842
119.3800 39.7782 -0.4608
119.4000 39.7848 -0.4686
119.4200 39.7914 -0.4847
119.4400 39.7981 -0.4600
119.4600 39.8049 -0.4715
119.4800 39.8115 -0.4903
119.5000 39.8182 -0.4622
119.5200 39.8249 -0.4791
119.5400 39.8316 -0.4870
119.5600 39.8382 -0.4633
119.5800 39.8448 -0.4780
119.6000 39.8514 -0.4883
119.6200 39.8581 -0.4691
119.6400 39.8648 -0.4766
119.6600 39.8715 -0.4955
119.6800 39.8782 -0.4682
119.7000 39.8848 -0.4808
119.7200 39.8915 -0.4945
119.7400 39.8982 -0.4736
119.7600 39.9048 -0.4841
119.7800 39.9114 -0.4995
119.8000 39.9181 -0.4732
119.8200 39.9248 -0.4830
119.8400 39.9315 -0.5041
119.8600 39.9382 -0.4775
119.8800 39.9449 -0.4846
119.9000 39.9516 -0.5099
119.9200 39.9583 -0.4726
119.9400 39.9648 -0.4932
119.9600 39.9714 -0.5058
119.9800 39.9781 -0.4742
120.0000 39.9848 -0.4961
120.0200 39.9916 -0.5167
120.0400 39.9982 -0.4782
120.0460 40.0002 -0.4819
