Raw Data
Time Displacement Force
(s) (mm) (N)
0.0000 0.0000 0.3823
0.0200 0.0000 0.3796
0.0400 0.0010 0.4240
0.0600 0.0046 0.4230
0.0800 0.0103 0.3698
0.1000 0.0161 0.3880
0.1200 0.0221 0.4087
0.1400 0.0289 0.3814
0.1600 0.0362 0.3878
0.1800 0.0436 0.3955
0.2000 0.0508 0.3768
0.2200 0.0576 0.3911
0.2400 0.0643 0.3917
0.2600 0.0708 0.3857
0.2800 0.0775 0.3981
0.3000 0.0843 0.3974
0.3200 0.0910 0.3782
0.3400 0.0977 0.3988
0.3600 0.1044 0.3928
0.3800 0.1111 0.3863
0.4000 0.1178 0.4010
0.4200 0.1244 0.3927
0.4400 0.1310 0.3896
0.4600 0.1377 0.4006
0.4800 0.1444 0.3976
0.5000 0.1510 0.3934
0.5200 0.1577 0.3997
0.5400 0.1644 0.3986
0.5600 0.1711 0.3892
0.5800 0.1778 0.3949
0.6000 0.1844 0.4042
0.6200 0.1910 0.3921
0.6400 0.1976 0.3991
0.6600 0.2043 0.4051
0.6800 0.2111 0.3900
0.7000 0.2178 0.3996
0.7200 0.2244 0.4061
0.7400 0.2311 0.3873
0.7600 0.2378 0.4045
0.7800 0.2444 0.4006
0.8000 0.2510 0.3901
0.8200 0.2576 0.4071
0.8400 0.2643 0.4012
0.8600 0.2710 0.3843
0.8800 0.2777 0.4057
0.9000 0.2844 0.3993
0.9200 0.2911 0.3917
0.9400 0.2977 0.4020
0.9600 0.3044 0.3957
0.9800 0.3110 0.3872
1.0000 0.3176 0.4069
1.0200 0.3243 0.3960
1.0400 0.3310 0.3846
1.0600 0.3377 0.4097
1.0800 0.3444 0.3909
1.1000 0.3511 0.3881
1.1200 0.3578 0.4036
1.1400 0.3644 0.3886
1.1600 0.3710 0.3905
1.1800 0.3777 0.3981
1.2000 0.3843 0.3843
1.2200 0.3911 0.3899
1.2400 0.3978 0.4002
1.2600 0.4045 0.3824
1.2800 0.4111 0.3856
1.3000 0.4178 0.4012
1.3200 0.4244 0.3808
1.3400 0.4310 0.3847
1.3600 0.4377 0.3952
1.3800 0.4444 0.3835
1.4000 0.4511 0.3781
1.4200 0.4578 0.3971
1.4400 0.4644 0.3749
1.4600 0.4711 0.3829
1.4800 0.4778 0.3911
1.5000 0.4844 0.3721
1.5200 0.4910 0.3832
1.5400 0.4976 0.3900
1.5600 0.5043 0.3716
1.5800 0.5110 0.3803
1.6000 0.5177 0.3870
1.6200 0.5244 0.3741
1.6400 0.5311 0.3804
1.6600 0.5377 0.3772
1.6800 0.5443 0.3748
1.7000 0.5509 0.3773
1.7200 0.5575 0.3825
1.7400 0.5642 0.3722
1.7600 0.5710 0.3707
1.7800 0.5777 0.3725
1.8000 0.5844 0.3771
1.8200 0.5910 0.3716
1.8400 0.5977 0.3719
1.8600 0.6044 0.3743
1.8800 0.6110 0.3687
1.9000 0.6176 0.3779
1.9200 0.6243 0.3741
1.9400 0.6310 0.3602
1.9600 0.6377 0.3782
1.9800 0.6444 0.3708
2.0000 0.6511 0.3587
2.0200 0.6578 0.3725
2.0400 0.6644 0.3760
2.0600 0.6710 0.3599
2.0800 0.6777 0.3713
2.1000 0.6843 0.3715
2.1200 0.6910 0.3647
2.1400 0.6977 0.3750
2.1600 0.7044 0.3652
2.1800 0.7111 0.3612
2.2000 0.7178 0.3734
2.2200 0.7244 0.3691
2.2400 0.7310 0.3624
2.2600 0.7376 0.3738
2.2800 0.7443 0.3651
2.3000 0.7511 0.3641
2.3200 0.7577 0.3659
2.3400 0.7644 0.3651
2.3600 0.7711 0.3658
2.3800 0.7777 0.3704
2.4000 0.7844 0.3636
2.4200 0.7910 0.3622
2.4400 0.7976 0.3620
2.4600 0.8043 0.3644
2.4800 0.8110 0.3600
2.5000 0.8177 0.3628
2.5200 0.8244 0.3612
2.5400 0.8310 0.3567
2.5600 0.8377 0.3624
2.5800 0.8444 0.3578
2.6000 0.8510 0.3554
2.6200 0.8577 0.3637
2.6400 0.8643 0.3593
2.6600 0.8710 0.3560
2.6800 0.8777 0.3624
2.7000 0.8844 0.3601
2.7200 0.8911 0.3537
2.7400 0.8978 0.3555
2.7600 0.9044 0.3610
2.7800 0.9110 0.3519
2.8000 0.9176 0.3589
2.8200 0.9243 0.3559
2.8400 0.9311 0.3527
2.8600 0.9378 0.3542
2.8800 0.9444 0.3605
2.9000 0.9511 0.3541
2.9200 0.9578 0.3543
2.9400 0.9644 0.3477
2.9600 0.9710 0.3531
2.9800 0.9776 0.3611
3.0000 0.9843 0.3533
3.0200 0.9910 0.3448
3.0400 0.9977 0.3561
3.0600 1.0044 0.3566
3.0800 1.0110 0.3487
3.1000 1.0177 0.3563
3.1200 1.0244 0.3566
3.1400 1.0310 0.3462
3.1600 1.0376 0.3523
3.1800 1.0443 0.3579
3.2000 1.0510 0.3526
3.2200 1.0577 0.3521
3.2400 1.0644 0.3568
3.2600 1.0711 0.3528
3.2800 1.0777 0.3503
3.3000 1.0844 0.3610
3.3200 1.0910 0.3469
3.3400 1.0976 0.3511
3.3600 1.1043 0.3559
3.3800 1.1111 0.3489
3.4000 1.1178 0.3511
3.4200 1.1245 0.3581
3.4400 1.1311 0.3458
3.4600 1.1378 0.3515
3.4800 1.1444 0.3517
3.5000 1.1510 0.3479
3.5200 1.1577 0.3524
3.5400 1.1643 0.3554
3.5600 1.1710 0.3449
3.5800 1.1777 0.3508
3.6000 1.1844 0.3501
3.6200 1.1911 0.3451
3.6400 1.1978 0.3519
3.6600 1.2044 0.3492
3.6800 1.2110 0.3424
3.7000 1.2176 0.3491
3.7200 1.2243 0.3489
3.7400 1.2310 0.3456
3.7600 1.2377 0.3499
3.7800 1.2444 0.3452
3.8000 1.2511 0.3480
3.8200 1.2578 0.3421
3.8400 1.2644 0.3427
3.8600 1.2710 0.3509
3.8800 1.2776 0.3485
3.9000 1.2843 0.3397
3.9200 1.2910 0.3399
3.9400 1.2977 0.3444
3.9600 1.3044 0.3401
3.9800 1.3110 0.3429
4.0000 1.3177 0.3457
4.0200 1.3244 0.3351
4.0400 1.3310 0.3476
4.0600 1.3377 0.3397
4.0800 1.3443 0.3383
4.1000 1.3510 0.3455
4.1200 1.3577 0.3368
4.1400 1.3644 0.3444
4.1600 1.3711 0.3473
4.1800 1.3778 0.3347
4.2000 1.3845 0.3436
4.2200 1.3911 0.3464
4.2400 1.3977 0.3317
4.2600 1.4043 0.3452
4.2800 1.4110 0.3433
4.3000 1.4178 0.3318
4.3200 1.4244 0.3457
4.3400 1.4311 0.3381
4.3600 1.4378 0.3290
4.3800 1.4444 0.3486
4.4000 1.4510 0.3376
4.4200 1.4576 0.3301
4.4400 1.4643 0.3375
4.4600 1.4710 0.3389
4.4800 1.4777 0.3304
4.5000 1.4844 0.3380
4.5200 1.4910 0.3300
4.5400 1.4977 0.3323
4.5600 1.5044 0.3349
4.5800 1.5110 0.3297
4.6000 1.5176 0.3287
4.6200 1.5243 0.3359
4.6400 1.5310 0.3297
4.6600 1.5377 0.3246
4.6800 1.5444 0.3355
4.7000 1.5511 0.3296
4.7200 1.5578 0.3287
4.7400 1.5645 0.3285
4.7600 1.5711 0.3296
4.7800 1.5777 0.3268
4.8000 1.5843 0.3313
4.8200 1.5910 0.3263
4.8400 1.5977 0.3267
4.8600 1.6044 0.3305
4.8800 1.6111 0.3254
4.9000 1.6177 0.3261
4.9200 1.6244 0.3294
4.9400 1.6310 0.3252
4.9600 1.6376 0.3265
4.9800 1.6443 0.3240
5.0000 1.6510 0.3263
5.0200 1.6577 0.3225
5.0400 1.6644 0.3237
5.0600 1.6711 0.3284
5.0800 1.6778 0.3248
5.1000 1.6845 0.3186
5.1200 1.6911 0.3266
5.1400 1.6977 0.3228
5.1600 1.7043 0.3264
5.1800 1.7110 0.3290
5.2000 1.7177 0.3205
5.2200 1.7244 0.3233
5.2400 1.7311 0.3268
5.2600 1.7378 0.3172
5.2800 1.7444 0.3204
5.3000 1.7510 0.3270
5.3200 1.7576 0.3197
5.3400 1.7643 0.3215
5.3600 1.7710 0.3257
5.3800 1.7777 0.3207
5.4000 1.7844 0.3146
5.4200 1.7911 0.3215
5.4400 1.7977 0.3208
5.4600 1.8044 0.3187
5.4800 1.8110 0.3138
5.5000 1.8176 0.3246
5.5200 1.8243 0.3178
5.5400 1.8310 0.3193
5.5600 1.8377 0.3182
5.5800 1.8444 0.3108
5.6000 1.8511 0.3231
5.6200 1.8578 0.3231
5.6400 1.8645 0.3061
5.6600 1.8711 0.3219
5.6800 1.8777 0.3178
5.7000 1.8843 0.3104
5.7200 1.8910 0.3279
5.7400 1.8977 0.3071
5.7600 1.9044 0.3063
5.7800 1.9111 0.3296
5.8000 1.9178 0.3129
5.8200 1.9244 0.3027
5.8400 1.9310 0.3251
5.8600 1.9376 0.3133
5.8800 1.9443 0.3135
5.9000 1.9510 0.3173
5.9200 1.9577 0.3083
5.9400 1.9644 0.3098
5.9600 1.9711 0.3180
5.9800 1.9778 0.3122
6.0000 1.9844 0.3132
6.0200 1.9910 0.3100
6.0400 1.9976 0.3158
6.0600 2.0043 0.3132
6.0800 2.0110 0.3062
6.1000 2.0177 0.3157
6.1200 2.0243 0.3094
6.1400 2.0310 0.3118
6.1600 2.0377 0.3145
6.1800 2.0444 0.3029
6.2000 2.0511 0.3187
6.2200 2.0577 0.3119
6.2400 2.0643 0.2981
6.2600 2.0710 0.3244
6.2800 2.0777 0.3107
6.3000 2.0844 0.2993
6.3200 2.0911 0.3166
6.3400 2.0978 0.3072
6.3600 2.1045 0.3000
6.3800 2.1111 0.3189
6.4000 2.1177 0.3005
6.4200 2.1243 0.3020
6.4400 2.1311 0.3195
6.4600 2.1378 0.3035
6.4800 2.1444 0.3020
6.5000 2.1511 0.3143
6.5200 2.1577 0.3005
6.5400 2.1644 0.3017
6.5600 2.1711 0.3118
6.5800 2.1777 0.3030
6.6000 2.1843 0.2980
6.6200 2.1910 0.3107
6.6400 2.1977 0.2990
6.6600 2.2044 0.2992
6.6800 2.2111 0.3090
6.7000 2.2177 0.3021
6.7200 2.2244 0.2950
6.7400 2.2311 0.3036
6.7600 2.2377 0.3047
6.7800 2.2443 0.2985
6.8000 2.2510 0.3013
6.8200 2.2577 0.3019
6.8400 2.2644 0.3051
6.8600 2.2711 0.2928
6.8800 2.2778 0.2990
6.9000 2.2844 0.3028
6.9200 2.2910 0.2984
6.9400 2.2977 0.2934
6.9600 2.3043 0.3032
6.9800 2.3110 0.2947
7.0000 2.3177 0.2969
7.0200 2.3244 0.3000
7.0400 2.3311 0.2957
7.0600 2.3378 0.2938
7.0800 2.3444 0.3018
7.1000 2.3511 0.2922
7.1200 2.3577 0.2945
7.1400 2.3644 0.3003
7.1600 2.3710 0.2911
7.1800 2.3777 0.2887
7.2000 2.3844 0.2940
7.2200 2.3911 0.2926
7.2400 2.3978 0.2961
7.2600 2.4045 0.2951
7.2800 2.4111 0.2860
7.3000 2.4177 0.2948
7.3200 2.4243 0.2972
7.3400 2.4310 0.2867
7.3600 2.4377 0.2928
7.3800 2.4444 0.2955
7.4000 2.4511 0.2817
7.4200 2.4578 0.2970
7.4400 2.4644 0.2903
7.4600 2.4710 0.2865
7.4800 2.4776 0.2953
7.5000 2.4843 0.2874
7.5200 2.4909 0.2845
7.5400 2.4977 0.2982
7.5600 2.5044 0.2837
7.5800 2.5110 0.2822
7.6000 2.5177 0.2934
7.6200 2.5244 0.2848
7.6400 2.5310 0.2793
7.6600 2.5377 0.2923
7.6800 2.5443 0.2823
7.7000 2.5510 0.2794
7.7200 2.5577 0.2936
7.7400 2.5644 0.2822
7.7600 2.5711 0.2769
7.7800 2.5778 0.2874
7.8000 2.5845 0.2839
7.8200 2.5911 0.2735
7.8400 2.5977 0.2921
7.8600 2.6043 0.2816
7.8800 2.6110 0.2775
7.9000 2.6177 0.2852
7.9200 2.6244 0.2785
7.9400 2.6311 0.2722
7.9600 2.6378 0.2908
7.9800 2.6444 0.2745
8.0000 2.6511 0.2743
8.0200 2.6577 0.2893
8.0400 2.6643 0.2763
8.0600 2.6710 0.2707
8.0800 2.6777 0.2924
8.1000 2.6844 0.2739
8.1200 2.6911 0.2700
8.1400 2.6977 0.2940
8.1600 2.7044 0.2712
8.1800 2.7111 0.2721
8.2000 2.7177 0.2902
8.2200 2.7243 0.2692
8.2400 2.7310 0.2784
8.2600 2.7377 0.2914
8.2800 2.7444 0.2687
8.3000 2.7510 0.2737
8.3200 2.7577 0.2881
8.3400 2.7644 0.2712
8.3600 2.7710 0.2673
8.3800 2.7777 0.2892
8.4000 2.7843 0.2670
8.4200 2.7910 0.2671
8.4400 2.7977 0.2890
8.4600 2.8044 0.2697
8.4800 2.8111 0.2682
8.5000 2.8178 0.2848
8.5200 2.8245 0.2686
8.5400 2.8311 0.2649
8.5600 2.8377 0.2845
8.5800 2.8443 0.2698
8.6000 2.8510 0.2629
8.6200 2.8577 0.2838
8.6400 2.8644 0.2635
8.6600 2.8711 0.2662
8.6800 2.8778 0.2798
8.7000 2.8844 0.2660
8.7200 2.8911 0.2659
8.7400 2.8977 0.2750
8.7600 2.9043 0.2713
8.7800 2.9110 0.2606
8.8000 2.9177 0.2746
8.8200 2.9244 0.2676
8.8400 2.9310 0.2664
8.8600 2.9377 0.2703
8.8800 2.9444 0.2678
8.9000 2.9511 0.2632
8.9200 2.9577 0.2661
8.9400 2.9643 0.2702
8.9600 2.9709 0.2647
8.9800 2.9777 0.2654
9.0000 2.9844 0.2666
9.0200 2.9911 0.2560
9.0400 2.9977 0.2745
9.0600 3.0044 0.2589
9.0800 3.0111 0.2547
9.1000 3.0177 0.2726
9.1200 3.0243 0.2621
9.1400 3.0310 0.2559
9.1600 3.0377 0.2707
9.1800 3.0444 0.2615
9.2000 3.0511 0.2575
9.2200 3.0578 0.2705
9.2400 3.0644 0.2593
9.2600 3.0711 0.2494
9.2800 3.0777 0.2673
9.3000 3.0843 0.2581
9.3200 3.0910 0.2535
9.3400 3.0976 0.2648
9.3600 3.1044 0.2590
9.3800 3.1111 0.2544
9.4000 3.1178 0.2614
9.4200 3.1245 0.2641
9.4400 3.1311 0.2525
9.4600 3.1377 0.2620
9.4800 3.1443 0.2560
9.5000 3.1510 0.2509
9.5200 3.1577 0.2613
9.5400 3.1644 0.2608
9.5600 3.1711 0.2484
9.5800 3.1778 0.2613
9.6000 3.1844 0.2574
9.6200 3.1911 0.2467
9.6400 3.1977 0.2573
9.6600 3.2043 0.2612
9.6800 3.2110 0.2476
9.7000 3.2177 0.2568
9.7200 3.2243 0.2531
9.7400 3.2310 0.2460
9.7600 3.2377 0.2591
9.7800 3.2444 0.2497
9.8000 3.2511 0.2470
9.8200 3.2577 0.2569
9.8400 3.2643 0.2548
9.8600 3.2710 0.2468
9.8800 3.2777 0.2542
9.9000 3.2844 0.2530
9.9200 3.2911 0.2488
9.9400 3.2978 0.2522
9.9600 3.3045 0.2511
9.9800 3.3112 0.2469
10.0000 3.3178 0.2541
10.0200 3.3243 0.2540
10.0400 3.3310 0.2520
10.0600 3.3377 0.2473
10.0800 3.3444 0.2535
10.1000 3.3511 0.2470
10.1200 3.3578 0.2513
10.1400 3.3644 0.2591
10.1600 3.3711 0.2413
10.1800 3.3777 0.2505
10.2000 3.3843 0.2542
10.2200 3.3910 0.2446
10.2400 3.3977 0.2476
10.2600 3.4044 0.2505
10.2800 3.4110 0.2481
10.3000 3.4177 0.2481
10.3200 3.4244 0.2483
10.3400 3.4311 0.2463
10.3600 3.4377 0.2421
10.3800 3.4443 0.2563
10.4000 3.4509 0.2414
10.4200 3.4576 0.2398
10.4400 3.4643 0.2502
10.4600 3.4710 0.2464
10.4800 3.4777 0.2405
10.5000 3.4844 0.2474
10.5200 3.4911 0.2436
10.5400 3.4977 0.2419
10.5600 3.5043 0.2498
10.5800 3.5110 0.2419
10.6000 3.5177 0.2385
10.6200 3.5244 0.2504
10.6400 3.5311 0.2365
10.6600 3.5377 0.2444
10.6800 3.5444 0.2479
10.7000 3.5511 0.2358
10.7200 3.5578 0.2419
10.7400 3.5644 0.2466
10.7600 3.5710 0.2401
10.7800 3.5777 0.2376
10.8000 3.5844 0.2428
10.8200 3.5911 0.2384
10.8400 3.5978 0.2396
10.8600 3.6045 0.2436
10.8800 3.6111 0.2362
10.9000 3.6178 0.2363
10.9200 3.6243 0.2457
10.9400 3.6310 0.2366
10.9600 3.6376 0.2393
10.9800 3.6444 0.2392
11.0000 3.6511 0.2335
11.0200 3.6577 0.2385
11.0400 3.6644 0.2410
11.0600 3.6711 0.2342
11.0800 3.6777 0.2344
11.1000 3.6843 0.2384
11.1200 3.6909 0.2358
11.1400 3.6976 0.2319
11.1600 3.7044 0.2385
11.1800 3.7110 0.2286
11.2000 3.7177 0.2327
11.2200 3.7244 0.2360
11.2400 3.7311 0.2333
11.2600 3.7377 0.2329
11.2800 3.7444 0.2357
11.3000 3.7510 0.2318
11.3200 3.7577 0.2326
11.3400 3.7644 0.2378
11.3600 3.7711 0.2302
11.3800 3.7778 0.2296
11.4000 3.7845 0.2310
11.4200 3.7912 0.2349
11.4400 3.7978 0.2241
11.4600 3.8043 0.2277
11.4800 3.8110 0.2352
11.5000 3.8177 0.2260
11.5200 3.8244 0.2302
11.5400 3.8311 0.2362
11.5600 3.8378 0.2189
11.5800 3.8445 0.2331
11.6000 3.8511 0.2305
11.6200 3.8577 0.2241
11.6400 3.8644 0.2342
11.6600 3.8710 0.2350
11.6800 3.8777 0.2173
11.7000 3.8844 0.2318
11.7200 3.8911 0.2381
11.7400 3.8977 0.2207
11.7600 3.9044 0.2322
11.7800 3.9111 0.2352
11.8000 3.9177 0.2184
11.8200 3.9243 0.2314
11.8400 3.9309 0.2341
11.8600 3.9376 0.2194
11.8800 3.9443 0.2285
11.9000 3.9510 0.2315
11.9200 3.9577 0.2180
11.9400 3.9644 0.2254
11.9600 3.9711 0.2347
11.9800 3.9777 0.2092
12.0000 3.9843 0.2362
12.0200 3.9910 0.2340
12.0400 3.9976 0.2128
12.0600 4.0044 0.2325
12.0800 4.0111 0.2318
12.1000 4.0178 0.2103
12.1200 4.0245 0.2314
12.1400 4.0311 0.2279
12.1600 4.0378 0.2096
12.1800 4.0444 0.2299
12.2000 4.0510 0.2314
12.2200 4.0577 0.2134
12.2400 4.0644 0.2265
12.2600 4.0711 0.2296
12.2800 4.0777 0.2132
12.3000 4.0844 0.2261
12.3200 4.0911 0.2258
12.3400 4.0977 0.2176
12.3600 4.1044 0.2200
12.3800 4.1110 0.2223
12.4000 4.1176 0.2205
12.4200 4.1244 0.2193
12.4400 4.1311 0.2207
12.4600 4.1377 0.2216
12.4800 4.1444 0.2161
12.5000 4.1511 0.2229
12.5200 4.1577 0.2176
12.5400 4.1643 0.2193
12.5600 4.1709 0.2245
12.5800 4.1776 0.2194
12.6000 4.1843 0.2155
12.6200 4.1910 0.2262
12.6400 4.1977 0.2171
12.6600 4.2044 0.2184
12.6800 4.2110 0.2194
12.7000 4.2177 0.2159
12.7200 4.2243 0.2186
12.7400 4.2310 0.2282
12.7600 4.2376 0.2167
12.7800 4.2444 0.2195
12.8000 4.2511 0.2196
12.8200 4.2578 0.2177
12.8400 4.2644 0.2160
12.8600 4.2711 0.2130
12.8800 4.2778 0.2232
12.9000 4.2844 0.2163
12.9200 4.2910 0.2192
12.9400 4.2977 0.2203
12.9600 4.3044 0.2170
12.9800 4.3111 0.2143
13.0000 4.3178 0.2199
13.0200 4.3245 0.2161
13.0400 4.3311 0.2150
13.0600 4.3378 0.2196
13.0800 4.3444 0.2127
13.1000 4.3510 0.2160
13.1200 4.3576 0.2236
13.1400 4.3643 0.2083
13.1600 4.3710 0.2165
13.1800 4.3777 0.2197
13.2000 4.3844 0.2084
13.2200 4.3911 0.2113
13.2400 4.3977 0.2205
13.2600 4.4044 0.2032
13.2800 4.4110 0.2134
13.3000 4.4176 0.2232
13.3200 4.4243 0.2050
13.3400 4.4310 0.2134
13.3600 4.4377 0.2146
13.3800 4.4443 0.2045
13.4000 4.4510 0.2124
13.4200 4.4577 0.2133
13.4400 4.4644 0.1987
13.4600 4.4710 0.2162
13.4800 4.4776 0.2123
13.5000 4.4843 0.2024
13.5200 4.4911 0.2141
13.5400 4.4978 0.2108
13.5600 4.5044 0.1990
13.5800 4.5111 0.2138
13.6000 4.5178 0.2080
13.6200 4.5244 0.2039
13.6400 4.5310 0.2108
13.6600 4.5376 0.2093
13.6800 4.5444 0.2052
13.7000 4.5511 0.2129
13.7200 4.5578 0.2087
13.7400 4.5644 0.2057
13.7600 4.5711 0.2108
13.7800 4.5778 0.2052
13.8000 4.5844 0.2000
13.8200 4.5910 0.2097
13.8400 4.5977 0.2083
13.8600 4.6043 0.1986
13.8800 4.6110 0.2079
13.9000 4.6177 0.2084
13.9200 4.6244 0.1998
13.9400 4.6311 0.2108
13.9600 4.6377 0.2093
13.9800 4.6443 0.1955
14.0000 4.6509 0.2123
14.0200 4.6576 0.2084
14.0400 4.6643 0.2003
14.0600 4.6710 0.2075
14.0800 4.6777 0.2058
14.1000 4.6844 0.2013
14.1200 4.6910 0.2076
14.1400 4.6977 0.1980
14.1600 4.7043 0.2033
14.1800 4.7109 0.2110
14.2000 4.7176 0.1999
14.2200 4.7244 0.1982
14.2400 4.7311 0.2115
14.2600 4.7378 0.2006
14.2800 4.7445 0.1951
14.3000 4.7511 0.2079
14.3200 4.7578 0.2009
14.3400 4.7644 0.1956
14.3600 4.7711 0.2070
14.3800 4.7777 0.2052
14.4000 4.7844 0.1937
14.4200 4.7911 0.2050
14.4400 4.7978 0.2002
14.4600 4.8045 0.1949
14.4800 4.8111 0.2037
14.5000 4.8178 0.2020
14.5200 4.8244 0.1955
14.5400 4.8310 0.2056
14.5600 4.8376 0.1992
14.5800 4.8443 0.1964
14.6000 4.8510 0.2006
14.6200 4.8577 0.2009
14.6400 4.8644 0.1947
14.6600 4.8711 0.2021
14.6800 4.8777 0.1920
14.7000 4.8843 0.1997
14.7200 4.8910 0.2009
14.7400 4.8976 0.1904
14.7600 4.9043 0.1971
14.7800 4.9111 0.1946
14.8000 4.9178 0.1920
14.8200 4.9244 0.1992
14.8400 4.9311 0.1968
14.8600 4.9378 0.1919
14.8800 4.9444 0.1970
14.9000 4.9510 0.1983
14.9200 4.9577 0.1902
14.9400 4.9644 0.1919
14.9600 4.9711 0.1938
14.9800 4.9777 0.1891
15.0000 4.9844 0.1964
15.0200 4.9911 0.1885
15.0400 4.9978 0.1908
15.0600 5.0044 0.1912
15.0800 5.0110 0.1911
15.1000 5.0176 0.1915
15.1200 5.0243 0.1940
15.1400 5.0311 0.1893
15.1600 5.0378 0.1911
15.1800 5.0444 0.1906
15.2000 5.0511 0.1879
15.2200 5.0578 0.1899
15.2400 5.0644 0.1943
15.2600 5.0710 0.1865
15.2800 5.0776 0.1897
15.3000 5.0843 0.1901
15.3200 5.0910 0.1854
15.3400 5.0977 0.1914
15.3600 5.1044 0.1899
15.3800 5.1111 0.1854
15.4000 5.1177 0.1909
15.4200 5.1244 0.1901
15.4400 5.1310 0.1806
15.4600 5.1376 0.1962
15.4800 5.1443 0.1888
15.5000 5.1510 0.1792
15.5200 5.1577 0.1934
15.5400 5.1644 0.1935
15.5600 5.1711 0.1776
15.5800 5.1778 0.1897
15.6000 5.1844 0.1888
15.6200 5.1910 0.1826
15.6400 5.1976 0.1890
15.6600 5.2043 0.1901
15.6800 5.2111 0.1796
15.7000 5.2178 0.1909
15.7200 5.2245 0.1850
15.7400 5.2311 0.1781
15.7600 5.2378 0.1889
15.7800 5.2444 0.1832
15.8000 5.2510 0.1784
15.8200 5.2577 0.1874
15.8400 5.2644 0.1873
15.8600 5.2711 0.1734
15.8800 5.2778 0.1868
15.9000 5.2844 0.1880
15.9200 5.2911 0.1714
15.9400 5.2978 0.1855
15.9600 5.3044 0.1876
15.9800 5.3110 0.1684
16.0000 5.3176 0.1832
16.0200 5.3243 0.1867
16.0400 5.3310 0.1727
16.0600 5.3377 0.1800
16.0800 5.3444 0.1837
16.1000 5.3511 0.1687
16.1200 5.3578 0.1804
16.1400 5.3644 0.1804
16.1600 5.3710 0.1682
16.1800 5.3776 0.1776
16.2000 5.3843 0.1817
16.2200 5.3910 0.1684
16.2400 5.3977 0.1758
16.2600 5.4044 0.1779
16.2800 5.4111 0.1705
16.3000 5.4177 0.1792
16.3200 5.4244 0.1727
16.3400 5.4310 0.1663
16.3600 5.4376 0.1752
16.3800 5.4443 0.1825
16.4000 5.4510 0.1655
16.4200 5.4577 0.1744
16.4400 5.4644 0.1805
16.4600 5.4711 0.1705
16.4800 5.4778 0.1751
16.5000 5.4845 0.1743
16.5200 5.4911 0.1753
16.5400 5.4977 0.1781
16.5600 5.5043 0.1689
16.5800 5.5110 0.1719
16.6000 5.5178 0.1749
16.6200 5.5244 0.1735
16.6400 5.5311 0.1691
16.6600 5.5378 0.1766
16.6800 5.5444 0.1720
16.7000 5.5510 0.1739
16.7200 5.5576 0.1715
16.7400 5.5643 0.1712
16.7600 5.5710 0.1787
16.7800 5.5777 0.1655
16.8000 5.5844 0.1757
16.8200 5.5911 0.1770
16.8400 5.5977 0.1688
16.8600 5.6044 0.1708
16.8800 5.6110 0.1695
16.9000 5.6176 0.1697
16.9200 5.6243 0.1774
16.9400 5.6310 0.1719
16.9600 5.6377 0.1688
16.9800 5.6444 0.1692
17.0000 5.6511 0.1702
17.0200 5.6578 0.1723
17.0400 5.6644 0.1756
17.0600 5.6710 0.1622
17.0800 5.6777 0.1772
17.1000 5.6843 0.1724
17.1200 5.6910 0.1651
17.1400 5.6978 0.1712
17.1600 5.7044 0.1678
17.1800 5.7111 0.1656
17.2000 5.7178 0.1727
17.2200 5.7244 0.1730
17.2400 5.7310 0.1634
17.2600 5.7376 0.1696
17.2800 5.7443 0.1721
17.3000 5.7510 0.1650
17.3200 5.7578 0.1670
17.3400 5.7644 0.1717
17.3600 5.7711 0.1658
17.3800 5.7778 0.1669
17.4000 5.7844 0.1636
17.4200 5.7910 0.1709
17.4400 5.7977 0.1647
17.4600 5.8043 0.1646
17.4800 5.8110 0.1631
17.5000 5.8177 0.1692
17.5200 5.8244 0.1646
17.5400 5.8310 0.1666
17.5600 5.8377 0.1634
17.5800 5.8444 0.1638
17.6000 5.8510 0.1654
17.6200 5.8576 0.1626
17.6400 5.8643 0.1658
17.6600 5.8710 0.1666
17.6800 5.8777 0.1565
17.7000 5.8844 0.1672
17.7200 5.8911 0.1648
17.7400 5.8978 0.1566
17.7600 5.9044 0.1669
17.7800 5.9110 0.1590
17.8000 5.9177 0.1612
17.8200 5.9243 0.1657
17.8400 5.9311 0.1614
17.8600 5.9378 0.1585
17.8800 5.9445 0.1618
17.9000 5.9511 0.1601
17.9200 5.9578 0.1600
17.9400 5.9644 0.1650
17.9600 5.9710 0.1581
17.9800 5.9777 0.1601
18.0000 5.9843 0.1647
18.0200 5.9910 0.1584
18.0400 5.9977 0.1648
18.0600 6.0044 0.1552
18.0800 6.0111 0.1589
18.1000 6.0178 0.1617
18.1200 6.0244 0.1540
18.1400 6.0310 0.1616
18.1600 6.0376 0.1581
18.1800 6.0443 0.1554
18.2000 6.0510 0.1621
18.2200 6.0577 0.1551
18.2400 6.0644 0.1525
18.2600 6.0711 0.1612
18.2800 6.0778 0.1531
18.3000 6.0844 0.1531
18.3200 6.0910 0.1630
18.3400 6.0976 0.1524
18.3600 6.1043 0.1518
18.3800 6.1110 0.1656
18.4000 6.1177 0.1459
18.4200 6.1244 0.1517
18.4400 6.1310 0.1591
18.4600 6.1377 0.1458
18.4800 6.1444 0.1509
18.5000 6.1510 0.1622
18.5200 6.1576 0.1435
18.5400 6.1643 0.1536
18.5600 6.1710 0.1544
18.5800 6.1777 0.1448
18.6000 6.1844 0.1531
18.6200 6.1911 0.1536
18.6400 6.1978 0.1468
18.6600 6.2045 0.1511
18.6800 6.2111 0.1511
18.7000 6.2177 0.1479
18.7200 6.2243 0.1513
18.7400 6.2310 0.1452
18.7600 6.2378 0.1508
18.7800 6.2444 0.1472
18.8000 6.2511 0.1454
18.8200 6.2578 0.1482
18.8400 6.2644 0.1486
18.8600 6.2710 0.1437
18.8800 6.2776 0.1443
18.9000 6.2843 0.1420
18.9200 6.2910 0.1494
18.9400 6.2977 0.1428
18.9600 6.3044 0.1347
18.9800 6.3110 0.1478
19.0000 6.3177 0.1483
19.0200 6.3244 0.1296
19.0400 6.3310 0.1491
19.0600 6.3376 0.1426
19.0800 6.3443 0.1347
19.1000 6.3510 0.1482
19.1200 6.3577 0.1357
19.1400 6.3644 0.1343
19.1600 6.3711 0.1577
19.1800 6.3778 0.1314
19.2000 6.3844 0.1258
19.2200 6.3911 0.1581
19.2400 6.3977 0.1309
19.2600 6.4043 0.1324
19.2800 6.4110 0.1535
19.3000 6.4177 0.1320
19.3200 6.4244 0.1359
19.3400 6.4311 0.1477
19.3600 6.4378 0.1272
19.3800 6.4444 0.1403
19.4000 6.4510 0.1475
19.4200 6.4577 0.1233
19.4400 6.4643 0.1396
19.4600 6.4710 0.1498
19.4800 6.4777 0.1230
19.5000 6.4844 0.1377
19.5200 6.4911 0.1464
19.5400 6.4978 0.1300
19.5600 6.5045 0.1323
19.5800 6.5111 0.1421
19.6000 6.5177 0.1340
19.6200 6.5243 0.1366
19.6400 6.5310 0.1411
19.6600 6.5377 0.1310
19.6800 6.5444 0.1340
19.7000 6.5511 0.1358
19.7200 6.5578 0.1384
19.7400 6.5644 0.1308
19.7600 6.5711 0.1298
19.7800 6.5776 0.1353
19.8000 6.5843 0.1342
19.8200 6.5910 0.1329
19.8400 6.5977 0.1325
19.8600 6.6044 0.1311
19.8800 6.6111 0.1328
19.9000 6.6177 0.1286
19.9200 6.6244 0.1311
19.9400 6.6310 0.1334
19.9600 6.6376 0.1344
19.9800 6.6443 0.1208
20.0000 6.6510 0.1361
20.0200 6.6577 0.1377
20.0400 6.6644 0.1211
20.0600 6.6711 0.1296
20.0800 6.6778 0.1297
20.1000 6.6844 0.1275
20.1200 6.6911 0.1355
20.1400 6.6977 0.1267
20.1600 6.7043 0.1185
20.1800 6.7110 0.1355
20.2000 6.7177 0.1265
20.2200 6.7244 0.1198
20.2400 6.7311 0.1392
20.2600 6.7378 0.1248
20.2800 6.7445 0.1139
20.3000 6.7511 0.1352
20.3200 6.7577 0.1284
20.3400 6.7643 0.1198
20.3600 6.7710 0.1312
20.3800 6.7777 0.1246
20.4000 6.7844 0.1198
20.4200 6.7911 0.1340
20.4400 6.7978 0.1198
20.4600 6.8044 0.1214
20.4800 6.8110 0.1295
20.5000 6.8177 0.1283
20.5200 6.8243 0.1239
20.5400 6.8310 0.1274
20.5600 6.8377 0.1216
20.5800 6.8444 0.1241
20.6000 6.8510 0.1303
20.6200 6.8577 0.1221
20.6400 6.8644 0.1179
20.6600 6.8711 0.1302
20.6800 6.8777 0.1245
20.7000 6.8843 0.1172
20.7200 6.8910 0.1280
20.7400 6.8977 0.1293
20.7600 6.9044 0.1213
20.7800 6.9111 0.1293
20.8000 6.9178 0.1278
20.8200 6.9245 0.1208
20.8400 6.9311 0.1227
20.8600 6.9377 0.1241
20.8800 6.9443 0.1275
20.9000 6.9510 0.1251
20.9200 6.9577 0.1268
20.9400 6.9644 0.1186
20.9600 6.9711 0.1265
20.9800 6.9777 0.1249
21.0000 6.9844 0.1222
21.0200 6.9911 0.1264
21.0400 6.9977 0.1302
21.0600 7.0043 0.1201
21.0800 7.0110 0.1264
21.1000 7.0177 0.1286
21.1200 7.0244 0.1272
21.1400 7.0311 0.1249
21.1600 7.0377 0.1293
21.1800 7.0444 0.1242
21.2000 7.0511 0.1272
21.2200 7.0577 0.1304
21.2400 7.0643 0.1228
21.2600 7.0709 0.1265
21.2800 7.0777 0.1302
21.3000 7.0844 0.1235
21.3200 7.0911 0.1228
21.3400 7.0978 0.1286
21.3600 7.1044 0.1235
21.3800 7.1111 0.1229
21.4000 7.1177 0.1261
21.4200 7.1243 0.1284
21.4400 7.1310 0.1248
21.4600 7.1377 0.1246
21.4800 7.1444 0.1232
21.5000 7.1511 0.1275
21.5200 7.1578 0.1310
21.5400 7.1644 0.1226
21.5600 7.1711 0.1151
21.5800 7.1777 0.1278
21.6000 7.1844 0.1234
21.6200 7.1910 0.1200
21.6400 7.1977 0.1244
21.6600 7.2044 0.1225
21.6800 7.2111 0.1224
21.7000 7.2178 0.1219
21.7200 7.2245 0.1211
21.7400 7.2311 0.1229
21.7600 7.2377 0.1245
21.7800 7.2443 0.1179
21.8000 7.2510 0.1240
21.8200 7.2577 0.1237
21.8400 7.2644 0.1198
21.8600 7.2711 0.1180
21.8800 7.2778 0.1264
21.9000 7.2844 0.1173
21.9200 7.2911 0.1202
21.9400 7.2976 0.1212
21.9600 7.3043 0.1226
21.9800 7.3109 0.1203
22.0000 7.3177 0.1209
22.0200 7.3244 0.1135
22.0400 7.3310 0.1184
22.0600 7.3377 0.1238
22.0800 7.3444 0.1182
22.1000 7.3511 0.1159
22.1200 7.3577 0.1198
22.1400 7.3643 0.1170
22.1600 7.3710 0.1181
22.1800 7.3777 0.1152
22.2000 7.3844 0.1113
22.2200 7.3911 0.1199
22.2400 7.3978 0.1172
22.2600 7.4045 0.1122
22.2800 7.4111 0.1190
22.3000 7.4177 0.1185
22.3200 7.4243 0.1087
22.3400 7.4310 0.1230
22.3600 7.4377 0.1145
22.3800 7.4444 0.1121
22.4000 7.4511 0.1151
22.4200 7.4578 0.1158
22.4400 7.4645 0.1120
22.4600 7.4711 0.1161
22.4800 7.4777 0.1098
22.5000 7.4843 0.1127
22.5200 7.4910 0.1134
22.5400 7.4977 0.1112
22.5600 7.5044 0.1119
22.5800 7.5111 0.1086
22.6000 7.5177 0.1072
22.6200 7.5244 0.1122
22.6400 7.5311 0.1073
22.6600 7.5377 0.1055
22.6800 7.5443 0.1075
22.7000 7.5510 0.1080
22.7200 7.5577 0.1074
22.7400 7.5644 0.1023
22.7600 7.5710 0.1079
22.7800 7.5777 0.1070
22.8000 7.5844 0.1047
22.8200 7.5911 0.1034
22.8400 7.5977 0.1118
22.8600 7.6043 0.1094
22.8800 7.6110 0.1015
22.9000 7.6177 0.1067
22.9200 7.6244 0.1081
22.9400 7.6311 0.0944
22.9600 7.6378 0.1076
22.9800 7.6445 0.1065
23.0000 7.6511 0.0920
23.0200 7.6577 0.1081
23.0400 7.6643 0.1046
23.0600 7.6710 0.0898
23.0800 7.6777 0.1128
23.1000 7.6844 0.0989
23.1200 7.6911 0.0863
23.1400 7.6978 0.1115
23.1600 7.7044 0.1024
23.1800 7.7111 0.0848
23.2000 7.7177 0.1052
23.2200 7.7243 0.1072
23.2400 7.7310 0.0876
23.2600 7.7377 0.1020
23.2800 7.7443 0.1042
23.3000 7.7510 0.0869
23.3200 7.7577 0.1000
23.3400 7.7644 0.1078
23.3600 7.7711 0.0869
23.3800 7.7777 0.0966
23.4000 7.7843 0.0983
23.4200 7.7909 0.0911
23.4400 7.7976 0.1021
23.4600 7.8044 0.0918
23.4800 7.8111 0.0911
23.5000 7.8177 0.1046
23.5200 7.8244 0.0837
23.5400 7.8311 0.0924
23.5600 7.8377 0.1055
23.5800 7.8443 0.0869
23.6000 7.8510 0.0898
23.6200 7.8577 0.1025
23.6400 7.8644 0.0845
23.6600 7.8711 0.0933
23.6800 7.8778 0.0968
23.7000 7.8844 0.0869
23.7200 7.8911 0.0922
23.7400 7.8977 0.0885
23.7600 7.9043 0.0896
23.7800 7.9109 0.0927
23.8000 7.9176 0.0882
23.8200 7.9244 0.0886
23.8400 7.9311 0.1015
23.8600 7.9378 0.0786
23.8800 7.9445 0.0886
23.9000 7.9511 0.0949
23.9200 7.9577 0.0829
23.9400 7.9643 0.0877
23.9600 7.9710 0.0922
23.9800 7.9777 0.0834
24.0000 7.9844 0.0837
24.0200 7.9911 0.0868
24.0400 7.9978 0.0889
24.0600 8.0044 0.0912
24.0800 8.0111 0.0836
24.1000 8.0177 0.0848
24.1200 8.0243 0.0959
24.1400 8.0310 0.0811
24.1600 8.0376 0.0851
24.1800 8.0443 0.0913
24.2000 8.0510 0.0817
24.2200 8.0577 0.0843
24.2400 8.0643 0.0900
24.2600 8.0710 0.0853
24.2800 8.0777 0.0811
24.3000 8.0843 0.0987
24.3200 8.0910 0.0778
24.3400 8.0976 0.0837
24.3600 8.1044 0.0915
24.3800 8.1111 0.0786
24.4000 8.1178 0.0823
24.4200 8.1245 0.0904
24.4400 8.1312 0.0755
24.4600 8.1378 0.0825
24.4800 8.1444 0.0946
24.5000 8.1510 0.0777
24.5200 8.1577 0.0793
24.5400 8.1644 0.0949
24.5600 8.1711 0.0734
24.5800 8.1778 0.0869
24.6000 8.1845 0.0900
24.6200 8.1911 0.0713
24.6400 8.1977 0.0867
24.6600 8.2043 0.0920
24.6800 8.2110 0.0785
24.7000 8.2177 0.0878
24.7200 8.2244 0.0841
24.7400 8.2310 0.0712
24.7600 8.2377 0.0980
24.7800 8.2444 0.0867
24.8000 8.2511 0.0684
24.8200 8.2577 0.0929
24.8400 8.2643 0.0908
24.8600 8.2709 0.0715
24.8800 8.2776 0.0911
24.9000 8.2843 0.0876
24.9200 8.2910 0.0791
24.9400 8.2977 0.0848
24.9600 8.3044 0.0808
24.9800 8.3111 0.0820
25.0000 8.3177 0.0949
25.0200 8.3243 0.0814
25.0400 8.3310 0.0746
25.0600 8.3377 0.0945
25.0800 8.3444 0.0864
25.1000 8.3511 0.0724
25.1200 8.3578 0.0904
25.1400 8.3645 0.0867
25.1600 8.3711 0.0769
25.1800 8.3778 0.0868
25.2000 8.3844 0.0848
25.2200 8.3910 0.0828
25.2400 8.3977 0.0875
25.2600 8.4044 0.0867
25.2800 8.4111 0.0720
25.3000 8.4178 0.0925
25.3200 8.4244 0.0876
25.3400 8.4311 0.0683
25.3600 8.4378 0.0887
25.3800 8.4443 0.0927
25.4000 8.4510 0.0707
25.4200 8.4576 0.0895
25.4400 8.4643 0.0838
25.4600 8.4710 0.0787
25.4800 8.4777 0.0826
25.5000 8.4844 0.0822
25.5200 8.4911 0.0777
25.5400 8.4977 0.0860
25.5600 8.5043 0.0809
25.5800 8.5109 0.0773
25.6000 8.5176 0.0891
25.6200 8.5243 0.0859
25.6400 8.5311 0.0778
25.6600 8.5377 0.0829
25.6800 8.5444 0.0851
25.7000 8.5511 0.0795
25.7200 8.5578 0.0824
25.7400 8.5644 0.0827
25.7600 8.5710 0.0811
25.7800 8.5777 0.0810
25.8000 8.5844 0.0823
25.8200 8.5911 0.0786
25.8400 8.5978 0.0833
25.8600 8.6045 0.0846
25.8800 8.6112 0.0794
25.9000 8.6178 0.0756
25.9200 8.6244 0.0824
25.9400 8.6310 0.0819
25.9600 8.6377 0.0795
25.9800 8.6444 0.0805
26.0000 8.6511 0.0789
26.0200 8.6578 0.0739
26.0400 8.6645 0.0772
26.0600 8.6711 0.0841
26.0800 8.6777 0.0772
26.1000 8.6844 0.0776
26.1200 8.6910 0.0827
26.1400 8.6977 0.0715
26.1600 8.7044 0.0814
26.1800 8.7111 0.0869
26.2000 8.7177 0.0649
26.2200 8.7244 0.0778
26.2400 8.7311 0.0786
26.2600 8.7377 0.0717
26.2800 8.7443 0.0796
26.3000 8.7509 0.0768
26.3200 8.7576 0.0753
26.3400 8.7643 0.0787
26.3600 8.7710 0.0684
26.3800 8.7777 0.0790
26.4000 8.7844 0.0773
26.4200 8.7911 0.0678
26.4400 8.7977 0.0698
26.4600 8.8043 0.0817
26.4800 8.8110 0.0640
26.5000 8.8177 0.0708
26.5200 8.8244 0.0759
26.5400 8.8311 0.0608
26.5600 8.8378 0.0727
26.5800 8.8445 0.0745
26.6000 8.8511 0.0622
26.6200 8.8578 0.0725
26.6400 8.8644 0.0703
26.6600 8.8710 0.0677
26.6800 8.8777 0.0738
26.7000 8.8844 0.0628
26.7200 8.8911 0.0638
26.7400 8.8978 0.0724
26.7600 8.9044 0.0648
26.7800 8.9111 0.0662
26.8000 8.9178 0.0714
26.8200 8.9244 0.0550
26.8400 8.9310 0.0724
26.8600 8.9376 0.0689
26.8800 8.9443 0.0608
26.9000 8.9510 0.0695
26.9200 8.9577 0.0640
26.9400 8.9644 0.0600
26.9600 8.9711 0.0671
26.9800 8.9778 0.0597
27.0000 8.9844 0.0622
27.0200 8.9910 0.0691
27.0400 8.9976 0.0611
27.0600 9.0043 0.0593
27.0800 9.0111 0.0719
27.1000 9.0177 0.0583
27.1200 9.0244 0.0558
27.1400 9.0310 0.0730
27.1600 9.0377 0.0556
27.1800 9.0443 0.0619
27.2000 9.0510 0.0675
27.2200 9.0576 0.0609
27.2400 9.0644 0.0534
27.2600 9.0711 0.0677
27.2800 9.0778 0.0599
27.3000 9.0844 0.0544
27.3200 9.0911 0.0608
27.3400 9.0978 0.0640
27.3600 9.1044 0.0551
27.3800 9.1110 0.0601
27.4000 9.1177 0.0636
27.4200 9.1244 0.0571
27.4400 9.1311 0.0519
27.4600 9.1378 0.0617
27.4800 9.1445 0.0572
27.5000 9.1511 0.0547
27.5200 9.1578 0.0584
27.5400 9.1644 0.0518
27.5600 9.1710 0.0596
27.5800 9.1776 0.0649
27.6000 9.1843 0.0426
27.6200 9.1910 0.0559
27.6400 9.1977 0.0733
27.6600 9.2044 0.0350
27.6800 9.2111 0.0558
27.7000 9.2177 0.0708
27.7200 9.2244 0.0400
27.7400 9.2310 0.0582
27.7600 9.2376 0.0688
27.7800 9.2443 0.0338
27.8000 9.2510 0.0580
27.8200 9.2577 0.0628
27.8400 9.2644 0.0377
27.8600 9.2710 0.0622
27.8800 9.2777 0.0582
27.9000 9.2844 0.0265
27.9200 9.2910 0.0695
27.9400 9.2977 0.0557
27.9600 9.3044 0.0336
27.9800 9.3111 0.0696
28.0000 9.3177 0.0443
28.0200 9.3244 0.0343
28.0400 9.3311 0.0702
28.0600 9.3378 0.0407
28.0800 9.3444 0.0369
28.1000 9.3510 0.0712
28.1200 9.3576 0.0402
28.1400 9.3643 0.0405
28.1600 9.3711 0.0649
28.1800 9.3778 0.0368
28.2000 9.3844 0.0401
28.2200 9.3911 0.0597
28.2400 9.3978 0.0348
28.2600 9.4044 0.0476
28.2800 9.4110 0.0525
28.3000 9.4177 0.0406
28.3200 9.4244 0.0481
28.3400 9.4311 0.0475
28.3600 9.4377 0.0360
28.3800 9.4444 0.0527
28.4000 9.4511 0.0466
28.4200 9.4578 0.0354
28.4400 9.4644 0.0450
28.4600 9.4710 0.0459
28.4800 9.4776 0.0389
28.5000 9.4843 0.0456
28.5200 9.4910 0.0409
28.5400 9.4977 0.0431
28.5600 9.5044 0.0437
28.5800 9.5111 0.0344
28.6000 9.5177 0.0501
28.6200 9.5243 0.0426
28.6400 9.5309 0.0337
28.6600 9.5376 0.0446
28.6800 9.5443 0.0430
28.7000 9.5511 0.0326
28.7200 9.5578 0.0455
28.7400 9.5644 0.0396
28.7600 9.5711 0.0308
28.7800 9.5778 0.0456
28.8000 9.5844 0.0420
28.8200 9.5911 0.0323
28.8400 9.5977 0.0493
28.8600 9.6044 0.0355
28.8800 9.6111 0.0332
28.9000 9.6178 0.0466
28.9200 9.6244 0.0374
28.9400 9.6311 0.0321
28.9600 9.6378 0.0474
28.9800 9.6444 0.0304
29.0000 9.6510 0.0350
29.0200 9.6576 0.0521
29.0400 9.6643 0.0339
29.0600 9.6710 0.0323
29.0800 9.6777 0.0429
29.1000 9.6844 0.0367
29.1200 9.6911 0.0321
29.1400 9.6977 0.0465
29.1600 9.7044 0.0265
29.1800 9.7110 0.0397
29.2000 9.7176 0.0461
29.2200 9.7243 0.0281
29.2400 9.7311 0.0428
29.2600 9.7377 0.0414
29.2800 9.7444 0.0249
29.3000 9.7511 0.0453
29.3200 9.7577 0.0403
29.3400 9.7644 0.0310
29.3600 9.7710 0.0419
29.3800 9.7777 0.0362
29.4000 9.7844 0.0268
29.4200 9.7910 0.0467
29.4400 9.7977 0.0355
29.4600 9.8044 0.0315
29.4800 9.8111 0.0430
29.5000 9.8178 0.0309
29.5200 9.8244 0.0344
29.5400 9.8310 0.0381
29.5600 9.8376 0.0360
29.5800 9.8443 0.0374
29.6000 9.8511 0.0345
29.6200 9.8578 0.0329
29.6400 9.8644 0.0415
29.6600 9.8711 0.0375
29.6800 9.8778 0.0280
29.7000 9.8844 0.0384
29.7200 9.8910 0.0335
29.7400 9.8976 0.0308
29.7600 9.9043 0.0465
29.7800 9.9110 0.0313
29.8000 9.9177 0.0372
29.8200 9.9244 0.0363
29.8400 9.9311 0.0345
29.8600 9.9377 0.0349
29.8800 9.9444 0.0360
29.9000 9.9510 0.0351
29.9200 9.9576 0.0357
29.9400 9.9643 0.0367
29.9600 9.9710 0.0300
29.9800 9.9777 0.0390
30.0000 9.9844 0.0317
30.0200 9.9911 0.0298
30.0400 9.9978 0.0431
30.0600 10.0044 0.0285
30.0800 10.0110 0.0353
30.1000 10.0176 0.0393
30.1200 10.0243 0.0262
30.1400 10.0311 0.0388
30.1600 10.0378 0.0333
30.1800 10.0445 0.0272
30.2000 10.0511 0.0360
30.2200 10.0578 0.0326
30.2400 10.0644 0.0317
30.2600 10.0710 0.0353
30.2800 10.0777 0.0262
30.3000 10.0843 0.0290
30.3200 10.0911 0.0346
30.3400 10.0978 0.0297
30.3600 10.1044 0.0332
30.3800 10.1111 0.0319
30.4000 10.1178 0.0237
30.4200 10.1244 0.0358
30.4400 10.1310 0.0290
30.4600 10.1376 0.0304
30.4800 10.1443 0.0335
30.5000 10.1510 0.0192
30.5200 10.1577 0.0309
30.5400 10.1644 0.0327
30.5600 10.1711 0.0225
30.5800 10.1778 0.0319
30.6000 10.1844 0.0316
30.6200 10.1910 0.0223
30.6400 10.1976 0.0333
30.6600 10.2043 0.0315
30.6800 10.2110 0.0292
30.7000 10.2177 0.0264
30.7200 10.2244 0.0257
30.7400 10.2311 0.0314
30.7600 10.2377 0.0290
30.7800 10.2444 0.0215
30.8000 10.2510 0.0351
30.8200 10.2577 0.0246
30.8400 10.2643 0.0270
30.8600 10.2711 0.0343
30.8800 10.2777 0.0206
30.9000 10.2844 0.0247
30.9200 10.2911 0.0351
30.9400 10.2978 0.0218
30.9600 10.3045 0.0236
30.9800 10.3111 0.0335
31.0000 10.3177 0.0222
31.0200 10.3243 0.0276
31.0400 10.3310 0.0265
31.0600 10.3378 0.0199
31.0800 10.3445 0.0280
31.1000 10.3511 0.0286
31.1200 10.3578 0.0181
31.1400 10.3644 0.0307
31.1600 10.3710 0.0223
31.1800 10.3776 0.0216
31.2000 10.3843 0.0309
31.2200 10.3910 0.0226
31.2400 10.3977 0.0197
31.2600 10.4044 0.0236
31.2800 10.4111 0.0218
31.3000 10.4177 0.0203
31.3200 10.4244 0.0270
31.3400 10.4310 0.0206
31.3600 10.4376 0.0166
31.3800 10.4443 0.0306
31.4000 10.4510 0.0177
31.4200 10.4577 0.0210
31.4400 10.4644 0.0260
31.4600 10.4710 0.0150
31.4800 10.4777 0.0190
31.5000 10.4844 0.0260
31.5200 10.4910 0.0166
31.5400 10.4976 0.0159
31.5600 10.5043 0.0339
31.5800 10.5110 0.0085
31.6000 10.5177 0.0124
31.6200 10.5244 0.0318
31.6400 10.5311 0.0144
31.6600 10.5378 0.0148
31.6800 10.5444 0.0325
31.7000 10.5510 0.0106
31.7200 10.5576 0.0204
31.7400 10.5643 0.0300
31.7600 10.5710 0.0066
31.7800 10.5778 0.0198
31.8000 10.5844 0.0310
31.8200 10.5911 0.0004
31.8400 10.5978 0.0242
31.8600 10.6044 0.0331
31.8800 10.6110 0.0060
31.9000 10.6177 0.0247
31.9200 10.6243 0.0258
31.9400 10.6310 0.0045
31.9600 10.6377 0.0253
31.9800 10.6444 0.0194
32.0000 10.6510 0.0095
32.0200 10.6577 0.0257
32.0400 10.6644 0.0149
32.0600 10.6710 0.0110
32.0800 10.6776 0.0277
32.1000 10.6843 0.0141
32.1200 10.6910 0.0110
32.1400 10.6977 0.0288
32.1600 10.7044 0.0104
32.1800 10.7111 0.0175
32.2000 10.7178 0.0221
32.2200 10.7244 0.0071
32.2400 10.7310 0.0235
32.2600 10.7376 0.0203
32.2800 10.7443 0.0045
32.3000 10.7511 0.0216
32.3200 10.7578 0.0177
32.3400 10.7645 0.0075
32.3600 10.7711 0.0228
32.3800 10.7778 0.0193
32.4000 10.7844 0.0084
32.4200 10.7911 0.0221
32.4400 10.7977 0.0155
32.4600 10.8043 0.0145
32.4800 10.8110 0.0204
32.5000 10.8177 0.0136
32.5200 10.8244 0.0164
32.5400 10.8311 0.0167
32.5600 10.8378 0.0163
32.5800 10.8445 0.0149
32.6000 10.8511 0.0190
32.6200 10.8577 0.0122
32.6400 10.8643 0.0147
32.6600 10.8710 0.0165
32.6800 10.8777 0.0121
32.7000 10.8844 0.0175
32.7200 10.8911 0.0122
32.7400 10.8978 0.0111
32.7600 10.9044 0.0182
32.7800 10.9110 0.0080
32.8000 10.9176 0.0158
32.8200 10.9243 0.0158
32.8400 10.9310 0.0099
32.8600 10.9377 0.0123
32.8800 10.9444 0.0115
32.9000 10.9511 0.0038
32.9200 10.9577 0.0132
32.9400 10.9644 0.0152
32.9600 10.9710 0.0056
32.9800 10.9776 0.0124
33.0000 10.9843 0.0133
33.0200 10.9910 0.0053
33.0400 10.9977 0.0170
33.0600 11.0044 0.0093
33.0800 11.0111 0.0036
33.1000 11.0178 0.0130
33.1200 11.0245 0.0056
33.1400 11.0311 0.0096
33.1600 11.0377 0.0095
33.1800 11.0443 0.0084
33.2000 11.0510 0.0087
33.2200 11.0577 0.0113
33.2400 11.0644 0.0045
33.2600 11.0711 0.0047
33.2800 11.0778 0.0079
33.3000 11.0844 0.0034
33.3200 11.0910 0.0040
33.3400 11.0976 0.0087
33.3600 11.1043 0.0086
33.3800 11.1110 0.0082
33.4000 11.1177 -0.0022
33.4200 11.1244 0.0083
33.4400 11.1310 0.0075
33.4600 11.1377 0.0021
33.4800 11.1444 0.0063
33.5000 11.1510 0.0061
33.5200 11.1576 0.0045
33.5400 11.1643 0.0009
33.5600 11.1710 0.0004
33.5800 11.1777 0.0029
33.6000 11.1844 0.0069
33.6200 11.1911 0.0046
33.6400 11.1978 0.0009
33.6600 11.2045 0.0007
33.6800 11.2111 0.0026
33.7000 11.2177 0.0052
33.7200 11.2243 0.0064
33.7400 11.2310 0.0007
33.7600 11.2377 -0.0007
33.7800 11.2444 -0.0021
33.8000 11.2511 0.0075
33.8200 11.2578 -0.0003
33.8400 11.2644 0.0047
33.8600 11.2710 0.0027
33.8800 11.2776 0.0027
33.9000 11.2843 0.0032
33.9200 11.2910 0.0026
33.9400 11.2977 0.0022
33.9600 11.3044 -0.0002
33.9800 11.3111 0.0040
34.0000 11.3178 0.0023
34.0200 11.3245 -0.0027
34.0400 11.3311 0.0031
34.0600 11.3377 0.0068
34.0800 11.3443 -0.0019
34.1000 11.3510 -0.0007
34.1200 11.3577 0.0048
34.1400 11.3644 0.0005
34.1600 11.3711 0.0036
34.1800 11.3778 0.0024
34.2000 11.3845 -0.0063
34.2200 11.3911 0.0071
34.2400 11.3977 -0.0017
34.2600 11.4043 -0.0021
34.2800 11.4109 0.0082
34.3000 11.4177 0.0007
34.3200 11.4244 -0.0046
34.3400 11.4311 0.0089
34.3600 11.4377 0.0005
34.3800 11.4444 -0.0043
34.4000 11.4511 0.0067
34.4200 11.4577 -0.0051
34.4400 11.4643 -0.0013
34.4600 11.4710 0.0126
34.4800 11.4777 -0.0044
34.5000 11.4844 -0.0049
34.5200 11.4911 0.0080
34.5400 11.4978 -0.0018
34.5600 11.5044 0.0012
34.5800 11.5111 0.0078
34.6000 11.5177 -0.0067
34.6200 11.5243 -0.0076
34.6400 11.5310 0.0093
34.6600 11.5377 0.0044
34.6800 11.5444 -0.0020
34.7000 11.5511 -0.0007
34.7200 11.5578 0.0057
34.7400 11.5645 -0.0026
34.7600 11.5711 0.0010
34.7800 11.5777 0.0115
34.8000 11.5843 -0.0051
34.8200 11.5910 -0.0049
34.8400 11.5977 0.0139
34.8600 11.6044 -0.0121
34.8800 11.6111 -0.0083
34.9000 11.6178 0.0189
34.9200 11.6244 -0.0147
34.9400 11.6311 -0.0100
34.9600 11.6377 0.0177
34.9800 11.6443 -0.0219
35.0000 11.6510 0.0018
35.0200 11.6577 0.0279
35.0400 11.6643 -0.0292
35.0600 11.6710 -0.0050
35.0800 11.6777 0.0283
35.1000 11.6844 -0.0237
35.1200 11.6911 -0.0075
35.1400 11.6977 0.0228
35.1600 11.7043 -0.0258
35.1800 11.7110 -0.0045
35.2000 11.7177 0.0188
35.2200 11.7244 -0.0201
35.2400 11.7311 0.0013
35.2600 11.7378 0.0085
35.2800 11.7445 -0.0263
35.3000 11.7511 0.0097
35.3200 11.7577 0.0039
35.3400 11.7643 -0.0212
35.3600 11.7710 0.0069
35.3800 11.7777 -0.0034
35.4000 11.7844 -0.0201
35.4200 11.7911 0.0097
35.4400 11.7978 -0.0085
35.4600 11.8044 -0.0104
35.4800 11.8111 0.0061
35.5000 11.8177 -0.0181
35.5200 11.8243 -0.0043
35.5400 11.8310 0.0076
35.5600 11.8377 -0.0194
35.5800 11.8444 -0.0079
35.6000 11.8511 0.0060
35.6200 11.8577 -0.0234
35.6400 11.8644 -0.0059
35.6600 11.8711 -0.0033
35.6800 11.8777 -0.0221
35.7000 11.8843 -0.0061
35.7200 11.8909 -0.0022
35.7400 11.8977 -0.0212
35.7600 11.9044 -0.0004
35.7800 11.9111 -0.0070
35.8000 11.9178 -0.0262
35.8200 11.9245 -0.0032
35.8400 11.9311 -0.0043
35.8600 11.9377 -0.0271
35.8800 11.9443 -0.0043
35.9000 11.9510 -0.0044
35.9200 11.9577 -0.0208
35.9400 11.9644 -0.0119
35.9600 11.9711 -0.0050
35.9800 11.9777 -0.0183
36.0000 11.9844 -0.0145
36.0200 11.9911 -0.0082
36.0400 11.9977 -0.0187
36.0600 12.0043 -0.0076
36.0800 12.0110 -0.0121
36.1000 12.0177 -0.0157
36.1200 12.0244 -0.0122
36.1400 12.0311 -0.0095
36.1600 12.0378 -0.0144
36.1800 12.0445 -0.0174
36.2000 12.0511 -0.0147
36.2200 12.0577 -0.0091
36.2400 12.0643 -0.0156
36.2600 12.0710 -0.0132
36.2800 12.0777 -0.0108
36.3000 12.0844 -0.0137
36.3200 12.0911 -0.0192
36.3400 12.0978 -0.0120
36.3600 12.1044 -0.0123
36.3800 12.1111 -0.0161
36.4000 12.1177 -0.0156
36.4200 12.1243 -0.0124
36.4400 12.1310 -0.0124
36.4600 12.1377 -0.0190
36.4800 12.1444 -0.0096
36.5000 12.1510 -0.0153
36.5200 12.1577 -0.0169
36.5400 12.1644 -0.0119
36.5600 12.1711 -0.0193
36.5800 12.1777 -0.0182
36.6000 12.1843 -0.0110
36.6200 12.1910 -0.0205
36.6400 12.1977 -0.0158
36.6600 12.2044 -0.0115
36.6800 12.2111 -0.0195
36.7000 12.2178 -0.0204
36.7200 12.2245 -0.0067
36.7400 12.2311 -0.0261
36.7600 12.2377 -0.0179
36.7800 12.2443 -0.0115
36.8000 12.2510 -0.0202
36.8200 12.2577 -0.0194
36.8400 12.2644 -0.0108
36.8600 12.2711 -0.0207
36.8800 12.2778 -0.0210
36.9000 12.2845 -0.0169
36.9200 12.2911 -0.0211
36.9400 12.2977 -0.0176
36.9600 12.3043 -0.0178
36.9800 12.3110 -0.0164
37.0000 12.3177 -0.0200
37.0200 12.3244 -0.0192
37.0400 12.3311 -0.0200
37.0600 12.3377 -0.0168
37.0800 12.3444 -0.0186
37.1000 12.3511 -0.0178
37.1200 12.3577 -0.0195
37.1400 12.3643 -0.0246
37.1600 12.3710 -0.0130
37.1800 12.3776 -0.0186
37.2000 12.3843 -0.0295
37.2200 12.3910 -0.0110
37.2400 12.3977 -0.0255
37.2600 12.4044 -0.0225
37.2800 12.4111 -0.0153
37.3000 12.4177 -0.0252
37.3200 12.4243 -0.0261
37.3400 12.4310 -0.0120
37.3600 12.4377 -0.0251
37.3800 12.4444 -0.0237
37.4000 12.4511 -0.0135
37.4200 12.4578 -0.0324
37.4400 12.4644 -0.0223
37.4600 12.4711 -0.0093
37.4800 12.4777 -0.0324
37.5000 12.4843 -0.0227
37.5200 12.4910 -0.0145
37.5400 12.4977 -0.0333
37.5600 12.5044 -0.0140
37.5800 12.5111 -0.0168
37.6000 12.5178 -0.0349
37.6200 12.5244 -0.0238
37.6400 12.5311 -0.0213
37.6600 12.5377 -0.0289
37.6800 12.5443 -0.0192
37.7000 12.5510 -0.0267
37.7200 12.5577 -0.0286
37.7400 12.5644 -0.0225
37.7600 12.5710 -0.0290
37.7800 12.5777 -0.0268
37.8000 12.5844 -0.0192
37.8200 12.5911 -0.0327
37.8400 12.5977 -0.0337
37.8600 12.6043 -0.0214
37.8800 12.6109 -0.0290
37.9000 12.6176 -0.0328
37.9200 12.6244 -0.0213
37.9400 12.6311 -0.0374
37.9600 12.6377 -0.0311
37.9800 12.6444 -0.0209
38.0000 12.6511 -0.0388
38.0200 12.6577 -0.0292
38.0400 12.6643 -0.0276
38.0600 12.6710 -0.0381
38.0800 12.6777 -0.0269
38.1000 12.6844 -0.0308
38.1200 12.6911 -0.0446
38.1400 12.6977 -0.0196
38.1600 12.7044 -0.0334
38.1800 12.7111 -0.0434
38.2000 12.7178 -0.0213
38.2200 12.7243 -0.0352
38.2400 12.7310 -0.0454
38.2600 12.7376 -0.0207
38.2800 12.7443 -0.0372
38.3000 12.7511 -0.0455
38.3200 12.7577 -0.0272
38.3400 12.7644 -0.0363
38.3600 12.7711 -0.0406
38.3800 12.7778 -0.0324
38.4000 12.7844 -0.0369
38.4200 12.7910 -0.0369
38.4400 12.7977 -0.0314
38.4600 12.8044 -0.0391
38.4800 12.8111 -0.0385
38.5000 12.8178 -0.0340
38.5200 12.8244 -0.0369
38.5400 12.8311 -0.0419
38.5600 12.8377 -0.0301
38.5800 12.8443 -0.0445
38.6000 12.8510 -0.0368
38.6200 12.8576 -0.0364
38.6400 12.8644 -0.0425
38.6600 12.8710 -0.0366
38.6800 12.8777 -0.0314
38.7000 12.8844 -0.0469
38.7200 12.8910 -0.0430
38.7400 12.8977 -0.0367
38.7600 12.9043 -0.0442
38.7800 12.9109 -0.0396
38.8000 12.9176 -0.0359
38.8200 12.9244 -0.0483
38.8400 12.9311 -0.0421
38.8600 12.9378 -0.0380
38.8800 12.9445 -0.0442
38.9000 12.9512 -0.0453
38.9200 12.9578 -0.0368
38.9400 12.9644 -0.0455
38.9600 12.9710 -0.0476
38.9800 12.9777 -0.0365
39.0000 12.9844 -0.0400
39.0200 12.9911 -0.0499
39.0400 12.9978 -0.0469
39.0600 13.0045 -0.0399
39.0800 13.0111 -0.0439
39.1000 13.0178 -0.0401
39.1200 13.0244 -0.0454
39.1400 13.0310 -0.0449
39.1600 13.0377 -0.0417
39.1800 13.0443 -0.0446
39.2000 13.0510 -0.0473
39.2200 13.0577 -0.0394
39.2400 13.0644 -0.0508
39.2600 13.0711 -0.0534
39.2800 13.0777 -0.0394
39.3000 13.0843 -0.0435
39.3200 13.0909 -0.0508
39.3400 13.0976 -0.0416
39.3600 13.1043 -0.0457
39.3800 13.1110 -0.0541
39.4000 13.1177 -0.0419
39.4200 13.1244 -0.0441
39.4400 13.1311 -0.0572
39.4600 13.1377 -0.0398
39.4800 13.1443 -0.0438
39.5000 13.1510 -0.0544
39.5200 13.1577 -0.0332
39.5400 13.1644 -0.0474
39.5600 13.1711 -0.0536
39.5800 13.1778 -0.0479
39.6000 13.1844 -0.0380
39.6200 13.1911 -0.0460
39.6400 13.1978 -0.0503
39.6600 13.2044 -0.0474
39.6800 13.2110 -0.0421
39.7000 13.2177 -0.0487
39.7200 13.2244 -0.0413
39.7400 13.2311 -0.0481
39.7600 13.2378 -0.0535
39.7800 13.2445 -0.0501
39.8000 13.2511 -0.0436
39.8200 13.2578 -0.0454
39.8400 13.2644 -0.0461
39.8600 13.2710 -0.0489
39.8800 13.2776 -0.0512
39.9000 13.2843 -0.0456
39.9200 13.2911 -0.0386
39.9400 13.2977 -0.0495
39.9600 13.3044 -0.0524
39.9800 13.3111 -0.0430
40.0000 13.3177 -0.0466
40.0200 13.3243 -0.0504
40.0400 13.3309 -0.0489
40.0600 13.3376 -0.0489
40.0800 13.3443 -0.0453
40.1000 13.3510 -0.0430
40.1200 13.3577 -0.0539
40.1400 13.3644 -0.0507
40.1600 13.3711 -0.0391
40.1800 13.3777 -0.0464
40.2000 13.3844 -0.0523
40.2200 13.3910 -0.0430
40.2400 13.3977 -0.0473
40.2600 13.4044 -0.0466
40.2800 13.4111 -0.0495
40.3000 13.4178 -0.0518
40.3200 13.4245 -0.0367
40.3400 13.4312 -0.0470
40.3600 13.4378 -0.0581
40.3800 13.4444 -0.0469
40.4000 13.4510 -0.0468
40.4200 13.4576 -0.0459
40.4400 13.4644 -0.0398
40.4600 13.4711 -0.0507
40.4800 13.4778 -0.0494
40.5000 13.4845 -0.0472
40.5200 13.4911 -0.0576
40.5400 13.4978 -0.0370
40.5600 13.5044 -0.0351
40.5800 13.5110 -0.0699
40.6000 13.5177 -0.0506
40.6200 13.5244 -0.0363
40.6400 13.5311 -0.0497
40.6600 13.5377 -0.0425
40.6800 13.5444 -0.0543
40.7000 13.5511 -0.0679
40.7200 13.5577 -0.0292
40.7400 13.5643 -0.0444
40.7600 13.5709 -0.0616
40.7800 13.5776 -0.0415
40.8000 13.5843 -0.0567
40.8200 13.5910 -0.0545
40.8400 13.5977 -0.0270
40.8600 13.6044 -0.0611
40.8800 13.6111 -0.0632
40.9000 13.6177 -0.0424
40.9200 13.6244 -0.0497
40.9400 13.6310 -0.0437
40.9600 13.6376 -0.0500
40.9800 13.6444 -0.0619
41.0000 13.6511 -0.0495
41.0200 13.6578 -0.0395
41.0400 13.6645 -0.0551
41.0600 13.6712 -0.0532
41.0800 13.6778 -0.0572
41.1000 13.6844 -0.0518
41.1200 13.6910 -0.0457
41.1400 13.6977 -0.0534
41.1600 13.7044 -0.0566
41.1800 13.7111 -0.0456
41.2000 13.7178 -0.0584
41.2200 13.7244 -0.0536
41.2400 13.7311 -0.0464
41.2600 13.7377 -0.0594
41.2800 13.7444 -0.0468
41.3000 13.7510 -0.0426
41.3200 13.7576 -0.0656
41.3400 13.7643 -0.0475
41.3600 13.7710 -0.0489
41.3800 13.7777 -0.0596
41.4000 13.7844 -0.0428
41.4200 13.7911 -0.0541
41.4400 13.7978 -0.0674
41.4600 13.8044 -0.0459
41.4800 13.8110 -0.0424
41.5000 13.8176 -0.0605
41.5200 13.8243 -0.0453
41.5400 13.8310 -0.0561
41.5600 13.8377 -0.0575
41.5800 13.8444 -0.0397
41.6000 13.8511 -0.0604
41.6200 13.8577 -0.0574
41.6400 13.8644 -0.0409
41.6600 13.8710 -0.0680
41.6800 13.8777 -0.0487
41.7000 13.8844 -0.0385
41.7200 13.8911 -0.0656
41.7400 13.8978 -0.0534
41.7600 13.9044 -0.0457
41.7800 13.9111 -0.0675
41.8000 13.9178 -0.0421
41.8200 13.9244 -0.0538
41.8400 13.9310 -0.0715
41.8600 13.9377 -0.0423
41.8800 13.9444 -0.0549
41.9000 13.9511 -0.0569
41.9200 13.9578 -0.0425
41.9400 13.9645 -0.0637
41.9600 13.9712 -0.0597
41.9800 13.9778 -0.0421
42.0000 13.9844 -0.0639
42.0200 13.9910 -0.0555
42.0400 13.9976 -0.0472
42.0600 14.0043 -0.0655
42.0800 14.0110 -0.0536
42.1000 14.0177 -0.0471
42.1200 14.0244 -0.0634
42.1400 14.0311 -0.0494
42.1600 14.0377 -0.0613
42.1800 14.0444 -0.0544
42.2000 14.0510 -0.0496
42.2200 14.0576 -0.0595
42.2400 14.0643 -0.0604
42.2600 14.0710 -0.0502
42.2800 14.0777 -0.0666
42.3000 14.0844 -0.0596
42.3200 14.0910 -0.0464
42.3400 14.0977 -0.0676
42.3600 14.1044 -0.0595
42.3800 14.1110 -0.0485
42.4000 14.1177 -0.0673
42.4200 14.1243 -0.0577
42.4400 14.1311 -0.0452
42.4600 14.1378 -0.0684
42.4800 14.1444 -0.0575
42.5000 14.1511 -0.0478
42.5200 14.1578 -0.0723
42.5400 14.1644 -0.0531
42.5600 14.1710 -0.0464
42.5800 14.1776 -0.0734
42.6000 14.1843 -0.0534
42.6200 14.1911 -0.0558
42.6400 14.1978 -0.0711
42.6600 14.2044 -0.0547
42.6800 14.2111 -0.0485
42.7000 14.2178 -0.0780
42.7200 14.2244 -0.0522
42.7400 14.2310 -0.0494
42.7600 14.2376 -0.0778
42.7800 14.2443 -0.0511
42.8000 14.2510 -0.0424
42.8200 14.2577 -0.0835
42.8400 14.2644 -0.0617
42.8600 14.2711 -0.0371
42.8800 14.2778 -0.0762
42.9000 14.2844 -0.0583
42.9200 14.2910 -0.0459
42.9400 14.2976 -0.0812
42.9600 14.3043 -0.0522
42.9800 14.3110 -0.0408
43.0000 14.3177 -0.0752
43.0200 14.3244 -0.0541
43.0400 14.3311 -0.0525
43.0600 14.3377 -0.0777
43.0800 14.3443 -0.0487
43.1000 14.3509 -0.0473
43.1200 14.3576 -0.0758
43.1400 14.3643 -0.0617
43.1600 14.3710 -0.0520
43.1800 14.3778 -0.0630
43.2000 14.3844 -0.0586
43.2200 14.3911 -0.0596
43.2400 14.3978 -0.0687
43.2600 14.4045 -0.0600
43.2800 14.4111 -0.0513
43.3000 14.4177 -0.0589
43.3200 14.4244 -0.0651
43.3400 14.4311 -0.0637
43.3600 14.4378 -0.0665
43.3800 14.4444 -0.0532
43.4000 14.4511 -0.0509
43.4200 14.4578 -0.0706
43.4400 14.4644 -0.0753
43.4600 14.4710 -0.0583
43.4800 14.4776 -0.0515
43.5000 14.4843 -0.0596
43.5200 14.4910 -0.0696
43.5400 14.4977 -0.0752
43.5600 14.5044 -0.0613
43.5800 14.5110 -0.0569
43.6000 14.5177 -0.0661
43.6200 14.5243 -0.0564
43.6400 14.5310 -0.0655
43.6600 14.5376 -0.0892
43.6800 14.5443 -0.0450
43.7000 14.5510 -0.0477
43.7200 14.5577 -0.0859
43.7400 14.5644 -0.0653
43.7600 14.5711 -0.0545
43.7800 14.5778 -0.0794
43.8000 14.5844 -0.0469
43.8200 14.5910 -0.0646
43.8400 14.5977 -0.0926
43.8600 14.6043 -0.0485
43.8800 14.6110 -0.0521
43.9000 14.6177 -0.0827
43.9200 14.6244 -0.0576
43.9400 14.6311 -0.0658
43.9600 14.6378 -0.0761
43.9800 14.6445 -0.0565
44.0000 14.6510 -0.0675
44.0200 14.6576 -0.0657
44.0400 14.6643 -0.0716
44.0600 14.6710 -0.0773
44.0800 14.6777 -0.0540
44.1000 14.6844 -0.0585
44.1200 14.6911 -0.0880
44.1400 14.6978 -0.0674
44.1600 14.7044 -0.0664
44.1800 14.7110 -0.0700
44.2000 14.7176 -0.0580
44.2200 14.7243 -0.0701
44.2400 14.7310 -0.0884
44.2600 14.7377 -0.0634
44.2800 14.7444 -0.0489
44.3000 14.7511 -0.0889
44.3200 14.7577 -0.0735
44.3400 14.7644 -0.0590
44.3600 14.7710 -0.0808
44.3800 14.7777 -0.0760
44.4000 14.7843 -0.0608
44.4200 14.7910 -0.0711
44.4400 14.7977 -0.0875
44.4600 14.8044 -0.0661
44.4800 14.8111 -0.0685
44.5000 14.8178 -0.0723
44.5200 14.8244 -0.0751
44.5400 14.8310 -0.0816
44.5600 14.8376 -0.0673
44.5800 14.8443 -0.0726
44.6000 14.8510 -0.0796
44.6200 14.8578 -0.0784
44.6400 14.8645 -0.0677
44.6600 14.8711 -0.0780
44.6800 14.8778 -0.0788
44.7000 14.8844 -0.0787
44.7200 14.8910 -0.0792
44.7400 14.8977 -0.0677
44.7600 14.9043 -0.0789
44.7800 14.9110 -0.0849
44.8000 14.9178 -0.0746
44.8200 14.9244 -0.0834
44.8400 14.9311 -0.0767
44.8600 14.9378 -0.0715
44.8800 14.9444 -0.0850
44.9000 14.9511 -0.0853
44.9200 14.9577 -0.0695
44.9400 14.9643 -0.0795
44.9600 14.9710 -0.0777
44.9800 14.9777 -0.0697
45.0000 14.9844 -0.0903
45.0200 14.9911 -0.0809
45.0400 14.9977 -0.0721
45.0600 15.0044 -0.0821
45.0800 15.0110 -0.0817
45.1000 15.0176 -0.0792
45.1200 15.0243 -0.0852
45.1400 15.0310 -0.0717
45.1600 15.0377 -0.0819
45.1800 15.0444 -0.0881
45.2000 15.0511 -0.0729
45.2200 15.0577 -0.0765
45.2400 15.0644 -0.0951
45.2600 15.0710 -0.0761
45.2800 15.0776 -0.0729
45.3000 15.0843 -0.0921
45.3200 15.0910 -0.0764
45.3400 15.0977 -0.0798
45.3600 15.1044 -0.0922
45.3800 15.1111 -0.0770
45.4000 15.1178 -0.0805
45.4200 15.1245 -0.0863
45.4400 15.1311 -0.0797
45.4600 15.1377 -0.0838
45.4800 15.1443 -0.0883
45.5000 15.1510 -0.0806
45.5200 15.1577 -0.0801
45.5400 15.1644 -0.0904
45.5600 15.1711 -0.0856
45.5800 15.1778 -0.0815
45.6000 15.1844 -0.0853
45.6200 15.1910 -0.0920
45.6400 15.1976 -0.0791
45.6600 15.2043 -0.0863
45.6800 15.2110 -0.0871
45.7000 15.2177 -0.0854
45.7200 15.2244 -0.0885
45.7400 15.2311 -0.0893
45.7600 15.2378 -0.0834
45.7800 15.2444 -0.0917
45.8000 15.2510 -0.0898
45.8200 15.2576 -0.0869
45.8400 15.2643 -0.0923
45.8600 15.2710 -0.0862
45.8800 15.2777 -0.0796
45.9000 15.2844 -0.0981
45.9200 15.2911 -0.0857
45.9400 15.2977 -0.0796
45.9600 15.3044 -0.1017
45.9800 15.3111 -0.0885
46.0000 15.3177 -0.0875
46.0200 15.3243 -0.0979
46.0400 15.3310 -0.0851
46.0600 15.3377 -0.0891
46.0800 15.3444 -0.1009
46.1000 15.3511 -0.0826
46.1200 15.3578 -0.0915
46.1400 15.3645 -0.0993
46.1600 15.3711 -0.0867
46.1800 15.3777 -0.0883
46.2000 15.3843 -0.0962
46.2200 15.3910 -0.0924
46.2400 15.3977 -0.0909
46.2600 15.4045 -0.0916
46.2800 15.4111 -0.0959
46.3000 15.4178 -0.0914
46.3200 15.4245 -0.0977
46.3400 15.4311 -0.0926
46.3600 15.4377 -0.0878
46.3800 15.4443 -0.0979
46.4000 15.4510 -0.0926
46.4200 15.4577 -0.0855
46.4400 15.4644 -0.0921
46.4600 15.4710 -0.0996
46.4800 15.4777 -0.0876
46.5000 15.4844 -0.0943
46.5200 15.4910 -0.0989
46.5400 15.4976 -0.0861
46.5600 15.5043 -0.0930
46.5800 15.5110 -0.0952
46.6000 15.5177 -0.0884
46.6200 15.5244 -0.0975
46.6400 15.5311 -0.0952
46.6600 15.5378 -0.0871
46.6800 15.5444 -0.0958
46.7000 15.5510 -0.1001
46.7200 15.5577 -0.0864
46.7400 15.5643 -0.0976
46.7600 15.5710 -0.0985
46.7800 15.5778 -0.0860
46.8000 15.5845 -0.1021
46.8200 15.5911 -0.1019
46.8400 15.5978 -0.0884
46.8600 15.6045 -0.0969
46.8800 15.6111 -0.1040
46.9000 15.6177 -0.0859
46.9200 15.6243 -0.0993
46.9400 15.6310 -0.1015
46.9600 15.6377 -0.0928
46.9800 15.6444 -0.1046
47.0000 15.6511 -0.1024
47.0200 15.6578 -0.0910
47.0400 15.6645 -0.0989
47.0600 15.6711 -0.1066
47.0800 15.6777 -0.0962
47.1000 15.6843 -0.0902
47.1200 15.6910 -0.1080
47.1400 15.6977 -0.0949
47.1600 15.7044 -0.0992
47.1800 15.7111 -0.1069
47.2000 15.7178 -0.0949
47.2200 15.7244 -0.0999
47.2400 15.7310 -0.1121
47.2600 15.7376 -0.0871
47.2800 15.7443 -0.1016
47.3000 15.7510 -0.1194
47.3200 15.7577 -0.0946
47.3400 15.7644 -0.0979
47.3600 15.7711 -0.1149
47.3800 15.7777 -0.0980
47.4000 15.7844 -0.1061
47.4200 15.7910 -0.1145
47.4400 15.7976 -0.0958
47.4600 15.8043 -0.1041
47.4800 15.8110 -0.1136
47.5000 15.8177 -0.0998
47.5200 15.8244 -0.1089
47.5400 15.8311 -0.1158
47.5600 15.8378 -0.0938
47.5800 15.8445 -0.1116
47.6000 15.8511 -0.1134
47.6200 15.8577 -0.1004
47.6400 15.8643 -0.1072
47.6600 15.8710 -0.1139
47.6800 15.8777 -0.1039
47.7000 15.8844 -0.1125
47.7200 15.8911 -0.1151
47.7400 15.8978 -0.1045
47.7600 15.9044 -0.1094
47.7800 15.9111 -0.1159
47.8000 15.9177 -0.1049
47.8200 15.9243 -0.1094
47.8400 15.9310 -0.1145
47.8600 15.9377 -0.1076
47.8800 15.9444 -0.1120
47.9000 15.9510 -0.1145
47.9200 15.9577 -0.1076
47.9400 15.9644 -0.1127
47.9600 15.9710 -0.1142
47.9800 15.9776 -0.1038
48.0000 15.9843 -0.1140
48.0200 15.9910 -0.1171
48.0400 15.9977 -0.1030
48.0600 16.0044 -0.1086
48.0800 16.0110 -0.1219
48.1000 16.0177 -0.1071
48.1200 16.0244 -0.1158
48.1400 16.0311 -0.1157
48.1600 16.0377 -0.1038
48.1800 16.0443 -0.1106
48.2000 16.0510 -0.1197
48.2200 16.0577 -0.1083
48.2400 16.0644 -0.1113
48.2600 16.0711 -0.1160
48.2800 16.0778 -0.1093
48.3000 16.0844 -0.1119
48.3200 16.0911 -0.1195
48.3400 16.0977 -0.1076
48.3600 16.1043 -0.1040
48.3800 16.1110 -0.1176
48.4000 16.1177 -0.1081
48.4200 16.1244 -0.1082
48.4400 16.1311 -0.1172
48.4600 16.1378 -0.1040
48.4800 16.1445 -0.1109
48.5000 16.1511 -0.1222
48.5200 16.1577 -0.1015
48.5400 16.1643 -0.1092
48.5600 16.1710 -0.1179
48.5800 16.1777 -0.1050
48.6000 16.1844 -0.1119
48.6200 16.1911 -0.1205
48.6400 16.1978 -0.1061
48.6600 16.2045 -0.1136
48.6800 16.2111 -0.1192
48.7000 16.2177 -0.1164
48.7200 16.2243 -0.1027
48.7400 16.2309 -0.1175
48.7600 16.2377 -0.1155
48.7800 16.2444 -0.1105
48.8000 16.2511 -0.1159
48.8200 16.2577 -0.1130
48.8400 16.2644 -0.1083
48.8600 16.2711 -0.1206
48.8800 16.2777 -0.1187
48.9000 16.2843 -0.1038
48.9200 16.2910 -0.1112
48.9400 16.2977 -0.1179
48.9600 16.3044 -0.1184
48.9800 16.3111 -0.1127
49.0000 16.3178 -0.1114
49.0200 16.3245 -0.1064
49.0400 16.3311 -0.1193
49.0600 16.3377 -0.1203
49.0800 16.3444 -0.1121
49.1000 16.3510 -0.1115
49.1200 16.3577 -0.1192
49.1400 16.3644 -0.1079
49.1600 16.3711 -0.1108
49.1800 16.3778 -0.1223
49.2000 16.3845 -0.1180
49.2200 16.3911 -0.1110
49.2400 16.3977 -0.1141
49.2600 16.4043 -0.1108
49.2800 16.4110 -0.1177
49.3000 16.4177 -0.1163
49.3200 16.4244 -0.1091
49.3400 16.4311 -0.1166
49.3600 16.4378 -0.1167
49.3800 16.4444 -0.1062
49.4000 16.4511 -0.1134
49.4200 16.4577 -0.1243
49.4400 16.4643 -0.1102
49.4600 16.4710 -0.1124
49.4800 16.4777 -0.1156
49.5000 16.4843 -0.1147
49.5200 16.4910 -0.1176
49.5400 16.4977 -0.1214
49.5600 16.5044 -0.1142
49.5800 16.5111 -0.1139
49.6000 16.5177 -0.1154
49.6200 16.5243 -0.1205
49.6400 16.5310 -0.1124
49.6600 16.5377 -0.1242
49.6800 16.5444 -0.1220
49.7000 16.5511 -0.1058
49.7200 16.5578 -0.1210
49.7400 16.5645 -0.1239
49.7600 16.5711 -0.1104
49.7800 16.5777 -0.1206
49.8000 16.5843 -0.1242
49.8200 16.5910 -0.1092
49.8400 16.5977 -0.1247
49.8600 16.6044 -0.1330
49.8800 16.6111 -0.1112
49.9000 16.6178 -0.1233
49.9200 16.6244 -0.1296
49.9400 16.6311 -0.1101
49.9600 16.6377 -0.1313
49.9800 16.6443 -0.1211
50.0000 16.6510 -0.1123
50.0200 16.6577 -0.1289
50.0400 16.6644 -0.1240
50.0600 16.6710 -0.1150
50.0800 16.6777 -0.1320
50.1000 16.6844 -0.1239
50.1200 16.6911 -0.1151
50.1400 16.6977 -0.1315
50.1600 16.7043 -0.1260
50.1800 16.7109 -0.1154
50.2000 16.7176 -0.1310
50.2200 16.7244 -0.1252
50.2400 16.7311 -0.1237
50.2600 16.7378 -0.1366
50.2800 16.7444 -0.1185
50.3000 16.7511 -0.1184
50.3200 16.7577 -0.1352
50.3400 16.7643 -0.1269
50.3600 16.7710 -0.1262
50.3800 16.7777 -0.1352
50.4000 16.7844 -0.1129
50.4200 16.7911 -0.1262
50.4400 16.7977 -0.1453
50.4600 16.8044 -0.1196
50.4800 16.8111 -0.1213
50.5000 16.8177 -0.1354
50.5200 16.8244 -0.1255
50.5400 16.8310 -0.1310
50.5600 16.8377 -0.1308
50.5800 16.8444 -0.1273
50.6000 16.8511 -0.1290
50.6200 16.8578 -0.1318
50.6400 16.8645 -0.1207
50.6600 16.8711 -0.1363
50.6800 16.8777 -0.1353
50.7000 16.8843 -0.1258
50.7200 16.8910 -0.1296
50.7400 16.8977 -0.1279
50.7600 16.9044 -0.1351
50.7800 16.9111 -0.1298
50.8000 16.9178 -0.1293
50.8200 16.9244 -0.1333
50.8400 16.9311 -0.1271
50.8600 16.9377 -0.1328
50.8800 16.9443 -0.1336
50.9000 16.9509 -0.1252
50.9200 16.9576 -0.1394
50.9400 16.9643 -0.1346
50.9600 16.9710 -0.1207
50.9800 16.9777 -0.1358
51.0000 16.9844 -0.1457
51.0200 16.9910 -0.1157
51.0400 16.9977 -0.1372
51.0600 17.0043 -0.1396
51.0800 17.0110 -0.1206
51.1000 17.0177 -0.1348
51.1200 17.0244 -0.1442
51.1400 17.0311 -0.1239
51.1600 17.0378 -0.1366
51.1800 17.0445 -0.1439
51.2000 17.0511 -0.1281
51.2200 17.0578 -0.1395
51.2400 17.0643 -0.1420
51.2600 17.0710 -0.1227
51.2800 17.0777 -0.1377
51.3000 17.0844 -0.1403
51.3200 17.0911 -0.1282
51.3400 17.0978 -0.1413
51.3600 17.1045 -0.1402
51.3800 17.1111 -0.1322
51.4000 17.1177 -0.1384
51.4200 17.1243 -0.1407
51.4400 17.1309 -0.1292
51.4600 17.1377 -0.1376
51.4800 17.1444 -0.1447
51.5000 17.1511 -0.1327
51.5200 17.1578 -0.1352
51.5400 17.1644 -0.1472
51.5600 17.1711 -0.1359
51.5800 17.1778 -0.1363
51.6000 17.1844 -0.1463
51.6200 17.1910 -0.1371
51.6400 17.1977 -0.1308
51.6600 17.2044 -0.1548
51.6800 17.2110 -0.1321
51.7000 17.2177 -0.1334
51.7200 17.2244 -0.1496
51.7400 17.2311 -0.1338
51.7600 17.2377 -0.1405
51.7800 17.2443 -0.1534
51.8000 17.2510 -0.1281
51.8200 17.2577 -0.1379
51.8400 17.2644 -0.1560
51.8600 17.2711 -0.1271
51.8800 17.2778 -0.1477
51.9000 17.2845 -0.1504
51.9200 17.2911 -0.1285
51.9400 17.2977 -0.1511
51.9600 17.3043 -0.1502
51.9800 17.3110 -0.1328
52.0000 17.3177 -0.1506
52.0200 17.3244 -0.1485
52.0400 17.3311 -0.1371
52.0600 17.3378 -0.1476
52.0800 17.3444 -0.1496
52.1000 17.3511 -0.1372
52.1200 17.3577 -0.1542
52.1400 17.3643 -0.1440
52.1600 17.3710 -0.1416
52.1800 17.3777 -0.1512
52.2000 17.3844 -0.1448
52.2200 17.3910 -0.1395
52.2400 17.3977 -0.1502
52.2600 17.4044 -0.1485
52.2800 17.4111 -0.1414
52.3000 17.4177 -0.1486
52.3200 17.4243 -0.1506
52.3400 17.4309 -0.1455
52.3600 17.4376 -0.1479
52.3800 17.4444 -0.1507
52.4000 17.4511 -0.1470
52.4200 17.4578 -0.1515
52.4400 17.4644 -0.1507
52.4600 17.4711 -0.1447
52.4800 17.4777 -0.1529
52.5000 17.4844 -0.1541
52.5200 17.4910 -0.1439
52.5400 17.4977 -0.1535
52.5600 17.5044 -0.1527
52.5800 17.5111 -0.1518
52.6000 17.5177 -0.1480
52.6200 17.5244 -0.1537
52.6400 17.5311 -0.1533
52.6600 17.5378 -0.1530
52.6800 17.5444 -0.1503
52.7000 17.5510 -0.1526
52.7200 17.5576 -0.1506
52.7400 17.5644 -0.1560
52.7600 17.5711 -0.1527
52.7800 17.5777 -0.1517
52.8000 17.5844 -0.1555
52.8200 17.5911 -0.1564
52.8400 17.5978 -0.1535
52.8600 17.6043 -0.1548
52.8800 17.6110 -0.1550
52.9000 17.6177 -0.1525
52.9200 17.6244 -0.1561
52.9400 17.6311 -0.1566
52.9600 17.6378 -0.1576
52.9800 17.6444 -0.1539
53.0000 17.6511 -0.1636
53.0200 17.6577 -0.1531
53.0400 17.6643 -0.1543
53.0600 17.6709 -0.1613
53.0800 17.6776 -0.1495
53.1000 17.6843 -0.1541
53.1200 17.6910 -0.1637
53.1400 17.6977 -0.1486
53.1600 17.7044 -0.1593
53.1800 17.7111 -0.1652
53.2000 17.7177 -0.1495
53.2200 17.7243 -0.1568
53.2400 17.7310 -0.1647
53.2600 17.7376 -0.1502
53.2800 17.7444 -0.1605
53.3000 17.7511 -0.1607
53.3200 17.7578 -0.1494
53.3400 17.7645 -0.1594
53.3600 17.7712 -0.1580
53.3800 17.7778 -0.1552
53.4000 17.7844 -0.1579
53.4200 17.7910 -0.1539
53.4400 17.7977 -0.1576
53.4600 17.8044 -0.1609
53.4800 17.8111 -0.1558
53.5000 17.8178 -0.1600
53.5200 17.8245 -0.1555
53.5400 17.8311 -0.1604
53.5600 17.8378 -0.1603
53.5800 17.8444 -0.1556
53.6000 17.8510 -0.1571
53.6200 17.8576 -0.1645
53.6400 17.8643 -0.1529
53.6600 17.8710 -0.1637
53.6800 17.8777 -0.1619
53.7000 17.8844 -0.1558
53.7200 17.8911 -0.1652
53.7400 17.8977 -0.1630
53.7600 17.9043 -0.1499
53.7800 17.9109 -0.1663
53.8000 17.9176 -0.1635
53.8200 17.9243 -0.1497
53.8400 17.9310 -0.1718
53.8600 17.9377 -0.1610
53.8800 17.9444 -0.1504
53.9000 17.9511 -0.1705
53.9200 17.9577 -0.1643
53.9400 17.9643 -0.1581
53.9600 17.9710 -0.1716
53.9800 17.9776 -0.1576
54.0000 17.9844 -0.1603
54.0200 17.9911 -0.1780
54.0400 17.9978 -0.1631
54.0600 18.0044 -0.1572
54.0800 18.0111 -0.1766
54.1000 18.0178 -0.1619
54.1200 18.0244 -0.1626
54.1400 18.0310 -0.1754
54.1600 18.0377 -0.1648
54.1800 18.0444 -0.1657
54.2000 18.0511 -0.1831
54.2200 18.0578 -0.1596
54.2400 18.0644 -0.1693
54.2600 18.0711 -0.1859
54.2800 18.0778 -0.1601
54.3000 18.0844 -0.1695
54.3200 18.0910 -0.1849
54.3400 18.0976 -0.1611
54.3600 18.1043 -0.1680
54.3800 18.1111 -0.1901
54.4000 18.1177 -0.1684
54.4200 18.1244 -0.1690
54.4400 18.1311 -0.1842
54.4600 18.1377 -0.1677
54.4800 18.1443 -0.1760
54.5000 18.1509 -0.1873
54.5200 18.1576 -0.1667
54.5400 18.1643 -0.1754
54.5600 18.1710 -0.1890
54.5800 18.1777 -0.1783
54.6000 18.1844 -0.1741
54.6200 18.1911 -0.1892
54.6400 18.1978 -0.1772
54.6600 18.2044 -0.1747
54.6800 18.2110 -0.1904
54.7000 18.2177 -0.1800
54.7200 18.2244 -0.1786
54.7400 18.2310 -0.1925
54.7600 18.2377 -0.1737
54.7800 18.2444 -0.1752
54.8000 18.2511 -0.1952
54.8200 18.2578 -0.1823
54.8400 18.2644 -0.1791
54.8600 18.2710 -0.1954
54.8800 18.2776 -0.1810
54.9000 18.2843 -0.1755
54.9200 18.2911 -0.1988
54.9400 18.2978 -0.1840
54.9600 18.3044 -0.1788
54.9800 18.3111 -0.1934
55.0000 18.3178 -0.1840
55.0200 18.3244 -0.1758
55.0400 18.3310 -0.1946
55.0600 18.3377 -0.1834
55.0800 18.3444 -0.1752
55.1000 18.3511 -0.1993
55.1200 18.3577 -0.1901
55.1400 18.3644 -0.1705
55.1600 18.3711 -0.2007
55.1800 18.3778 -0.1865
55.2000 18.3844 -0.1756
55.2200 18.3910 -0.1975
55.2400 18.3976 -0.1902
55.2600 18.4043 -0.1734
55.2800 18.4110 -0.1999
55.3000 18.4177 -0.1860
55.3200 18.4244 -0.1769
55.3400 18.4311 -0.2064
55.3600 18.4378 -0.1825
55.3800 18.4444 -0.1770
55.4000 18.4510 -0.2079
55.4200 18.4576 -0.1820
55.4400 18.4643 -0.1774
55.4600 18.4711 -0.2068
55.4800 18.4778 -0.1862
55.5000 18.4845 -0.1835
55.5200 18.4912 -0.2028
55.5400 18.4978 -0.1848
55.5600 18.5044 -0.1863
55.5800 18.5110 -0.2040
55.6000 18.5177 -0.1794
55.6200 18.5244 -0.1890
55.6400 18.5311 -0.2053
55.6600 18.5378 -0.1854
55.6800 18.5444 -0.1876
55.7000 18.5511 -0.2027
55.7200 18.5577 -0.1842
55.7400 18.5644 -0.1935
55.7600 18.5710 -0.2079
55.7800 18.5776 -0.1853
55.8000 18.5843 -0.1884
55.8200 18.5910 -0.2066
55.8400 18.5977 -0.1906
55.8600 18.6044 -0.1942
55.8800 18.6111 -0.2003
55.9000 18.6178 -0.1942
55.9200 18.6244 -0.1961
55.9400 18.6310 -0.1934
55.9600 18.6376 -0.1963
55.9800 18.6443 -0.1946
56.0000 18.6510 -0.1991
56.0200 18.6577 -0.1973
56.0400 18.6644 -0.2001
56.0600 18.6711 -0.1969
56.0800 18.6777 -0.1983
56.1000 18.6844 -0.1997
56.1200 18.6910 -0.1998
56.1400 18.6976 -0.2005
56.1600 18.7043 -0.2010
56.1800 18.7111 -0.1968
56.2000 18.7178 -0.2056
56.2200 18.7244 -0.1970
56.2400 18.7311 -0.1989
56.2600 18.7378 -0.2056
56.2800 18.7444 -0.1992
56.3000 18.7510 -0.1990
56.3200 18.7577 -0.2067
56.3400 18.7643 -0.1952
56.3600 18.7710 -0.1986
56.3800 18.7778 -0.2086
56.4000 18.7844 -0.1947
56.4200 18.7911 -0.2019
56.4400 18.7978 -0.2087
56.4600 18.8044 -0.1924
56.4800 18.8110 -0.2096
56.5000 18.8176 -0.2111
56.5200 18.8243 -0.1878
56.5400 18.8310 -0.2088
56.5600 18.8377 -0.2081
56.5800 18.8444 -0.1912
56.6000 18.8511 -0.2061
56.6200 18.8578 -0.2019
56.6400 18.8644 -0.1921
56.6600 18.8710 -0.2121
56.6800 18.8776 -0.1976
56.7000 18.8843 -0.1934
56.7200 18.8910 -0.2124
56.7400 18.8977 -0.1990
56.7600 18.9044 -0.1943
56.7800 18.9111 -0.2099
56.8000 18.9178 -0.1970
56.8200 18.9244 -0.1946
56.8400 18.9310 -0.2104
56.8600 18.9377 -0.1970
56.8800 18.9443 -0.1962
56.9000 18.9510 -0.2018
56.9200 18.9577 -0.1967
56.9400 18.9644 -0.1994
56.9600 18.9711 -0.2075
56.9800 18.9778 -0.1940
57.0000 18.9844 -0.1981
57.0200 18.9910 -0.1988
57.0400 18.9977 -0.1965
57.0600 19.0043 -0.1967
57.0800 19.0111 -0.2017
57.1000 19.0178 -0.1965
57.1200 19.0244 -0.1903
57.1400 19.0311 -0.2006
57.1600 19.0378 -0.1970
57.1800 19.0444 -0.1923
57.2000 19.0510 -0.2030
57.2200 19.0577 -0.1931
57.2400 19.0643 -0.1916
57.2600 19.0710 -0.1970
57.2800 19.0777 -0.2001
57.3000 19.0844 -0.1941
57.3200 19.0911 -0.1990
57.3400 19.0978 -0.1957
57.3600 19.1044 -0.1931
57.3800 19.1110 -0.2080
57.4000 19.1176 -0.1900
57.4200 19.1243 -0.2005
57.4400 19.1310 -0.2028
57.4600 19.1377 -0.1879
57.4800 19.1444 -0.2017
57.5000 19.1510 -0.2011
57.5200 19.1577 -0.1898
57.5400 19.1644 -0.2047
57.5600 19.1710 -0.1976
57.5800 19.1776 -0.1936
57.6000 19.1843 -0.2053
57.6200 19.1910 -0.1968
57.6400 19.1978 -0.1994
57.6600 19.2045 -0.2116
57.6800 19.2111 -0.1923
57.7000 19.2178 -0.2028
57.7200 19.2244 -0.2112
57.7400 19.2311 -0.1928
57.7600 19.2377 -0.2023
57.7800 19.2444 -0.2132
57.8000 19.2511 -0.1928
57.8200 19.2578 -0.2069
57.8400 19.2644 -0.2196
57.8600 19.2711 -0.1941
57.8800 19.2778 -0.2054
57.9000 19.2844 -0.2156
57.9200 19.2910 -0.1982
57.9400 19.2976 -0.2099
57.9600 19.3043 -0.2135
57.9800 19.3110 -0.1969
58.0000 19.3177 -0.2120
58.0200 19.3244 -0.2119
58.0400 19.3311 -0.2067
58.0600 19.3377 -0.2176
58.0800 19.3444 -0.2147
58.1000 19.3510 -0.1992
58.1200 19.3576 -0.2184
58.1400 19.3643 -0.2144
58.1600 19.3710 -0.2062
58.1800 19.3778 -0.2224
58.2000 19.3844 -0.2167
58.2200 19.3911 -0.2075
58.2400 19.3977 -0.2203
58.2600 19.4044 -0.2165
58.2800 19.4111 -0.2107
58.3000 19.4177 -0.2244
58.3200 19.4243 -0.2164
58.3400 19.4310 -0.2156
58.3600 19.4377 -0.2254
58.3800 19.4444 -0.2148
58.4000 19.4511 -0.2216
58.4200 19.4578 -0.2288
58.4400 19.4645 -0.2162
58.4600 19.4711 -0.2210
58.4800 19.4776 -0.2226
58.5000 19.4843 -0.2238
58.5200 19.4910 -0.2202
58.5400 19.4977 -0.2321
58.5600 19.5044 -0.2228
58.5800 19.5111 -0.2271
58.6000 19.5178 -0.2300
58.6200 19.5244 -0.2271
58.6400 19.5310 -0.2262
58.6600 19.5376 -0.2264
58.6800 19.5443 -0.2306
58.7000 19.5510 -0.2252
58.7200 19.5577 -0.2317
58.7400 19.5644 -0.2346
58.7600 19.5711 -0.2257
58.7800 19.5777 -0.2305
58.8000 19.5844 -0.2349
58.8200 19.5910 -0.2252
58.8400 19.5976 -0.2321
58.8600 19.6043 -0.2368
58.8800 19.6110 -0.2223
58.9000 19.6177 -0.2352
58.9200 19.6244 -0.2427
58.9400 19.6310 -0.2189
58.9600 19.6377 -0.2350
58.9800 19.6444 -0.2396
59.0000 19.6511 -0.2267
59.0200 19.6577 -0.2322
59.0400 19.6643 -0.2398
59.0600 19.6710 -0.2245
59.0800 19.6778 -0.2340
59.1000 19.6845 -0.2398
59.1200 19.6911 -0.2279
59.1400 19.6978 -0.2348
59.1600 19.7044 -0.2442
59.1800 19.7110 -0.2196
59.2000 19.7176 -0.2359
59.2200 19.7243 -0.2408
59.2400 19.7310 -0.2233
59.2600 19.7377 -0.2346
59.2800 19.7444 -0.2412
59.3000 19.7511 -0.2277
59.3200 19.7578 -0.2306
59.3400 19.7645 -0.2427
59.3600 19.7711 -0.2263
59.3800 19.7777 -0.2307
59.4000 19.7843 -0.2386
59.4200 19.7910 -0.2256
59.4400 19.7977 -0.2361
59.4600 19.8044 -0.2387
59.4800 19.8111 -0.2227
59.5000 19.8178 -0.2363
59.5200 19.8244 -0.2368
59.5400 19.8310 -0.2236
59.5600 19.8376 -0.2329
59.5800 19.8442 -0.2442
59.6000 19.8510 -0.2223
59.6200 19.8577 -0.2350
59.6400 19.8644 -0.2463
59.6600 19.8710 -0.2234
59.6800 19.8777 -0.2356
59.7000 19.8844 -0.2473
59.7200 19.8910 -0.2266
59.7400 19.8977 -0.2321
59.7600 19.9043 -0.2486
59.7800 19.9110 -0.2268
59.8000 19.9177 -0.2353
59.8200 19.9244 -0.2477
59.8400 19.9311 -0.2273
59.8600 19.9378 -0.2411
59.8800 19.9445 -0.2497
59.9000 19.9511 -0.2295
59.9200 19.9577 -0.2391
59.9400 19.9643 -0.2462
59.9600 19.9710 -0.2316
59.9800 19.9777 -0.2334
60.0000 19.9844 -0.2491
60.0200 19.9911 -0.2301
60.0400 19.9978 -0.2327
60.0600 20.0044 -0.2462
60.0800 20.0110 -0.2395
60.1000 20.0176 -0.2311
60.1200 20.0243 -0.2480
60.1400 20.0310 -0.2350
60.1600 20.0377 -0.2335
60.1800 20.0444 -0.2478
60.2000 20.0511 -0.2373
60.2200 20.0577 -0.2402
60.2400 20.0644 -0.2448
60.2600 20.0710 -0.2372
60.2800 20.0777 -0.2368
60.3000 20.0843 -0.2433
60.3200 20.0910 -0.2395
60.3400 20.0977 -0.2439
60.3600 20.1044 -0.2444
60.3800 20.1111 -0.2366
60.4000 20.1177 -0.2419
60.4200 20.1244 -0.2442
60.4400 20.1311 -0.2462
60.4600 20.1377 -0.2464
60.4800 20.1443 -0.2377
60.5000 20.1510 -0.2475
60.5200 20.1577 -0.2382
60.5400 20.1644 -0.2495
60.5600 20.1711 -0.2514
60.5800 20.1778 -0.2486
60.6000 20.1844 -0.2448
60.6200 20.1911 -0.2502
60.6400 20.1977 -0.2503
60.6600 20.2043 -0.2502
60.6800 20.2110 -0.2518
60.7000 20.2177 -0.2530
60.7200 20.2244 -0.2533
60.7400 20.2311 -0.2520
60.7600 20.2378 -0.2518
60.7800 20.2444 -0.2590
60.8000 20.2511 -0.2553
60.8200 20.2577 -0.2519
60.8400 20.2643 -0.2566
60.8600 20.2710 -0.2577
60.8800 20.2777 -0.2608
60.9000 20.2844 -0.2543
60.9200 20.2910 -0.2632
60.9400 20.2977 -0.2617
60.9600 20.3044 -0.2613
60.9800 20.3111 -0.2667
61.0000 20.3177 -0.2611
61.0200 20.3243 -0.2600
61.0400 20.3309 -0.2640
61.0600 20.3377 -0.2557
61.0800 20.3444 -0.2329
61.1000 20.3510 -0.1858
61.1200 20.3577 -0.1325
61.1400 20.3644 -0.0846
61.1600 20.3710 -0.0565
61.1800 20.3777 -0.0323
61.2000 20.3843 -0.0145
61.2200 20.3910 0.0034
61.2400 20.3978 0.0262
61.2600 20.4045 0.0349
61.2800 20.4111 0.0580
61.3000 20.4178 0.0974
61.3200 20.4245 0.1268
61.3400 20.4311 0.1597
61.3600 20.4377 0.1871
61.3800 20.4443 0.2185
61.4000 20.4510 0.2420
61.4200 20.4577 0.2633
61.4400 20.4644 0.2962
61.4600 20.4711 0.3202
61.4800 20.4778 0.3496
61.5000 20.4845 0.3732
61.5200 20.4911 0.3935
61.5400 20.4977 0.4228
61.5600 20.5043 0.4539
61.5800 20.5109 0.4643
61.6000 20.5177 0.4925
61.6200 20.5244 0.4850
61.6400 20.5311 0.4586
61.6600 20.5378 0.4714
61.6800 20.5444 0.4721
61.7000 20.5511 0.4475
61.7200 20.5576 0.4662
61.7400 20.5643 0.4654
61.7600 20.5709 0.4493
61.7800 20.5777 0.4651
61.8000 20.5844 0.4590
61.8200 20.5910 0.4532
61.8400 20.5977 0.4700
61.8600 20.6044 0.4608
61.8800 20.6110 0.4543
61.9000 20.6177 0.4742
61.9200 20.6243 0.4600
61.9400 20.6310 0.4602
61.9600 20.6377 0.4705
61.9800 20.6444 0.4608
62.0000 20.6511 0.4644
62.0200 20.6578 0.4708
62.0400 20.6645 0.4582
62.0600 20.6711 0.4640
62.0800 20.6777 0.4686
62.1000 20.6843 0.4611
62.1200 20.6910 0.4658
62.1400 20.6977 0.4689
62.1600 20.7044 0.4570
62.1800 20.7111 0.4681
62.2000 20.7178 0.4722
62.2200 20.7244 0.4560
62.2400 20.7311 0.4634
62.2600 20.7377 0.4704
62.2800 20.7443 0.4579
62.3000 20.7510 0.4654
62.3200 20.7577 0.4661
62.3400 20.7644 0.4664
62.3600 20.7710 0.4587
62.3800 20.7777 0.4661
62.4000 20.7844 0.4639
62.4200 20.7910 0.4584
62.4400 20.7977 0.4637
62.4600 20.8043 0.4650
62.4800 20.8110 0.4615
62.5000 20.8177 0.4542
62.5200 20.8244 0.4693
62.5400 20.8311 0.4535
62.5600 20.8378 0.4554
62.5800 20.8444 0.4606
62.6000 20.8511 0.4490
62.6200 20.8577 0.4516
62.6400 20.8643 0.4672
62.6600 20.8710 0.4493
62.6800 20.8777 0.4513
62.7000 20.8844 0.4632
62.7200 20.8911 0.4496
62.7400 20.8978 0.4520
62.7600 20.9045 0.4620
62.7800 20.9111 0.4498
62.8000 20.9177 0.4520
62.8200 20.9243 0.4536
62.8400 20.9310 0.4481
62.8600 20.9377 0.4526
62.8800 20.9444 0.4505
62.9000 20.9511 0.4433
62.9200 20.9578 0.4523
62.9400 20.9644 0.4477
62.9600 20.9711 0.4413
62.9800 20.9777 0.4498
63.0000 20.9843 0.4501
63.0200 20.9910 0.4468
63.0400 20.9977 0.4452
63.0600 21.0044 0.4532
63.0800 21.0111 0.4377
63.1000 21.0177 0.4361
63.1200 21.0244 0.4557
63.1400 21.0311 0.4505
63.1600 21.0377 0.4273
63.1800 21.0443 0.4409
63.2000 21.0510 0.4536
63.2200 21.0577 0.4358
63.2400 21.0644 0.4478
63.2600 21.0711 0.4404
63.2800 21.0777 0.4242
63.3000 21.0844 0.4532
63.3200 21.0911 0.4418
63.3400 21.0977 0.4285
63.3600 21.1043 0.4576
63.3800 21.1110 0.4375
63.4000 21.1177 0.4133
63.4200 21.1244 0.4546
63.4400 21.1311 0.4412
63.4600 21.1378 0.4324
63.4800 21.1444 0.4566
63.5000 21.1511 0.4159
63.5200 21.1577 0.4266
63.5400 21.1643 0.4658
63.5600 21.1710 0.4298
63.5800 21.1777 0.4306
63.6000 21.1844 0.4493
63.6200 21.1911 0.4162
63.6400 21.1978 0.4377
63.6600 21.2045 0.4541
63.6800 21.2111 0.4242
63.7000 21.2177 0.4303
63.7200 21.2243 0.4433
63.7400 21.2310 0.4186
63.7600 21.2377 0.4474
63.7800 21.2444 0.4390
63.8000 21.2511 0.4092
63.8200 21.2578 0.4421
63.8400 21.2644 0.4345
63.8600 21.2711 0.4178
63.8800 21.2777 0.4475
63.9000 21.2843 0.4326
63.9200 21.2910 0.4094
63.9400 21.2977 0.4337
63.9600 21.3044 0.4439
63.9800 21.3110 0.4269
64.0000 21.3177 0.4250
64.0200 21.3244 0.4293
64.0400 21.3311 0.4295
64.0600 21.3377 0.4246
64.0800 21.3443 0.4307
64.1000 21.3510 0.4400
64.1200 21.3577 0.4158
64.1400 21.3644 0.4250
64.1600 21.3711 0.4295
64.1800 21.3778 0.4165
64.2000 21.3845 0.4308
64.2200 21.3911 0.4398
64.2400 21.3977 0.4103
64.2600 21.4043 0.4192
64.2800 21.4110 0.4439
64.3000 21.4177 0.4226
64.3200 21.4244 0.4207
64.3400 21.4311 0.4336
64.3600 21.4378 0.4163
64.3800 21.4444 0.4265
64.4000 21.4511 0.4341
64.4200 21.4577 0.4187
64.4400 21.4643 0.4277
64.4600 21.4710 0.4242
64.4800 21.4777 0.4140
64.5000 21.4844 0.4278
64.5200 21.4910 0.4292
64.5400 21.4977 0.4154
64.5600 21.5044 0.4260
64.5800 21.5111 0.4147
64.6000 21.5177 0.4167
64.6200 21.5243 0.4382
64.6400 21.5309 0.4099
64.6600 21.5376 0.3947
64.6800 21.5443 0.4489
64.7000 21.5511 0.4151
64.7200 21.5577 0.3988
64.7400 21.5644 0.4469
64.7600 21.5711 0.4111
64.7800 21.5777 0.3929
64.8000 21.5843 0.4458
64.8200 21.5910 0.4217
64.8400 21.5977 0.3975
64.8600 21.6044 0.4326
64.8800 21.6111 0.4095
64.9000 21.6177 0.4041
64.9200 21.6244 0.4368
64.9400 21.6311 0.4126
64.9600 21.6378 0.4073
64.9800 21.6444 0.4275
65.0000 21.6510 0.4055
65.0200 21.6577 0.4128
65.0400 21.6644 0.4293
65.0600 21.6711 0.4085
65.0800 21.6778 0.4054
65.1000 21.6845 0.4258
65.1200 21.6911 0.4090
65.1400 21.6978 0.4121
65.1600 21.7044 0.4219
65.1800 21.7110 0.4129
65.2000 21.7177 0.4083
65.2200 21.7244 0.4145
65.2400 21.7311 0.4153
65.2600 21.7378 0.4116
65.2800 21.7444 0.4076
65.3000 21.7511 0.4102
65.3200 21.7577 0.4135
65.3400 21.7643 0.4144
65.3600 21.7709 0.4080
65.3800 21.7776 0.4141
65.4000 21.7843 0.4057
65.4200 21.7910 0.4066
65.4400 21.7977 0.4140
65.4600 21.8044 0.4089
65.4800 21.8111 0.4037
65.5000 21.8177 0.4101
65.5200 21.8243 0.4070
65.5400 21.8310 0.4073
65.5600 21.8377 0.4175
65.5800 21.8444 0.4066
65.6000 21.8511 0.4048
65.6200 21.8578 0.4072
65.6400 21.8645 0.4126
65.6600 21.8711 0.4049
65.6800 21.8778 0.4091
65.7000 21.8844 0.4038
65.7200 21.8910 0.4053
65.7400 21.8977 0.4074
65.7600 21.9044 0.4059
65.7800 21.9111 0.4011
65.8000 21.9178 0.4061
65.8200 21.9245 0.4033
65.8400 21.9311 0.4027
65.8600 21.9377 0.4055
65.8800 21.9443 0.4042
65.9000 21.9510 0.4029
65.9200 21.9577 0.4037
65.9400 21.9644 0.4017
65.9600 21.9711 0.4038
65.9800 21.9777 0.4054
66.0000 21.9844 0.4037
66.0200 21.9911 0.3972
66.0400 21.9978 0.4054
66.0600 22.0044 0.4073
66.0800 22.0110 0.3947
66.1000 22.0176 0.4113
66.1200 22.0243 0.3990
66.1400 22.0310 0.3987
66.1600 22.0377 0.4053
66.1800 22.0444 0.4035
66.2000 22.0511 0.4042
66.2200 22.0577 0.4058
66.2400 22.0643 0.3969
66.2600 22.0710 0.4046
66.2800 22.0777 0.4080
66.3000 22.0844 0.3904
66.3200 22.0911 0.4070
66.3400 22.0978 0.4141
66.3600 22.1045 0.3916
66.3800 22.1111 0.4078
66.4000 22.1177 0.4073
66.4200 22.1243 0.3973
66.4400 22.1310 0.4079
66.4600 22.1377 0.4046
66.4800 22.1444 0.3932
66.5000 22.1511 0.4000
66.5200 22.1578 0.4046
66.5400 22.1645 0.3981
66.5600 22.1711 0.4018
66.5800 22.1777 0.3992
66.6000 22.1843 0.3977
66.6200 22.1910 0.3983
66.6400 22.1976 0.4035
66.6600 22.2043 0.3961
66.6800 22.2110 0.3949
66.7000 22.2177 0.3979
66.7200 22.2244 0.3970
66.7400 22.2311 0.3932
66.7600 22.2377 0.3984
66.7800 22.2443 0.3938
66.8000 22.2509 0.3959
66.8200 22.2576 0.4033
66.8400 22.2643 0.3922
66.8600 22.2711 0.3909
66.8800 22.2777 0.4041
66.9000 22.2844 0.3889
66.9200 22.2911 0.3950
66.9400 22.2977 0.3995
66.9600 22.3044 0.3862
66.9800 22.3110 0.3932
67.0000 22.3177 0.4051
67.0200 22.3244 0.3818
67.0400 22.3311 0.3907
67.0600 22.3377 0.4025
67.0800 22.3444 0.3789
67.1000 22.3511 0.3941
67.1200 22.3578 0.3941
67.1400 22.3644 0.3773
67.1600 22.3710 0.3929
67.1800 22.3776 0.3895
67.2000 22.3843 0.3739
67.2200 22.3911 0.3943
67.2400 22.3978 0.3856
67.2600 22.4044 0.3760
67.2800 22.4111 0.3866
67.3000 22.4178 0.3827
67.3200 22.4244 0.3813
67.3400 22.4310 0.3853
67.3600 22.4377 0.3796
67.3800 22.4444 0.3790
67.4000 22.4511 0.3833
67.4200 22.4578 0.3844
67.4400 22.4644 0.3748
67.4600 22.4711 0.3795
67.4800 22.4777 0.3844
67.5000 22.4843 0.3730
67.5200 22.4909 0.3790
67.5400 22.4976 0.3860
67.5600 22.5043 0.3725
67.5800 22.5110 0.3743
67.6000 22.5177 0.3851
67.6200 22.5244 0.3675
67.6400 22.5311 0.3767
67.6600 22.5377 0.3853
67.6800 22.5443 0.3632
67.7000 22.5510 0.3736
67.7200 22.5576 0.3908
67.7400 22.5643 0.3605
67.7600 22.5711 0.3736
67.7800 22.5778 0.3852
67.8000 22.5845 0.3658
67.8200 22.5912 0.3713
67.8400 22.5978 0.3850
67.8600 22.6044 0.3655
67.8800 22.6110 0.3778
67.9000 22.6177 0.3794
67.9200 22.6244 0.3653
67.9400 22.6311 0.3787
67.9600 22.6378 0.3740
67.9800 22.6445 0.3636
68.0000 22.6511 0.3756
68.0200 22.6578 0.3735
68.0400 22.6644 0.3649
68.0600 22.6710 0.3732
68.0800 22.6777 0.3729
68.1000 22.6843 0.3700
68.1200 22.6910 0.3707
68.1400 22.6977 0.3664
68.1600 22.7044 0.3684
68.1800 22.7111 0.3757
68.2000 22.7177 0.3651
68.2200 22.7243 0.3746
68.2400 22.7309 0.3710
68.2600 22.7376 0.3752
68.2800 22.7443 0.3715
68.3000 22.7510 0.3693
68.3200 22.7577 0.3695
68.3400 22.7644 0.3688
68.3600 22.7711 0.3676
68.3800 22.7777 0.3725
68.4000 22.7844 0.3629
68.4200 22.7910 0.3703
68.4400 22.7976 0.3741
68.4600 22.8043 0.3623
68.4800 22.8111 0.3685
68.5000 22.8178 0.3738
68.5200 22.8245 0.3634
68.5400 22.8311 0.3669
68.5600 22.8378 0.3708
68.5800 22.8444 0.3640
68.6000 22.8510 0.3679
68.6200 22.8577 0.3694
68.6400 22.8644 0.3633
68.6600 22.8711 0.3670
68.6800 22.8778 0.3653
68.7000 22.8844 0.3617
68.7200 22.8911 0.3679
68.7400 22.8978 0.3620
68.7600 22.9044 0.3646
68.7800 22.9110 0.3639
68.8000 22.9176 0.3634
68.8200 22.9243 0.3667
68.8400 22.9310 0.3626
68.8600 22.9377 0.3616
68.8800 22.9444 0.3658
68.9000 22.9511 0.3594
68.9200 22.9577 0.3636
68.9400 22.9644 0.3672
68.9600 22.9710 0.3603
68.9800 22.9776 0.3630
69.0000 22.9843 0.3678
69.0200 22.9910 0.3544
69.0400 22.9977 0.3604
69.0600 23.0044 0.3724
69.0800 23.0111 0.3526
69.1000 23.0177 0.3553
69.1200 23.0244 0.3653
69.1400 23.0310 0.3579
69.1600 23.0376 0.3621
69.1800 23.0443 0.3667
69.2000 23.0510 0.3502
69.2200 23.0577 0.3590
69.2400 23.0644 0.3672
69.2600 23.0712 0.3519
69.2800 23.0778 0.3546
69.3000 23.0844 0.3635
69.3200 23.0910 0.3531
69.3400 23.0976 0.3630
69.3600 23.1043 0.3583
69.3800 23.1111 0.3522
69.4000 23.1178 0.3608
69.4200 23.1245 0.3548
69.4400 23.1311 0.3545
69.4600 23.1378 0.3617
69.4800 23.1444 0.3506
69.5000 23.1510 0.3579
69.5200 23.1577 0.3642
69.5400 23.1644 0.3450
69.5600 23.1711 0.3551
69.5800 23.1777 0.3610
69.6000 23.1844 0.3514
69.6200 23.1911 0.3598
69.6400 23.1978 0.3517
69.6600 23.2044 0.3469
69.6800 23.2110 0.3651
69.7000 23.2176 0.3511
69.7200 23.2243 0.3539
69.7400 23.2310 0.3579
69.7600 23.2377 0.3497
69.7800 23.2444 0.3529
69.8000 23.2511 0.3591
69.8200 23.2578 0.3432
69.8400 23.2644 0.3548
69.8600 23.2710 0.3505
69.8800 23.2776 0.3475
69.9000 23.2843 0.3617
69.9200 23.2911 0.3520
69.9400 23.2978 0.3421
69.9600 23.3045 0.3551
69.9800 23.3111 0.3458
70.0000 23.3178 0.3517
70.0200 23.3244 0.3556
70.0400 23.3310 0.3413
70.0600 23.3377 0.3481
70.0800 23.3444 0.3554
70.1000 23.3511 0.3472
70.1200 23.3578 0.3475
70.1400 23.3644 0.3495
70.1600 23.3711 0.3436
70.1800 23.3778 0.3511
70.2000 23.3844 0.3476
70.2200 23.3910 0.3445
70.2400 23.3976 0.3463
70.2600 23.4043 0.3458
70.2800 23.4110 0.3440
70.3000 23.4177 0.3505
70.3200 23.4244 0.3441
70.3400 23.4311 0.3447
70.3600 23.4378 0.3428
70.3800 23.4444 0.3464
70.4000 23.4510 0.3497
70.4200 23.4576 0.3424
70.4400 23.4643 0.3392
70.4600 23.4710 0.3445
70.4800 23.4777 0.3408
70.5000 23.4844 0.3433
70.5200 23.4911 0.3444
70.5400 23.4977 0.3395
70.5600 23.5044 0.3393
70.5800 23.5110 0.3431
70.6000 23.5176 0.3388
70.6200 23.5243 0.3470
70.6400 23.5310 0.3427
70.6600 23.5378 0.3262
70.6800 23.5444 0.3484
70.7000 23.5511 0.3415
70.7200 23.5578 0.3316
70.7400 23.5644 0.3461
70.7600 23.5710 0.3423
70.7800 23.5777 0.3284
70.8000 23.5843 0.3467
70.8200 23.5910 0.3447
70.8400 23.5978 0.3282
70.8600 23.6045 0.3439
70.8800 23.6112 0.3383
70.9000 23.6178 0.3271
70.9200 23.6245 0.3469
70.9400 23.6310 0.3354
70.9600 23.6376 0.3289
70.9800 23.6443 0.3434
71.0000 23.6510 0.3363
71.0200 23.6577 0.3321
71.0400 23.6644 0.3418
71.0600 23.6711 0.3380
71.0800 23.6777 0.3253
71.1000 23.6844 0.3429
71.1200 23.6910 0.3302
71.1400 23.6976 0.3284
71.1600 23.7043 0.3408
71.1800 23.7110 0.3348
71.2000 23.7177 0.3281
71.2200 23.7244 0.3386
71.2400 23.7310 0.3337
71.2600 23.7377 0.3282
71.2800 23.7444 0.3352
71.3000 23.7510 0.3356
71.3200 23.7577 0.3267
71.3400 23.7643 0.3413
71.3600 23.7710 0.3328
71.3800 23.7777 0.3280
71.4000 23.7844 0.3433
71.4200 23.7911 0.3317
71.4400 23.7978 0.3210
71.4600 23.8045 0.3420
71.4800 23.8110 0.3295
71.5000 23.8176 0.3250
71.5200 23.8243 0.3408
71.5400 23.8311 0.3308
71.5600 23.8378 0.3263
71.5800 23.8444 0.3353
71.6000 23.8511 0.3263
71.6200 23.8578 0.3247
71.6400 23.8644 0.3391
71.6600 23.8710 0.3251
71.6800 23.8777 0.3253
71.7000 23.8843 0.3340
71.7200 23.8910 0.3232
71.7400 23.8977 0.3259
71.7600 23.9044 0.3370
71.7800 23.9111 0.3170
71.8000 23.9177 0.3257
71.8200 23.9244 0.3327
71.8400 23.9310 0.3182
71.8600 23.9376 0.3251
71.8800 23.9443 0.3332
71.9000 23.9510 0.3216
71.9200 23.9577 0.3243
71.9400 23.9644 0.3251
71.9600 23.9710 0.3236
71.9800 23.9777 0.3227
72.0000 23.9844 0.3239
72.0200 23.9910 0.3210
72.0400 23.9976 0.3185
72.0600 24.0043 0.3247
72.0800 24.0110 0.3195
72.1000 24.0177 0.3174
72.1200 24.0244 0.3233
72.1400 24.0311 0.3197
72.1600 24.0378 0.3133
72.1800 24.0445 0.3228
72.2000 24.0511 0.3194
72.2200 24.0577 0.3152
72.2400 24.0644 0.3247
72.2600 24.0711 0.3224
72.2800 24.0778 0.3100
72.3000 24.0844 0.3249
72.3200 24.0911 0.3141
72.3400 24.0978 0.3109
72.3600 24.1044 0.3262
72.3800 24.1110 0.3147
72.4000 24.1176 0.3131
72.4200 24.1243 0.3268
72.4400 24.1310 0.3156
72.4600 24.1377 0.3125
72.4800 24.1444 0.3216
72.5000 24.1511 0.3147
72.5200 24.1577 0.3129
72.5400 24.1644 0.3185
72.5600 24.1710 0.3117
72.5800 24.1776 0.3180
72.6000 24.1843 0.3184
72.6200 24.1910 0.3087
72.6400 24.1977 0.3157
72.6600 24.2044 0.3137
72.6800 24.2111 0.3112
72.7000 24.2177 0.3147
72.7200 24.2244 0.3158
72.7400 24.2311 0.3131
72.7600 24.2377 0.3182
72.7800 24.2444 0.3125
72.8000 24.2510 0.3109
72.8200 24.2577 0.3157
72.8400 24.2644 0.3143
72.8600 24.2711 0.3063
72.8800 24.2778 0.3178
72.9000 24.2845 0.3109
72.9200 24.2911 0.3110
72.9400 24.2977 0.3148
72.9600 24.3043 0.3145
72.9800 24.3110 0.3086
73.0000 24.3177 0.3133
73.0200 24.3245 0.3106
73.0400 24.3311 0.3087
73.0600 24.3378 0.3162
73.0800 24.3444 0.3077
73.1000 24.3510 0.3072
73.1200 24.3576 0.3172
73.1400 24.3643 0.3058
73.1600 24.3710 0.3070
73.1800 24.3777 0.3159
73.2000 24.3844 0.3031
73.2200 24.3910 0.3125
73.2400 24.3977 0.3136
73.2600 24.4044 0.3004
73.2800 24.4110 0.3058
73.3000 24.4177 0.3122
73.3200 24.4243 0.2991
73.3400 24.4310 0.3113
73.3600 24.4377 0.3133
73.3800 24.4444 0.3022
73.4000 24.4511 0.3075
73.4200 24.4578 0.3118
73.4400 24.4644 0.2978
73.4600 24.4711 0.3061
73.4800 24.4777 0.3122
73.5000 24.4843 0.2983
73.5200 24.4910 0.3088
73.5400 24.4977 0.3111
73.5600 24.5044 0.2940
73.5800 24.5111 0.3049
73.6000 24.5178 0.3091
73.6200 24.5244 0.2978
73.6400 24.5311 0.3084
73.6600 24.5377 0.3042
73.6800 24.5443 0.2936
73.7000 24.5510 0.3069
73.7200 24.5577 0.3013
73.7400 24.5644 0.2930
73.7600 24.5711 0.3098
73.7800 24.5778 0.2988
73.8000 24.5844 0.2913
73.8200 24.5911 0.3077
73.8400 24.5977 0.3021
73.8600 24.6043 0.2894
73.8800 24.6110 0.3081
73.9000 24.6177 0.2977
73.9200 24.6244 0.2866
73.9400 24.6311 0.3084
73.9600 24.6378 0.2954
73.9800 24.6444 0.2924
74.0000 24.6510 0.3065
74.0200 24.6576 0.2922
74.0400 24.6642 0.2925
74.0600 24.6710 0.3073
74.0800 24.6777 0.2909
74.1000 24.6844 0.2906
74.1200 24.6911 0.3026
74.1400 24.6977 0.2874
74.1600 24.7044 0.2948
74.1800 24.7111 0.3000
74.2000 24.7177 0.2879
74.2200 24.7243 0.3000
74.2400 24.7310 0.2952
74.2600 24.7377 0.2904
74.2800 24.7444 0.2947
74.3000 24.7511 0.2961
74.3200 24.7578 0.2928
74.3400 24.7645 0.2950
74.3600 24.7711 0.2902
74.3800 24.7777 0.2974
74.4000 24.7843 0.2923
74.4200 24.7910 0.2939
74.4400 24.7977 0.2967
74.4600 24.8044 0.2893
74.4800 24.8111 0.2924
74.5000 24.8178 0.2973
74.5200 24.8244 0.2830
74.5400 24.8310 0.2965
74.5600 24.8376 0.2998
74.5800 24.8443 0.2828
74.6000 24.8510 0.3009
74.6200 24.8577 0.2988
74.6400 24.8644 0.2815
74.6600 24.8711 0.3009
74.6800 24.8777 0.2962
74.7000 24.8844 0.2796
74.7200 24.8911 0.3041
74.7400 24.8977 0.2909
74.7600 24.9043 0.2858
74.7800 24.9110 0.3000
74.8000 24.9177 0.2878
74.8200 24.9244 0.2862
74.8400 24.9310 0.2999
74.8600 24.9377 0.2828
74.8800 24.9444 0.2907
74.9000 24.9511 0.2925
74.9200 24.9577 0.2855
74.9400 24.9643 0.2931
74.9600 24.9710 0.2933
74.9800 24.9777 0.2871
75.0000 24.9844 0.2949
75.0200 24.9911 0.2892
75.0400 24.9978 0.2900
75.0600 25.0045 0.2917
75.0800 25.0111 0.2826
75.1000 25.0177 0.2947
75.1200 25.0243 0.2945
75.1400 25.0310 0.2855
75.1600 25.0377 0.2872
75.1800 25.0444 0.2919
75.2000 25.0511 0.2873
75.2200 25.0578 0.2893
75.2400 25.0644 0.2865
75.2600 25.0711 0.2888
75.2800 25.0777 0.2883
75.3000 25.0843 0.2869
75.3200 25.0910 0.2843
75.3400 25.0977 0.2910
75.3600 25.1044 0.2801
75.3800 25.1111 0.2835
75.4000 25.1177 0.2866
75.4200 25.1244 0.2793
75.4400 25.1311 0.2839
75.4600 25.1377 0.2864
75.4800 25.1443 0.2836
75.5000 25.1509 0.2849
75.5200 25.1576 0.2849
75.5400 25.1643 0.2833
75.5600 25.1710 0.2814
75.5800 25.1777 0.2830
75.6000 25.1844 0.2814
75.6200 25.1910 0.2824
75.6400 25.1977 0.2803
75.6600 25.2043 0.2814
75.6800 25.2110 0.2871
75.7000 25.2177 0.2761
75.7200 25.2245 0.2789
75.7400 25.2311 0.2835
75.7600 25.2378 0.2760
75.7800 25.2445 0.2767
75.8000 25.2511 0.2867
75.8200 25.2577 0.2789
75.8400 25.2643 0.2826
75.8600 25.2710 0.2792
75.8800 25.2777 0.2773
75.9000 25.2844 0.2787
75.9200 25.2911 0.2796
75.9400 25.2978 0.2746
75.9600 25.3045 0.2797
75.9800 25.3111 0.2764
76.0000 25.3177 0.2757
76.0200 25.3243 0.2759
76.0400 25.3310 0.2767
76.0600 25.3377 0.2751
76.0800 25.3444 0.2725
76.1000 25.3511 0.2801
76.1200 25.3578 0.2751
76.1400 25.3645 0.2693
76.1600 25.3711 0.2746
76.1800 25.3777 0.2748
76.2000 25.3843 0.2708
76.2200 25.3909 0.2777
76.2400 25.3976 0.2708
76.2600 25.4044 0.2728
76.2800 25.4111 0.2739
76.3000 25.4177 0.2757
76.3200 25.4244 0.2722
76.3400 25.4310 0.2765
76.3600 25.4377 0.2685
76.3800 25.4443 0.2717
76.4000 25.4510 0.2781
76.4200 25.4577 0.2663
76.4400 25.4644 0.2727
76.4600 25.4711 0.2751
76.4800 25.4778 0.2663
76.5000 25.4845 0.2704
76.5200 25.4911 0.2758
76.5400 25.4977 0.2722
76.5600 25.5043 0.2700
76.5800 25.5110 0.2732
76.6000 25.5177 0.2702
76.6200 25.5244 0.2751
76.6400 25.5311 0.2723
76.6600 25.5378 0.2631
76.6800 25.5445 0.2756
76.7000 25.5511 0.2710
76.7200 25.5577 0.2660
76.7400 25.5643 0.2752
76.7600 25.5710 0.2746
76.7800 25.5777 0.2626
76.8000 25.5844 0.2712
76.8200 25.5910 0.2721
76.8400 25.5977 0.2689
76.8600 25.6044 0.2703
76.8800 25.6110 0.2705
76.9000 25.6177 0.2602
76.9200 25.6243 0.2778
76.9400 25.6310 0.2647
76.9600 25.6377 0.2644
76.9800 25.6444 0.2759
77.0000 25.6511 0.2625
77.0200 25.6578 0.2677
77.0400 25.6644 0.2730
77.0600 25.6711 0.2603
77.0800 25.6777 0.2695
77.1000 25.6843 0.2696
77.1200 25.6910 0.2631
77.1400 25.6977 0.2689
77.1600 25.7044 0.2609
77.1800 25.7111 0.2653
77.2000 25.7178 0.2714
77.2200 25.7245 0.2643
77.2400 25.7311 0.2595
77.2600 25.7377 0.2707
77.2800 25.7443 0.2621
77.3000 25.7510 0.2636
77.3200 25.7577 0.2620
77.3400 25.7644 0.2669
77.3600 25.7711 0.2598
77.3800 25.7778 0.2621
77.4000 25.7844 0.2649
77.4200 25.7911 0.2615
77.4400 25.7977 0.2533
77.4600 25.8044 0.2623
77.4800 25.8110 0.2622
77.5000 25.8177 0.2550
77.5200 25.8244 0.2629
77.5400 25.8311 0.2628
77.5600 25.8377 0.2534
77.5800 25.8445 0.2664
77.6000 25.8511 0.2536
77.6200 25.8577 0.2505
77.6400 25.8643 0.2650
77.6600 25.8709 0.2585
77.6800 25.8776 0.2488
77.7000 25.8844 0.2580
77.7200 25.8911 0.2595
77.7400 25.8977 0.2498
77.7600 25.9044 0.2608
77.7800 25.9111 0.2521
77.8000 25.9177 0.2516
77.8200 25.9243 0.2628
77.8400 25.9310 0.2512
77.8600 25.9377 0.2496
77.8800 25.9444 0.2629
77.9000 25.9511 0.2507
77.9200 25.9578 0.2528
77.9400 25.9644 0.2612
77.9600 25.9711 0.2481
77.9800 25.9777 0.2499
78.0000 25.9843 0.2628
78.0200 25.9910 0.2487
78.0400 25.9977 0.2537
78.0600 26.0044 0.2610
78.0800 26.0111 0.2459
78.1000 26.0178 0.2557
78.1200 26.0245 0.2598
78.1400 26.0311 0.2436
78.1600 26.0377 0.2546
78.1800 26.0443 0.2599
78.2000 26.0510 0.2454
78.2200 26.0577 0.2589
78.2400 26.0644 0.2550
78.2600 26.0711 0.2459
78.2800 26.0778 0.2584
78.3000 26.0844 0.2512
78.3200 26.0911 0.2439
78.3400 26.0977 0.2624
78.3600 26.1043 0.2470
78.3800 26.1110 0.2488
78.4000 26.1176 0.2552
78.4200 26.1244 0.2482
78.4400 26.1310 0.2455
78.4600 26.1377 0.2571
78.4800 26.1444 0.2458
78.5000 26.1510 0.2459
78.5200 26.1577 0.2525
78.5400 26.1644 0.2479
78.5600 26.1710 0.2465
78.5800 26.1777 0.2569
78.6000 26.1844 0.2421
78.6200 26.1911 0.2448
78.6400 26.1978 0.2537
78.6600 26.2045 0.2370
78.6800 26.2111 0.2480
78.7000 26.2178 0.2522
78.7200 26.2243 0.2363
78.7400 26.2310 0.2481
78.7600 26.2377 0.2468
78.7800 26.2444 0.2411
78.8000 26.2511 0.2452
78.8200 26.2578 0.2449
78.8400 26.2644 0.2468
78.8600 26.2711 0.2467
78.8800 26.2777 0.2414
78.9000 26.2843 0.2422
78.9200 26.2910 0.2490
78.9400 26.2976 0.2374
78.9600 26.3044 0.2485
78.9800 26.3111 0.2442
79.0000 26.3177 0.2357
79.0200 26.3244 0.2483
79.0400 26.3311 0.2411
79.0600 26.3377 0.2279
79.0800 26.3443 0.2514
79.1000 26.3509 0.2380
79.1200 26.3576 0.2315
79.1400 26.3643 0.2528
79.1600 26.3711 0.2341
79.1800 26.3778 0.2344
79.2000 26.3844 0.2521
79.2200 26.3911 0.2341
79.2400 26.3977 0.2333
79.2600 26.4043 0.2458
79.2800 26.4110 0.2320
79.3000 26.4177 0.2412
79.3200 26.4244 0.2436
79.3400 26.4311 0.2293
79.3600 26.4377 0.2408
79.3800 26.4444 0.2424
79.4000 26.4511 0.2248
79.4200 26.4578 0.2409
79.4400 26.4644 0.2420
79.4600 26.4710 0.2286
79.4800 26.4777 0.2400
79.5000 26.4844 0.2415
79.5200 26.4911 0.2273
79.5400 26.4978 0.2354
79.5600 26.5044 0.2409
79.5800 26.5111 0.2315
79.6000 26.5178 0.2373
79.6200 26.5244 0.2380
79.6400 26.5310 0.2333
79.6600 26.5376 0.2429
79.6800 26.5443 0.2328
79.7000 26.5511 0.2305
79.7200 26.5577 0.2417
79.7400 26.5644 0.2313
79.7600 26.5711 0.2303
79.7800 26.5777 0.2431
79.8000 26.5843 0.2341
79.8200 26.5909 0.2290
79.8400 26.5976 0.2424
79.8600 26.6043 0.2309
79.8800 26.6110 0.2302
79.9000 26.6177 0.2379
79.9200 26.6244 0.2348
79.9400 26.6310 0.2302
79.9600 26.6377 0.2396
79.9800 26.6443 0.2283
80.0000 26.6510 0.2366
80.0200 26.6577 0.2392
80.0400 26.6644 0.2313
80.0600 26.6711 0.2347
80.0800 26.6778 0.2374
80.1000 26.6845 0.2288
80.1200 26.6911 0.2356
80.1400 26.6978 0.2340
80.1600 26.7044 0.2335
80.1800 26.7110 0.2379
80.2000 26.7177 0.2316
80.2200 26.7244 0.2326
80.2400 26.7311 0.2327
80.2600 26.7378 0.2323
80.2800 26.7445 0.2320
80.3000 26.7511 0.2350
80.3200 26.7578 0.2284
80.3400 26.7644 0.2369
80.3600 26.7710 0.2336
80.3800 26.7776 0.2296
80.4000 26.7844 0.2359
80.4200 26.7911 0.2339
80.4400 26.7977 0.2291
80.4600 26.8044 0.2389
80.4800 26.8111 0.2274
80.5000 26.8178 0.2283
80.5200 26.8244 0.2389
80.5400 26.8310 0.2287
80.5600 26.8376 0.2284
80.5800 26.8443 0.2354
80.6000 26.8510 0.2261
80.6200 26.8577 0.2300
80.6400 26.8644 0.2352
80.6600 26.8711 0.2269
80.6800 26.8777 0.2240
80.7000 26.8843 0.2353
80.7200 26.8910 0.2249
80.7400 26.8976 0.2243
80.7600 26.9044 0.2318
80.7800 26.9111 0.2254
80.8000 26.9178 0.2294
80.8200 26.9244 0.2288
80.8400 26.9311 0.2229
80.8600 26.9378 0.2257
80.8800 26.9444 0.2338
80.9000 26.9510 0.2261
80.9200 26.9577 0.2257
80.9400 26.9644 0.2291
80.9600 26.9711 0.2213
80.9800 26.9778 0.2220
81.0000 26.9844 0.2365
81.0200 26.9911 0.2212
81.0400 26.9978 0.2206
81.0600 27.0044 0.2291
81.0800 27.0110 0.2194
81.1000 27.0176 0.2263
81.1200 27.0243 0.2328
81.1400 27.0310 0.2119
81.1600 27.0377 0.2226
81.1800 27.0444 0.2266
81.2000 27.0511 0.2123
81.2200 27.0577 0.2255
81.2400 27.0643 0.2226
81.2600 27.0709 0.2128
81.2800 27.0776 0.2266
81.3000 27.0843 0.2250
81.3200 27.0911 0.2138
81.3400 27.0977 0.2277
81.3600 27.1044 0.2188
81.3800 27.1111 0.2178
81.4000 27.1178 0.2237
81.4200 27.1244 0.2167
81.4400 27.1310 0.2197
81.4600 27.1377 0.2248
81.4800 27.1444 0.2104
81.5000 27.1511 0.2220
81.5200 27.1577 0.2220
81.5400 27.1644 0.2141
81.5600 27.1711 0.2138
81.5800 27.1778 0.2139
81.6000 27.1844 0.2166
81.6200 27.1910 0.2225
81.6400 27.1976 0.2133
81.6600 27.2043 0.2163
81.6800 27.2111 0.2194
81.7000 27.2178 0.2124
81.7200 27.2244 0.2163
81.7400 27.2311 0.2203
81.7600 27.2378 0.2130
81.7800 27.2444 0.2101
81.8000 27.2510 0.2194
81.8200 27.2576 0.2151
81.8400 27.2644 0.2136
81.8600 27.2711 0.2130
81.8800 27.2778 0.2171
81.9000 27.2844 0.2102
81.9200 27.2911 0.2173
81.9400 27.2978 0.2151
81.9600 27.3044 0.2129
81.9800 27.3110 0.2129
82.0000 27.3176 0.2200
82.0200 27.3243 0.2137
82.0400 27.3310 0.2129
82.0600 27.3377 0.2147
82.0800 27.3444 0.2137
82.1000 27.3510 0.2143
82.1200 27.3577 0.2104
82.1400 27.3644 0.2068
82.1600 27.3710 0.2139
82.1800 27.3776 0.2135
82.2000 27.3843 0.2082
82.2200 27.3911 0.2100
82.2400 27.3978 0.2152
82.2600 27.4045 0.2085
82.2800 27.4112 0.2111
82.3000 27.4178 0.2119
82.3200 27.4244 0.2068
82.3400 27.4310 0.2154
82.3600 27.4376 0.2096
82.3800 27.4444 0.2059
82.4000 27.4511 0.2143
82.4200 27.4578 0.2147
82.4400 27.4645 0.2006
82.4600 27.4711 0.2140
82.4800 27.4778 0.2116
82.5000 27.4844 0.2008
82.5200 27.4910 0.2116
82.5400 27.4976 0.2157
82.5600 27.5043 0.2005
82.5800 27.5110 0.2123
82.6000 27.5177 0.2046
82.6200 27.5244 0.2050
82.6400 27.5311 0.2144
82.6600 27.5378 0.2048
82.6800 27.5444 0.2004
82.7000 27.5510 0.2142
82.7200 27.5576 0.2061
82.7400 27.5643 0.2017
82.7600 27.5710 0.2106
82.7800 27.5777 0.1997
82.8000 27.5844 0.2025
82.8200 27.5911 0.2114
82.8400 27.5977 0.2039
82.8600 27.6044 0.2043
82.8800 27.6110 0.2060
82.9000 27.6176 0.2023
82.9200 27.6243 0.2057
82.9400 27.6311 0.2029
82.9600 27.6378 0.1995
82.9800 27.6444 0.2041
83.0000 27.6511 0.2050
83.0200 27.6578 0.1964
83.0400 27.6644 0.2054
83.0600 27.6710 0.2082
83.0800 27.6777 0.1996
83.1000 27.6844 0.1981
83.1200 27.6911 0.2081
83.1400 27.6977 0.2037
83.1600 27.7044 0.2006
83.1800 27.7111 0.2015
83.2000 27.7178 0.1969
83.2200 27.7244 0.2010
83.2400 27.7310 0.2005
83.2600 27.7376 0.1988
83.2800 27.7443 0.2066
83.3000 27.7510 0.1991
83.3200 27.7577 0.1940
83.3400 27.7644 0.2054
83.3600 27.7711 0.2086
83.3800 27.7778 0.1954
83.4000 27.7844 0.1936
83.4200 27.7910 0.2060
83.4400 27.7976 0.1981
83.4600 27.8043 0.2006
83.4800 27.8110 0.1982
83.5000 27.8177 0.1973
83.5200 27.8244 0.1985
83.5400 27.8311 0.2034
83.5600 27.8377 0.1951
83.5800 27.8444 0.1931
83.6000 27.8510 0.2058
83.6200 27.8577 0.1960
83.6400 27.8643 0.1892
83.6600 27.8710 0.2076
83.6800 27.8777 0.1982
83.7000 27.8844 0.1908
83.7200 27.8911 0.1976
83.7400 27.8978 0.2021
83.7600 27.9044 0.1901
83.7800 27.9110 0.1991
83.8000 27.9177 0.2003
83.8200 27.9243 0.1914
83.8400 27.9311 0.1990
83.8600 27.9378 0.1935
83.8800 27.9444 0.1898
83.9000 27.9511 0.2029
83.9200 27.9578 0.1970
83.9400 27.9644 0.1867
83.9600 27.9710 0.1992
83.9800 27.9776 0.1977
84.0000 27.9843 0.1963
84.0200 27.9911 0.1958
84.0400 27.9977 0.1944
84.0600 28.0044 0.1925
84.0800 28.0111 0.1986
84.1000 28.0178 0.1906
84.1200 28.0244 0.1938
84.1400 28.0310 0.1976
84.1600 28.0376 0.1957
84.1800 28.0443 0.1918
84.2000 28.0510 0.1972
84.2200 28.0577 0.1932
84.2400 28.0644 0.1943
84.2600 28.0711 0.1963
84.2800 28.0778 0.1893
84.3000 28.0844 0.1908
84.3200 28.0910 0.1995
84.3400 28.0976 0.1901
84.3600 28.1043 0.1857
84.3800 28.1110 0.2004
84.4000 28.1178 0.1895
84.4200 28.1245 0.1821
84.4400 28.1312 0.1971
84.4600 28.1378 0.1923
84.4800 28.1444 0.1821
84.5000 28.1510 0.1986
84.5200 28.1577 0.1882
84.5400 28.1644 0.1889
84.5600 28.1711 0.1972
84.5800 28.1778 0.1833
84.6000 28.1844 0.1825
84.6200 28.1911 0.2007
84.6400 28.1978 0.1840
84.6600 28.2044 0.1855
84.6800 28.2110 0.1966
84.7000 28.2176 0.1842
84.7200 28.2243 0.1807
84.7400 28.2310 0.1971
84.7600 28.2377 0.1874
84.7800 28.2444 0.1825
84.8000 28.2511 0.1955
84.8200 28.2578 0.1796
84.8400 28.2644 0.1857
84.8600 28.2710 0.1952
84.8800 28.2776 0.1817
84.9000 28.2843 0.1907
84.9200 28.2910 0.1869
84.9400 28.2977 0.1775
84.9600 28.3044 0.1920
84.9800 28.3111 0.1903
85.0000 28.3177 0.1811
85.0200 28.3244 0.1865
85.0400 28.3310 0.1893
85.0600 28.3376 0.1815
85.0800 28.3443 0.1899
85.1000 28.3510 0.1856
85.1200 28.3577 0.1802
85.1400 28.3644 0.1897
85.1600 28.3711 0.1789
85.1800 28.3778 0.1819
85.2000 28.3844 0.1931
85.2200 28.3911 0.1782
85.2400 28.3977 0.1898
85.2600 28.4043 0.1856
85.2800 28.4110 0.1763
85.3000 28.4177 0.1884
85.3200 28.4244 0.1881
85.3400 28.4311 0.1756
85.3600 28.4378 0.1900
85.3800 28.4445 0.1827
85.4000 28.4510 0.1733
85.4200 28.4576 0.1942
85.4400 28.4643 0.1785
85.4600 28.4710 0.1793
85.4800 28.4777 0.1952
85.5000 28.4844 0.1728
85.5200 28.4911 0.1736
85.5400 28.4977 0.1923
85.5600 28.5044 0.1763
85.5800 28.5110 0.1761
85.6000 28.5176 0.1853
85.6200 28.5243 0.1783
85.6400 28.5310 0.1773
85.6600 28.5377 0.1876
85.6800 28.5444 0.1718
85.7000 28.5510 0.1862
85.7200 28.5577 0.1821
85.7400 28.5644 0.1693
85.7600 28.5711 0.1860
85.7800 28.5777 0.1811
85.8000 28.5843 0.1650
85.8200 28.5910 0.1803
85.8400 28.5977 0.1806
85.8600 28.6044 0.1738
85.8800 28.6111 0.1778
85.9000 28.6178 0.1775
85.9200 28.6245 0.1707
85.9400 28.6310 0.1789
85.9600 28.6376 0.1776
85.9800 28.6443 0.1764
86.0000 28.6510 0.1781
86.0200 28.6577 0.1713
86.0400 28.6644 0.1770
86.0600 28.6711 0.1739
86.0800 28.6778 0.1774
86.1000 28.6844 0.1734
86.1200 28.6911 0.1722
86.1400 28.6977 0.1780
86.1600 28.7043 0.1753
86.1800 28.7110 0.1683
86.2000 28.7177 0.1841
86.2200 28.7244 0.1723
86.2400 28.7311 0.1658
86.2600 28.7378 0.1799
86.2800 28.7444 0.1715
86.3000 28.7510 0.1616
86.3200 28.7576 0.1924
86.3400 28.7643 0.1722
86.3600 28.7710 0.1651
86.3800 28.7777 0.1757
86.4000 28.7844 0.1743
86.4200 28.7910 0.1728
86.4400 28.7977 0.1754
86.4600 28.8044 0.1653
86.4800 28.8110 0.1681
86.5000 28.8176 0.1801
86.5200 28.8243 0.1741
86.5400 28.8310 0.1668
86.5600 28.8377 0.1680
86.5800 28.8444 0.1749
86.6000 28.8511 0.1636
86.6200 28.8578 0.1709
86.6400 28.8645 0.1816
86.6600 28.8711 0.1609
86.6800 28.8777 0.1601
86.7000 28.8844 0.1868
86.7200 28.8910 0.1651
86.7400 28.8978 0.1604
86.7600 28.9044 0.1847
86.7800 28.9111 0.1543
86.8000 28.9178 0.1617
86.8200 28.9245 0.1891
86.8400 28.9311 0.1563
86.8600 28.9376 0.1610
86.8800 28.9443 0.1869
86.9000 28.9510 0.1596
86.9200 28.9577 0.1613
86.9400 28.9644 0.1813
86.9600 28.9711 0.1570
86.9800 28.9777 0.1670
87.0000 28.9844 0.1781
87.0200 28.9910 0.1573
87.0400 28.9976 0.1683
87.0600 29.0043 0.1734
87.0800 29.0110 0.1561
87.1000 29.0177 0.1664
87.1200 29.0244 0.1779
87.1400 29.0311 0.1543
87.1600 29.0377 0.1653
87.1800 29.0444 0.1754
87.2000 29.0511 0.1591
87.2200 29.0577 0.1617
87.2400 29.0644 0.1725
87.2600 29.0711 0.1520
87.2800 29.0777 0.1658
87.3000 29.0844 0.1748
87.3200 29.0911 0.1557
87.3400 29.0978 0.1607
87.3600 29.1045 0.1681
87.3800 29.1111 0.1516
87.4000 29.1177 0.1647
87.4200 29.1243 0.1771
87.4400 29.1310 0.1537
87.4600 29.1377 0.1533
87.4800 29.1444 0.1723
87.5000 29.1511 0.1546
87.5200 29.1578 0.1643
87.5400 29.1644 0.1678
87.5600 29.1710 0.1494
87.5800 29.1777 0.1640
87.6000 29.1843 0.1684
87.6200 29.1910 0.1522
87.6400 29.1977 0.1576
87.6600 29.2044 0.1656
87.6800 29.2110 0.1476
87.7000 29.2177 0.1665
87.7200 29.2244 0.1659
87.7400 29.2311 0.1482
87.7600 29.2377 0.1579
87.7800 29.2443 0.1675
87.8000 29.2510 0.1513
87.8200 29.2577 0.1602
87.8400 29.2644 0.1632
87.8600 29.2710 0.1505
87.8800 29.2777 0.1608
87.9000 29.2844 0.1653
87.9200 29.2911 0.1491
87.9400 29.2977 0.1630
87.9600 29.3043 0.1632
87.9800 29.3110 0.1493
88.0000 29.3177 0.1563
88.0200 29.3244 0.1660
88.0400 29.3311 0.1509
88.0600 29.3378 0.1527
88.0800 29.3444 0.1646
88.1000 29.3511 0.1507
88.1200 29.3577 0.1571
88.1400 29.3643 0.1640
88.1600 29.3710 0.1473
88.1800 29.3777 0.1547
88.2000 29.3844 0.1609
88.2200 29.3911 0.1478
88.2400 29.3978 0.1550
88.2600 29.4045 0.1599
88.2800 29.4111 0.1498
88.3000 29.4177 0.1486
88.3200 29.4243 0.1616
88.3400 29.4310 0.1520
88.3600 29.4377 0.1508
88.3800 29.4444 0.1565
88.4000 29.4511 0.1510
88.4200 29.4578 0.1508
88.4400 29.4644 0.1588
88.4600 29.4710 0.1462
88.4800 29.4776 0.1530
88.5000 29.4842 0.1551
88.5200 29.4909 0.1506
88.5400 29.4977 0.1465
88.5600 29.5044 0.1559
88.5800 29.5111 0.1496
88.6000 29.5177 0.1462
88.6200 29.5244 0.1569
88.6400 29.5311 0.1493
88.6600 29.5377 0.1459
88.6800 29.5443 0.1574
88.7000 29.5510 0.1537
88.7200 29.5577 0.1490
88.7400 29.5644 0.1562
88.7600 29.5711 0.1474
88.7800 29.5778 0.1475
88.8000 29.5845 0.1573
88.8200 29.5911 0.1469
88.8400 29.5977 0.1433
88.8600 29.6043 0.1598
88.8800 29.6110 0.1468
88.9000 29.6177 0.1466
88.9200 29.6244 0.1562
88.9400 29.6311 0.1494
88.9600 29.6378 0.1451
88.9800 29.6444 0.1567
89.0000 29.6510 0.1503
89.0200 29.6576 0.1446
89.0400 29.6643 0.1556
89.0600 29.6710 0.1555
89.0800 29.6777 0.1433
89.1000 29.6844 0.1536
89.1200 29.6911 0.1530
89.1400 29.6978 0.1455
89.1600 29.7044 0.1474
89.1800 29.7111 0.1484
89.2000 29.7177 0.1498
89.2200 29.7243 0.1488
89.2400 29.7310 0.1508
89.2600 29.7377 0.1425
89.2800 29.7444 0.1483
89.3000 29.7510 0.1462
89.3200 29.7577 0.1478
89.3400 29.7644 0.1513
89.3600 29.7711 0.1483
89.3800 29.7777 0.1387
89.4000 29.7843 0.1503
89.4200 29.7910 0.1461
89.4400 29.7977 0.1474
89.4600 29.8044 0.1443
89.4800 29.8111 0.1440
89.5000 29.8178 0.1424
89.5200 29.8245 0.1446
89.5400 29.8311 0.1392
89.5600 29.8377 0.1463
89.5800 29.8443 0.1443
89.6000 29.8510 0.1406
89.6200 29.8577 0.1449
89.6400 29.8644 0.1342
89.6600 29.8711 0.1436
89.6800 29.8778 0.1444
89.7000 29.8845 0.1350
89.7200 29.8911 0.1387
89.7400 29.8977 0.1470
89.7600 29.9043 0.1295
89.7800 29.9110 0.1411
89.8000 29.9177 0.1461
89.8200 29.9244 0.1289
89.8400 29.9311 0.1369
89.8600 29.9377 0.1495
89.8800 29.9444 0.1304
89.9000 29.9511 0.1393
89.9200 29.9577 0.1419
89.9400 29.9643 0.1312
89.9600 29.9710 0.1379
89.9800 29.9777 0.1467
90.0000 29.9844 0.1263
90.0200 29.9910 0.1400
90.0400 29.9977 0.1476
90.0600 30.0044 0.1235
90.0800 30.0111 0.1376
90.1000 30.0177 0.1462
90.1200 30.0243 0.1210
90.1400 30.0310 0.1373
90.1600 30.0377 0.1408
90.1800 30.0445 0.1234
90.2000 30.0511 0.1395
90.2200 30.0578 0.1428
90.2400 30.0645 0.1184
90.2600 30.0711 0.1391
90.2800 30.0777 0.1420
90.3000 30.0843 0.1183
90.3200 30.0910 0.1416
90.3400 30.0977 0.1394
90.3600 30.1044 0.1214
90.3800 30.1111 0.1330
90.4000 30.1178 0.1345
90.4200 30.1244 0.1249
90.4400 30.1311 0.1384
90.4600 30.1377 0.1315
90.4800 30.1443 0.1216
90.5000 30.1509 0.1410
90.5200 30.1576 0.1356
90.5400 30.1644 0.1188
90.5600 30.1710 0.1437
90.5800 30.1777 0.1288
90.6000 30.1844 0.1169
90.6200 30.1911 0.1395
90.6400 30.1977 0.1286
90.6600 30.2043 0.1243
90.6800 30.2109 0.1413
90.7000 30.2176 0.1276
90.7200 30.2244 0.1207
90.7400 30.2310 0.1393
90.7600 30.2377 0.1269
90.7800 30.2444 0.1188
90.8000 30.2510 0.1351
90.8200 30.2577 0.1280
90.8400 30.2643 0.1206
90.8600 30.2710 0.1373
90.8800 30.2777 0.1273
90.9000 30.2844 0.1223
90.9200 30.2911 0.1330
90.9400 30.2978 0.1271
90.9600 30.3045 0.1193
90.9800 30.3111 0.1358
91.0000 30.3177 0.1233
91.0200 30.3243 0.1184
91.0400 30.3310 0.1335
91.0600 30.3377 0.1310
91.0800 30.3444 0.1216
91.1000 30.3511 0.1269
91.1200 30.3578 0.1254
91.1400 30.3645 0.1228
91.1600 30.3711 0.1303
91.1800 30.3777 0.1202
91.2000 30.3843 0.1181
91.2200 30.3910 0.1363
91.2400 30.3977 0.1227
91.2600 30.4044 0.1112
91.2800 30.4110 0.1385
91.3000 30.4177 0.1225
91.3200 30.4244 0.1131
91.3400 30.4311 0.1275
91.3600 30.4377 0.1195
91.3800 30.4443 0.1181
91.4000 30.4509 0.1313
91.4200 30.4576 0.1102
91.4400 30.4644 0.1198
91.4600 30.4710 0.1366
91.4800 30.4777 0.1110
91.5000 30.4844 0.1080
91.5200 30.4911 0.1400
91.5400 30.4977 0.1127
91.5600 30.5043 0.1066
91.5800 30.5110 0.1345
91.6000 30.5177 0.1184
91.6200 30.5244 0.1104
91.6400 30.5311 0.1265
91.6600 30.5378 0.1175
91.6800 30.5445 0.1138
91.7000 30.5511 0.1308
91.7200 30.5577 0.1087
91.7400 30.5643 0.1094
91.7600 30.5710 0.1364
91.7800 30.5777 0.1134
91.8000 30.5844 0.1067
91.8200 30.5911 0.1310
91.8400 30.5978 0.1105
91.8600 30.6044 0.1109
91.8800 30.6111 0.1202
91.9000 30.6178 0.1143
91.9200 30.6244 0.1143
91.9400 30.6310 0.1237
91.9600 30.6377 0.1098
91.9800 30.6444 0.1107
92.0000 30.6511 0.1220
92.0200 30.6577 0.1155
92.0400 30.6644 0.1039
92.0600 30.6711 0.1180
92.0800 30.6777 0.1160
92.1000 30.6843 0.1105
92.1200 30.6909 0.1148
92.1400 30.6976 0.1147
92.1600 30.7044 0.1064
92.1800 30.7111 0.1163
92.2000 30.7177 0.1144
92.2200 30.7244 0.1029
92.2400 30.7311 0.1178
92.2600 30.7377 0.1184
92.2800 30.7443 0.1046
92.3000 30.7510 0.1152
92.3200 30.7577 0.1172
92.3400 30.7644 0.1005
92.3600 30.7711 0.1134
92.3800 30.7777 0.1173
92.4000 30.7844 0.1045
92.4200 30.7911 0.1137
92.4400 30.7978 0.1144
92.4600 30.8044 0.1003
92.4800 30.8110 0.1191
92.5000 30.8177 0.1079
92.5200 30.8244 0.1038
92.5400 30.8311 0.1158
92.5600 30.8378 0.1085
92.5800 30.8445 0.1052
92.6000 30.8512 0.1135
92.6200 30.8578 0.1080
92.6400 30.8643 0.1103
92.6600 30.8710 0.1138
92.6800 30.8777 0.1076
92.7000 30.8844 0.1085
92.7200 30.8911 0.1105
92.7400 30.8978 0.1085
92.7600 30.9044 0.1115
92.7800 30.9111 0.1037
92.8000 30.9177 0.1044
92.8200 30.9243 0.1174
92.8400 30.9310 0.1075
92.8600 30.9376 0.1126
92.8800 30.9443 0.1118
92.9000 30.9510 0.1021
92.9200 30.9577 0.1090
92.9400 30.9644 0.1170
92.9600 30.9711 0.1030
92.9800 30.9777 0.1109
93.0000 30.9843 0.1068
93.0200 30.9910 0.1009
93.0400 30.9977 0.1128
93.0600 31.0044 0.1117
93.0800 31.0111 0.0964
93.1000 31.0178 0.1122
93.1200 31.0245 0.1109
93.1400 31.0311 0.1034
93.1600 31.0377 0.1090
93.1800 31.0443 0.1108
93.2000 31.0510 0.1047
93.2200 31.0577 0.1047
93.2400 31.0644 0.1091
93.2600 31.0711 0.1014
93.2800 31.0778 0.1075
93.3000 31.0844 0.1091
93.3200 31.0911 0.1045
93.3400 31.0977 0.1037
93.3600 31.1044 0.1083
93.3800 31.1110 0.1099
93.4000 31.1177 0.1057
93.4200 31.1243 0.1022
93.4400 31.1310 0.1081
93.4600 31.1377 0.1065
93.4800 31.1444 0.1090
93.5000 31.1511 0.1007
93.5200 31.1577 0.1090
93.5400 31.1643 0.1062
93.5600 31.1709 0.1061
93.5800 31.1776 0.1066
93.6000 31.1843 0.1086
93.6200 31.1910 0.0985
93.6400 31.1977 0.1028
93.6600 31.2044 0.1098
93.6800 31.2111 0.1072
93.7000 31.2177 0.0958
93.7200 31.2244 0.1032
93.7400 31.2310 0.1044
93.7600 31.2377 0.1061
93.7800 31.2444 0.1073
93.8000 31.2511 0.0999
93.8200 31.2577 0.1010
93.8400 31.2644 0.1041
93.8600 31.2711 0.1058
93.8800 31.2778 0.0974
93.9000 31.2844 0.1041
93.9200 31.2910 0.1049
93.9400 31.2977 0.0960
93.9600 31.3044 0.1019
93.9800 31.3111 0.1054
94.0000 31.3177 0.1012
94.0200 31.3244 0.1029
94.0400 31.3311 0.0957
94.0600 31.3378 0.0982
94.0800 31.3444 0.1036
94.1000 31.3510 0.1019
94.1200 31.3576 0.0926
94.1400 31.3644 0.1061
94.1600 31.3711 0.1004
94.1800 31.3777 0.0935
94.2000 31.3844 0.1082
94.2200 31.3911 0.0999
94.2400 31.3977 0.0899
94.2600 31.4043 0.1061
94.2800 31.4109 0.1021
94.3000 31.4176 0.0941
94.3200 31.4243 0.1053
94.3400 31.4310 0.0988
94.3600 31.4377 0.0887
94.3800 31.4444 0.1016
94.4000 31.4511 0.1021
94.4200 31.4577 0.0877
94.4400 31.4643 0.1014
94.4600 31.4710 0.1019
94.4800 31.4776 0.0922
94.5000 31.4844 0.0990
94.5200 31.4911 0.0949
94.5400 31.4978 0.0917
94.5600 31.5045 0.1061
94.5800 31.5111 0.0884
94.6000 31.5178 0.0889
94.6200 31.5244 0.1041
94.6400 31.5310 0.0891
94.6600 31.5376 0.0917
94.6800 31.5443 0.1029
94.7000 31.5511 0.0861
94.7200 31.5578 0.0955
94.7400 31.5645 0.0948
94.7600 31.5711 0.0859
94.7800 31.5778 0.0994
94.8000 31.5843 0.0918
94.8200 31.5910 0.0867
94.8400 31.5976 0.0970
94.8600 31.6043 0.0924
94.8800 31.6111 0.0838
94.9000 31.6177 0.0970
94.9200 31.6244 0.0903
94.9400 31.6311 0.0915
94.9600 31.6377 0.0905
94.9800 31.6444 0.0844
95.0000 31.6510 0.0928
95.0200 31.6577 0.0944
95.0400 31.6643 0.0857
95.0600 31.6710 0.0937
95.0800 31.6777 0.0837
95.1000 31.6844 0.0908
95.1200 31.6910 0.0950
95.1400 31.6977 0.0838
95.1600 31.7044 0.0857
95.1800 31.7110 0.0987
95.2000 31.7177 0.0855
95.2200 31.7244 0.0849
95.2400 31.7311 0.0954
95.2600 31.7378 0.0874
95.2800 31.7445 0.0841
95.3000 31.7511 0.0928
95.3200 31.7578 0.0816
95.3400 31.7644 0.0872
95.3600 31.7710 0.0943
95.3800 31.7777 0.0776
95.4000 31.7844 0.0882
95.4200 31.7911 0.0933
95.4400 31.7978 0.0811
95.4600 31.8044 0.0825
95.4800 31.8111 0.0938
95.5000 31.8178 0.0856
95.5200 31.8244 0.0829
95.5400 31.8310 0.0864
95.5600 31.8376 0.0906
95.5800 31.8443 0.0823
95.6000 31.8510 0.0843
95.6200 31.8577 0.0864
95.6400 31.8644 0.0850
95.6600 31.8711 0.0856
95.6800 31.8778 0.0833
95.7000 31.8844 0.0779
95.7200 31.8910 0.0901
95.7400 31.8976 0.0832
95.7600 31.9043 0.0779
95.7800 31.9110 0.0856
95.8000 31.9177 0.0830
95.8200 31.9244 0.0794
95.8400 31.9311 0.0809
95.8600 31.9377 0.0823
95.8800 31.9444 0.0826
95.9000 31.9510 0.0825
95.9200 31.9576 0.0783
95.9400 31.9643 0.0862
95.9600 31.9710 0.0811
95.9800 31.9777 0.0782
96.0000 31.9844 0.0856
96.0200 31.9911 0.0774
96.0400 31.9978 0.0807
96.0600 32.0044 0.0860
96.0800 32.0110 0.0737
96.1000 32.0176 0.0837
96.1200 32.0243 0.0850
96.1400 32.0310 0.0723
96.1600 32.0377 0.0796
96.1800 32.0444 0.0855
96.2000 32.0511 0.0702
96.2200 32.0578 0.0844
96.2400 32.0644 0.0791
96.2600 32.0710 0.0681
96.2800 32.0776 0.0878
96.3000 32.0843 0.0779
96.3200 32.0911 0.0701
96.3400 32.0978 0.0841
96.3600 32.1044 0.0747
96.3800 32.1111 0.0758
96.4000 32.1178 0.0815
96.4200 32.1244 0.0717
96.4400 32.1310 0.0786
96.4600 32.1376 0.0826
96.4800 32.1443 0.0720
96.5000 32.1510 0.0747
96.5200 32.1577 0.0859
96.5400 32.1643 0.0655
96.5600 32.1710 0.0805
96.5800 32.1777 0.0818
96.6000 32.1844 0.0659
96.6200 32.1910 0.0767
96.6400 32.1976 0.0822
96.6600 32.2043 0.0667
96.6800 32.2110 0.0809
96.7000 32.2178 0.0775
96.7200 32.2244 0.0697
96.7400 32.2312 0.0775
96.7600 32.2378 0.0762
96.7800 32.2444 0.0688
96.8000 32.2510 0.0786
96.8200 32.2576 0.0803
96.8400 32.2644 0.0694
96.8600 32.2711 0.0738
96.8800 32.2778 0.0777
96.9000 32.2845 0.0688
96.9200 32.2911 0.0740
96.9400 32.2978 0.0817
96.9600 32.3044 0.0658
96.9800 32.3110 0.0742
97.0000 32.3176 0.0755
97.0200 32.3243 0.0727
97.0400 32.3310 0.0760
97.0600 32.3377 0.0781
97.0800 32.3444 0.0662
97.1000 32.3511 0.0707
97.1200 32.3578 0.0743
97.1400 32.3644 0.0744
97.1600 32.3710 0.0717
97.1800 32.3776 0.0749
97.2000 32.3843 0.0690
97.2200 32.3910 0.0676
97.2400 32.3977 0.0777
97.2600 32.4044 0.0701
97.2800 32.4111 0.0657
97.3000 32.4178 0.0740
97.3200 32.4244 0.0660
97.3400 32.4310 0.0698
97.3600 32.4376 0.0727
97.3800 32.4443 0.0674
97.4000 32.4511 0.0674
97.4200 32.4578 0.0704
97.4400 32.4645 0.0647
97.4600 32.4711 0.0699
97.4800 32.4778 0.0775
97.5000 32.4844 0.0627
97.5200 32.4910 0.0666
97.5400 32.4977 0.0726
97.5600 32.5044 0.0649
97.5800 32.5111 0.0653
97.6000 32.5178 0.0747
97.6200 32.5244 0.0631
97.6400 32.5311 0.0674
97.6600 32.5378 0.0719
97.6800 32.5444 0.0617
97.7000 32.5510 0.0668
97.7200 32.5576 0.0751
97.7400 32.5643 0.0658
97.7600 32.5710 0.0679
97.7800 32.5777 0.0695
97.8000 32.5844 0.0670
97.8200 32.5911 0.0641
97.8400 32.5978 0.0633
97.8600 32.6044 0.0683
97.8800 32.6110 0.0611
97.9000 32.6176 0.0675
97.9200 32.6243 0.0688
97.9400 32.6310 0.0603
97.9600 32.6377 0.0631
97.9800 32.6444 0.0725
98.0000 32.6511 0.0623
98.0200 32.6577 0.0626
98.0400 32.6644 0.0664
98.0600 32.6710 0.0566
98.0800 32.6777 0.0680
98.1000 32.6843 0.0678
98.1200 32.6910 0.0532
98.1400 32.6977 0.0726
98.1600 32.7044 0.0619
98.1800 32.7111 0.0573
98.2000 32.7178 0.0683
98.2200 32.7245 0.0640
98.2400 32.7310 0.0565
98.2600 32.7377 0.0672
98.2800 32.7443 0.0604
98.3000 32.7510 0.0599
98.3200 32.7578 0.0664
98.3400 32.7644 0.0584
98.3600 32.7711 0.0581
98.3800 32.7778 0.0627
98.4000 32.7844 0.0589
98.4200 32.7910 0.0599
98.4400 32.7976 0.0668
98.4600 32.8043 0.0551
98.4800 32.8110 0.0591
98.5000 32.8177 0.0607
98.5200 32.8244 0.0569
98.5400 32.8311 0.0568
98.5600 32.8378 0.0620
98.5800 32.8444 0.0556
98.6000 32.8510 0.0552
98.6200 32.8576 0.0638
98.6400 32.8643 0.0582
98.6600 32.8710 0.0525
98.6800 32.8777 0.0615
98.7000 32.8844 0.0555
98.7200 32.8910 0.0552
98.7400 32.8977 0.0614
98.7600 32.9044 0.0572
98.7800 32.9110 0.0517
98.8000 32.9176 0.0636
98.8200 32.9243 0.0564
98.8400 32.9310 0.0549
98.8600 32.9378 0.0569
98.8800 32.9445 0.0574
98.9000 32.9512 0.0542
98.9200 32.9578 0.0552
98.9400 32.9644 0.0548
98.9600 32.9710 0.0516
98.9800 32.9777 0.0588
99.0000 32.9843 0.0561
99.0200 32.9911 0.0521
99.0400 32.9978 0.0564
99.0600 33.0044 0.0559
99.0800 33.0111 0.0510
99.1000 33.0178 0.0573
99.1200 33.0244 0.0496
99.1400 33.0310 0.0515
99.1600 33.0376 0.0576
99.1800 33.0443 0.0540
99.2000 33.0510 0.0472
99.2200 33.0577 0.0601
99.2400 33.0644 0.0523
99.2600 33.0711 0.0479
99.2800 33.0778 0.0588
99.3000 33.0844 0.0520
99.3200 33.0910 0.0425
99.3400 33.0976 0.0599
99.3600 33.1043 0.0521
99.3800 33.1110 0.0468
99.4000 33.1177 0.0590
99.4200 33.1244 0.0488
99.4400 33.1311 0.0442
99.4600 33.1377 0.0606
99.4800 33.1444 0.0477
99.5000 33.1510 0.0440
99.5200 33.1576 0.0651
99.5400 33.1643 0.0447
99.5600 33.1710 0.0499
99.5800 33.1777 0.0570
99.6000 33.1844 0.0444
99.6200 33.1911 0.0472
99.6400 33.1978 0.0538
99.6600 33.2044 0.0415
99.6800 33.2111 0.0458
99.7000 33.2177 0.0504
99.7200 33.2243 0.0443
99.7400 33.2310 0.0499
99.7600 33.2377 0.0521
99.7800 33.2444 0.0415
99.8000 33.2511 0.0489
99.8200 33.2578 0.0485
99.8400 33.2645 0.0463
99.8600 33.2711 0.0451
99.8800 33.2777 0.0492
99.9000 33.2843 0.0508
99.9200 33.2910 0.0447
99.9400 33.2977 0.0466
99.9600 33.3044 0.0457
99.9800 33.3111 0.0464
100.0000 33.3177 0.0475
100.0200 33.3244 0.0503
100.0400 33.3310 0.0378
100.0600 33.3376 0.0513
100.0800 33.3443 0.0528
100.1000 33.3510 0.0391
100.1200 33.3577 0.0468
100.1400 33.3644 0.0510
100.1600 33.3710 0.0352
100.1800 33.3777 0.0496
100.2000 33.3844 0.0493
100.2200 33.3911 0.0355
100.2400 33.3977 0.0498
100.2600 33.4043 0.0512
100.2800 33.4110 0.0329
100.3000 33.4177 0.0534
100.3200 33.4244 0.0453
100.3400 33.4311 0.0342
100.3600 33.4378 0.0479
100.3800 33.4445 0.0433
100.4000 33.4511 0.0379
100.4200 33.4577 0.0485
100.4400 33.4643 0.0420
100.4600 33.4710 0.0376
100.4800 33.4777 0.0494
100.5000 33.4844 0.0339
100.5200 33.4911 0.0390
100.5400 33.4978 0.0467
100.5600 33.5044 0.0387
100.5800 33.5111 0.0381
100.6000 33.5177 0.0414
100.6200 33.5243 0.0396
100.6400 33.5310 0.0422
100.6600 33.5377 0.0361
100.6800 33.5444 0.0405
100.7000 33.5511 0.0427
100.7200 33.5578 0.0415
100.7400 33.5644 0.0350
100.7600 33.5711 0.0395
100.7800 33.5777 0.0377
100.8000 33.5843 0.0416
100.8200 33.5910 0.0395
100.8400 33.5977 0.0358
100.8600 33.6044 0.0403
100.8800 33.6110 0.0362
100.9000 33.6177 0.0328
100.9200 33.6244 0.0412
100.9400 33.6310 0.0395
100.9600 33.6376 0.0378
100.9800 33.6443 0.0372
101.0000 33.6510 0.0388
101.0200 33.6577 0.0370
101.0400 33.6644 0.0357
101.0600 33.6711 0.0394
101.0800 33.6778 0.0305
101.1000 33.6845 0.0440
101.1200 33.6911 0.0340
101.1400 33.6977 0.0289
101.1600 33.7044 0.0397
101.1800 33.7110 0.0370
101.2000 33.7177 0.0300
101.2200 33.7244 0.0431
101.2400 33.7311 0.0347
101.2600 33.7378 0.0281
101.2800 33.7444 0.0415
101.3000 33.7511 0.0365
101.3200 33.7577 0.0331
101.3400 33.7643 0.0408
101.3600 33.7710 0.0329
101.3800 33.7777 0.0313
101.4000 33.7844 0.0404
101.4200 33.7910 0.0330
101.4400 33.7977 0.0346
101.4600 33.8044 0.0362
101.4800 33.8110 0.0335
101.5000 33.8176 0.0359
101.5200 33.8243 0.0376
101.5400 33.8310 0.0328
101.5600 33.8377 0.0360
101.5800 33.8444 0.0391
101.6000 33.8511 0.0346
101.6200 33.8577 0.0331
101.6400 33.8644 0.0383
101.6600 33.8711 0.0305
101.6800 33.8777 0.0355
101.7000 33.8843 0.0331
101.7200 33.8910 0.0370
101.7400 33.8977 0.0324
101.7600 33.9044 0.0323
101.7800 33.9111 0.0341
101.8000 33.9178 0.0337
101.8200 33.9245 0.0349
101.8400 33.9311 0.0313
101.8600 33.9377 0.0295
101.8800 33.9443 0.0382
101.9000 33.9510 0.0327
101.9200 33.9577 0.0295
101.9400 33.9644 0.0329
101.9600 33.9711 0.0323
101.9800 33.9778 0.0310
102.0000 33.9844 0.0263
102.0200 33.9911 0.0336
102.0400 33.9977 0.0319
102.0600 34.0043 0.0343
102.0800 34.0110 0.0229
102.1000 34.0177 0.0304
102.1200 34.0244 0.0330
102.1400 34.0311 0.0290
102.1600 34.0377 0.0288
102.1800 34.0444 0.0325
102.2000 34.0510 0.0280
102.2200 34.0577 0.0275
102.2400 34.0643 0.0291
102.2600 34.0710 0.0308
102.2800 34.0777 0.0234
102.3000 34.0844 0.0313
102.3200 34.0910 0.0282
102.3400 34.0977 0.0285
102.3600 34.1044 0.0299
102.3800 34.1111 0.0257
102.4000 34.1177 0.0266
102.4200 34.1243 0.0297
102.4400 34.1310 0.0284
102.4600 34.1377 0.0229
102.4800 34.1445 0.0253
102.5000 34.1511 0.0279
102.5200 34.1578 0.0238
102.5400 34.1644 0.0256
102.5600 34.1711 0.0262
102.5800 34.1777 0.0212
102.6000 34.1843 0.0279
102.6200 34.1910 0.0286
102.6400 34.1977 0.0188
102.6600 34.2044 0.0241
102.6800 34.2111 0.0289
102.7000 34.2178 0.0153
102.7200 34.2244 0.0282
102.7400 34.2311 0.0301
102.7600 34.2377 0.0152
102.7800 34.2443 0.0229
102.8000 34.2510 0.0325
102.8200 34.2577 0.0123
102.8400 34.2644 0.0276
102.8600 34.2711 0.0237
102.8800 34.2778 0.0158
102.9000 34.2845 0.0272
102.9200 34.2911 0.0288
102.9400 34.2977 0.0130
102.9600 34.3043 0.0265
102.9800 34.3109 0.0256
103.0000 34.3176 0.0122
103.0200 34.3244 0.0292
103.0400 34.3311 0.0210
103.0600 34.3377 0.0160
103.0800 34.3444 0.0219
103.1000 34.3511 0.0214
103.1200 34.3577 0.0192
103.1400 34.3643 0.0225
103.1600 34.3710 0.0204
103.1800 34.3777 0.0205
103.2000 34.3844 0.0200
103.2200 34.3911 0.0213
103.2400 34.3978 0.0171
103.2600 34.4045 0.0232
103.2800 34.4111 0.0125
103.3000 34.4177 0.0172
103.3200 34.4244 0.0253
103.3400 34.4310 0.0223
103.3600 34.4377 0.0132
103.3800 34.4444 0.0180
103.4000 34.4511 0.0232
103.4200 34.4578 0.0139
103.4400 34.4644 0.0204
103.4600 34.4711 0.0251
103.4800 34.4776 0.0139
103.5000 34.4843 0.0184
103.5200 34.4910 0.0217
103.5400 34.4977 0.0095
103.5600 34.5044 0.0237
103.5800 34.5111 0.0190
103.6000 34.5177 0.0080
103.6200 34.5244 0.0179
103.6400 34.5311 0.0217
103.6600 34.5377 0.0051
103.6800 34.5443 0.0179
103.7000 34.5510 0.0206
103.7200 34.5577 0.0018
103.7400 34.5644 0.0173
103.7600 34.5711 0.0211
103.7800 34.5777 0.0034
103.8000 34.5844 0.0211
103.8200 34.5911 0.0134
103.8400 34.5977 0.0073
103.8600 34.6043 0.0216
103.8800 34.6110 0.0142
103.9000 34.6177 0.0054
103.9200 34.6244 0.0202
103.9400 34.6311 0.0129
103.9600 34.6377 0.0072
103.9800 34.6444 0.0172
104.0000 34.6511 0.0114
104.0200 34.6577 0.0072
104.0400 34.6643 0.0129
104.0600 34.6710 0.0111
104.0800 34.6777 0.0109
104.1000 34.6844 0.0171
104.1200 34.6911 0.0093
104.1400 34.6978 0.0107
104.1600 34.7044 0.0109
104.1800 34.7111 0.0126
104.2000 34.7177 0.0133
104.2200 34.7243 0.0087
104.2400 34.7310 0.0094
104.2600 34.7377 0.0156
104.2800 34.7444 0.0045
104.3000 34.7510 0.0155
104.3200 34.7577 0.0108
104.3400 34.7644 0.0082
104.3600 34.7711 0.0102
104.3800 34.7777 0.0123
104.4000 34.7843 0.0089
104.4200 34.7910 0.0186
104.4400 34.7976 0.0112
104.4600 34.8044 0.0026
104.4800 34.8110 0.0155
104.5000 34.8177 0.0107
104.5200 34.8244 0.0054
104.5400 34.8311 0.0124
104.5600 34.8377 0.0090
104.5800 34.8443 0.0039
104.6000 34.8510 0.0148
104.6200 34.8577 0.0091
104.6400 34.8644 0.0070
104.6600 34.8711 0.0106
104.6800 34.8778 0.0076
104.7000 34.8845 0.0050
104.7200 34.8911 0.0103
104.7400 34.8977 0.0057
104.7600 34.9043 0.0070
104.7800 34.9110 0.0042
104.8000 34.9177 0.0041
104.8200 34.9244 0.0066
104.8400 34.9311 0.0054
104.8600 34.9378 0.0072
104.8800 34.9445 0.0075
104.9000 34.9511 0.0033
104.9200 34.9577 0.0013
104.9400 34.9643 0.0066
104.9600 34.9709 0.0087
104.9800 34.9776 0.0043
105.0000 34.9844 0.0010
105.0200 34.9911 0.0023
105.0400 34.9978 0.0042
105.0600 35.0045 0.0037
105.0800 35.0111 -0.0024
105.1000 35.0177 0.0065
105.1200 35.0243 0.0035
105.1400 35.0309 -0.0033
105.1600 35.0376 0.0065
105.1800 35.0443 0.0072
105.2000 35.0510 -0.0060
105.2200 35.0577 0.0084
105.2400 35.0644 0.0004
105.2600 35.0711 -0.0023
105.2800 35.0777 0.0114
105.3000 35.0843 -0.0025
105.3200 35.0910 -0.0048
105.3400 35.0977 0.0105
105.3600 35.1044 -0.0055
105.3800 35.1111 -0.0027
105.4000 35.1178 0.0036
105.4200 35.1245 -0.0019
105.4400 35.1311 0.0012
105.4600 35.1378 0.0004
105.4800 35.1443 -0.0060
105.5000 35.1510 0.0034
105.5200 35.1577 0.0039
105.5400 35.1644 -0.0090
105.5600 35.1711 0.0041
105.5800 35.1778 0.0024
105.6000 35.1844 -0.0054
105.6200 35.1911 -0.0006
105.6400 35.1977 0.0008
105.6600 35.2043 -0.0039
105.6800 35.2109 0.0047
105.7000 35.2176 0.0004
105.7200 35.2244 -0.0029
105.7400 35.2310 -0.0047
105.7600 35.2377 0.0048
105.7800 35.2444 -0.0074
105.8000 35.2511 -0.0049
105.8200 35.2577 0.0048
105.8400 35.2643 -0.0042
105.8600 35.2709 -0.0091
105.8800 35.2776 0.0025
105.9000 35.2844 -0.0022
105.9200 35.2911 -0.0057
105.9400 35.2977 0.0039
105.9600 35.3044 -0.0081
105.9800 35.3111 -0.0105
106.0000 35.3178 0.0056
106.0200 35.3244 -0.0093
106.0400 35.3310 -0.0099
106.0600 35.3377 0.0117
106.0800 35.3444 -0.0136
106.1000 35.3511 -0.0108
106.1200 35.3578 0.0108
106.1400 35.3645 -0.0121
106.1600 35.3711 -0.0093
106.1800 35.3777 0.0076
106.2000 35.3843 -0.0130
106.2200 35.3910 -0.0052
106.2400 35.3977 0.0065
106.2600 35.4044 -0.0128
106.2800 35.4111 -0.0089
106.3000 35.4177 0.0043
106.3200 35.4244 -0.0160
106.3400 35.4311 -0.0053
106.3600 35.4378 0.0018
106.3800 35.4444 -0.0099
106.4000 35.4510 -0.0074
106.4200 35.4577 -0.0002
106.4400 35.4643 -0.0107
106.4600 35.4710 -0.0078
106.4800 35.4777 -0.0024
106.5000 35.4844 -0.0097
106.5200 35.4911 -0.0094
106.5400 35.4978 -0.0046
106.5600 35.5043 -0.0104
106.5800 35.5109 -0.0097
106.6000 35.5176 -0.0006
106.6200 35.5243 -0.0110
106.6400 35.5310 -0.0096
106.6600 35.5377 -0.0014
106.6800 35.5444 -0.0097
106.7000 35.5511 -0.0150
106.7200 35.5577 -0.0057
106.7400 35.5643 -0.0142
106.7600 35.5710 -0.0117
106.7800 35.5777 -0.0023
106.8000 35.5844 -0.0162
106.8200 35.5911 -0.0146
106.8400 35.5978 -0.0023
106.8600 35.6044 -0.0180
106.8800 35.6111 -0.0154
106.9000 35.6178 -0.0030
106.9200 35.6244 -0.0177
106.9400 35.6310 -0.0136
106.9600 35.6377 -0.0055
106.9800 35.6443 -0.0193
107.0000 35.6511 -0.0137
107.0200 35.6578 -0.0015
107.0400 35.6645 -0.0206
107.0600 35.6712 -0.0140
107.0800 35.6778 -0.0079
107.1000 35.6844 -0.0202
107.1200 35.6910 -0.0124
107.1400 35.6976 -0.0051
107.1600 35.7044 -0.0196
107.1800 35.7111 -0.0107
107.2000 35.7178 -0.0123
107.2200 35.7244 -0.0197
107.2400 35.7311 -0.0153
107.2600 35.7377 -0.0094
107.2800 35.7443 -0.0230
107.3000 35.7510 -0.0137
107.3200 35.7576 -0.0163
107.3400 35.7643 -0.0199
107.3600 35.7710 -0.0176
107.3800 35.7777 -0.0128
107.4000 35.7844 -0.0177
107.4200 35.7911 -0.0157
107.4400 35.7977 -0.0172
107.4600 35.8044 -0.0207
107.4800 35.8110 -0.0168
107.5000 35.8177 -0.0159
107.5200 35.8244 -0.0207
107.5400 35.8311 -0.0183
107.5600 35.8378 -0.0162
107.5800 35.8444 -0.0156
107.6000 35.8511 -0.0192
107.6200 35.8578 -0.0226
107.6400 35.8644 -0.0177
107.6600 35.8710 -0.0218
107.6800 35.8777 -0.0145
107.7000 35.8844 -0.0201
107.7200 35.8911 -0.0232
107.7400 35.8978 -0.0169
107.7600 35.9044 -0.0178
107.7800 35.9111 -0.0304
107.8000 35.9177 -0.0110
107.8200 35.9244 -0.0208
107.8400 35.9310 -0.0263
107.8600 35.9376 -0.0130
107.8800 35.9443 -0.0219
107.9000 35.9510 -0.0276
107.9200 35.9577 -0.0149
107.9400 35.9644 -0.0281
107.9600 35.9711 -0.0262
107.9800 35.9778 -0.0140
108.0000 35.9844 -0.0271
108.0200 35.9909 -0.0261
108.0400 35.9976 -0.0160
108.0600 36.0043 -0.0252
108.0800 36.0110 -0.0235
108.1000 36.0177 -0.0222
108.1200 36.0244 -0.0308
108.1400 36.0311 -0.0201
108.1600 36.0378 -0.0280
108.1800 36.0444 -0.0232
108.2000 36.0510 -0.0241
108.2200 36.0576 -0.0283
108.2400 36.0644 -0.0263
108.2600 36.0711 -0.0233
108.2800 36.0778 -0.0308
108.3000 36.0844 -0.0216
108.3200 36.0911 -0.0267
108.3400 36.0978 -0.0336
108.3600 36.1044 -0.0218
108.3800 36.1110 -0.0261
108.4000 36.1177 -0.0349
108.4200 36.1244 -0.0156
108.4400 36.1311 -0.0294
108.4600 36.1378 -0.0333
108.4800 36.1445 -0.0203
108.5000 36.1511 -0.0324
108.5200 36.1578 -0.0346
108.5400 36.1644 -0.0208
108.5600 36.1710 -0.0297
108.5800 36.1776 -0.0329
108.6000 36.1843 -0.0188
108.6200 36.1910 -0.0366
108.6400 36.1978 -0.0342
108.6600 36.2045 -0.0224
108.6800 36.2111 -0.0358
108.7000 36.2177 -0.0320
108.7200 36.2243 -0.0195
108.7400 36.2309 -0.0373
108.7600 36.2376 -0.0246
108.7800 36.2443 -0.0270
108.8000 36.2510 -0.0386
108.8200 36.2577 -0.0232
108.8400 36.2644 -0.0254
108.8600 36.2711 -0.0400
108.8800 36.2777 -0.0241
108.9000 36.2844 -0.0310
108.9200 36.2910 -0.0378
108.9400 36.2977 -0.0259
108.9600 36.3044 -0.0301
108.9800 36.3111 -0.0374
109.0000 36.3178 -0.0246
109.0200 36.3245 -0.0316
109.0400 36.3312 -0.0362
109.0600 36.3378 -0.0280
109.0800 36.3444 -0.0322
109.1000 36.3510 -0.0383
109.1200 36.3576 -0.0347
109.1400 36.3643 -0.0240
109.1600 36.3711 -0.0308
109.1800 36.3778 -0.0346
109.2000 36.3844 -0.0284
109.2200 36.3911 -0.0319
109.2400 36.3978 -0.0381
109.2600 36.4044 -0.0268
109.2800 36.4110 -0.0310
109.3000 36.4176 -0.0358
109.3200 36.4243 -0.0270
109.3400 36.4310 -0.0339
109.3600 36.4377 -0.0393
109.3800 36.4444 -0.0236
109.4000 36.4511 -0.0330
109.4200 36.4577 -0.0416
109.4400 36.4644 -0.0325
109.4600 36.4710 -0.0298
109.4800 36.4776 -0.0410
109.5000 36.4843 -0.0281
109.5200 36.4910 -0.0313
109.5400 36.4977 -0.0423
109.5600 36.5044 -0.0330
109.5800 36.5110 -0.0313
109.6000 36.5177 -0.0397
109.6200 36.5244 -0.0343
109.6400 36.5310 -0.0314
109.6600 36.5376 -0.0431
109.6800 36.5443 -0.0290
109.7000 36.5511 -0.0347
109.7200 36.5578 -0.0406
109.7400 36.5644 -0.0315
109.7600 36.5711 -0.0379
109.7800 36.5778 -0.0421
109.8000 36.5844 -0.0335
109.8200 36.5910 -0.0317
109.8400 36.5977 -0.0361
109.8600 36.6044 -0.0376
109.8800 36.6111 -0.0354
109.9000 36.6178 -0.0433
109.9200 36.6244 -0.0353
109.9400 36.6311 -0.0370
109.9600 36.6378 -0.0433
109.9800 36.6444 -0.0360
110.0000 36.6510 -0.0383
110.0200 36.6576 -0.0449
110.0400 36.6643 -0.0373
110.0600 36.6710 -0.0378
110.0800 36.6777 -0.0449
110.1000 36.6844 -0.0356
110.1200 36.6911 -0.0381
110.1400 36.6977 -0.0433
110.1600 36.7043 -0.0399
110.1800 36.7109 -0.0329
110.2000 36.7176 -0.0451
110.2200 36.7243 -0.0418
110.2400 36.7310 -0.0359
110.2600 36.7377 -0.0458
110.2800 36.7444 -0.0477
110.3000 36.7510 -0.0360
110.3200 36.7577 -0.0455
110.3400 36.7644 -0.0438
110.3600 36.7710 -0.0400
110.3800 36.7777 -0.0410
110.4000 36.7844 -0.0443
110.4200 36.7911 -0.0373
110.4400 36.7978 -0.0482
110.4600 36.8044 -0.0504
110.4800 36.8111 -0.0396
110.5000 36.8178 -0.0491
110.5200 36.8244 -0.0441
110.5400 36.8310 -0.0409
110.5600 36.8377 -0.0546
110.5800 36.8443 -0.0447
110.6000 36.8510 -0.0345
110.6200 36.8577 -0.0615
110.6400 36.8644 -0.0417
110.6600 36.8711 -0.0324
110.6800 36.8778 -0.0652
110.7000 36.8844 -0.0455
110.7200 36.8910 -0.0293
110.7400 36.8976 -0.0601
110.7600 36.9043 -0.0497
110.7800 36.9111 -0.0389
110.8000 36.9178 -0.0576
110.8200 36.9244 -0.0486
110.8400 36.9311 -0.0380
110.8600 36.9378 -0.0608
110.8800 36.9444 -0.0416
110.9000 36.9510 -0.0504
110.9200 36.9576 -0.0547
110.9400 36.9643 -0.0378
110.9600 36.9710 -0.0551
110.9800 36.9777 -0.0532
111.0000 36.9843 -0.0445
111.0200 36.9910 -0.0544
111.0400 36.9977 -0.0499
111.0600 37.0044 -0.0472
111.0800 37.0110 -0.0539
111.1000 37.0176 -0.0541
111.1200 37.0243 -0.0404
111.1400 37.0310 -0.0581
111.1600 37.0378 -0.0563
111.1800 37.0445 -0.0439
111.2000 37.0512 -0.0555
111.2200 37.0578 -0.0543
111.2400 37.0645 -0.0554
111.2600 37.0711 -0.0501
111.2800 37.0777 -0.0561
111.3000 37.0844 -0.0559
111.3200 37.0911 -0.0509
111.3400 37.0978 -0.0574
111.3600 37.1045 -0.0538
111.3800 37.1111 -0.0497
111.4000 37.1178 -0.0658
111.4200 37.1244 -0.0511
111.4400 37.1310 -0.0504
111.4600 37.1376 -0.0617
111.4800 37.1443 -0.0564
111.5000 37.1510 -0.0494
111.5200 37.1577 -0.0598
111.5400 37.1644 -0.0563
111.5600 37.1711 -0.0545
111.5800 37.1778 -0.0630
111.6000 37.1844 -0.0500
111.6200 37.1910 -0.0596
111.6400 37.1976 -0.0649
111.6600 37.2042 -0.0518
111.6800 37.2110 -0.0538
111.7000 37.2177 -0.0656
111.7200 37.2244 -0.0561
111.7400 37.2311 -0.0496
111.7600 37.2377 -0.0651
111.7800 37.2444 -0.0637
111.8000 37.2510 -0.0528
111.8200 37.2576 -0.0659
111.8400 37.2643 -0.0564
111.8600 37.2711 -0.0615
111.8800 37.2778 -0.0667
111.9000 37.2844 -0.0584
111.9200 37.2911 -0.0575
111.9400 37.2978 -0.0666
111.9600 37.3044 -0.0648
111.9800 37.3110 -0.0564
112.0000 37.3177 -0.0628
112.0200 37.3244 -0.0613
112.0400 37.3311 -0.0568
112.0600 37.3378 -0.0649
112.0800 37.3444 -0.0643
112.1000 37.3511 -0.0583
112.1200 37.3578 -0.0620
112.1400 37.3645 -0.0636
112.1600 37.3710 -0.0626
112.1800 37.3776 -0.0620
112.2000 37.3843 -0.0674
112.2200 37.3910 -0.0614
112.2400 37.3977 -0.0649
112.2600 37.4044 -0.0641
112.2800 37.4111 -0.0652
112.3000 37.4178 -0.0607
112.3200 37.4244 -0.0652
112.3400 37.4310 -0.0660
112.3600 37.4376 -0.0586
112.3800 37.4443 -0.0628
112.4000 37.4510 -0.0669
112.4200 37.4577 -0.0624
112.4400 37.4644 -0.0694
112.4600 37.4710 -0.0594
112.4800 37.4777 -0.0641
112.5000 37.4844 -0.0680
112.5200 37.4910 -0.0642
112.5400 37.4977 -0.0663
112.5600 37.5043 -0.0677
112.5800 37.5110 -0.0670
112.6000 37.5177 -0.0656
112.6200 37.5244 -0.0658
112.6400 37.5311 -0.0628
112.6600 37.5378 -0.0653
112.6800 37.5445 -0.0680
112.7000 37.5511 -0.0700
112.7200 37.5576 -0.0625
112.7400 37.5643 -0.0645
112.7600 37.5710 -0.0693
112.7800 37.5777 -0.0653
112.8000 37.5844 -0.0640
112.8200 37.5911 -0.0763
112.8400 37.5978 -0.0624
112.8600 37.6044 -0.0685
112.8800 37.6110 -0.0753
112.9000 37.6177 -0.0607
112.9200 37.6243 -0.0687
112.9400 37.6311 -0.0795
112.9600 37.6377 -0.0577
112.9800 37.6444 -0.0758
113.0000 37.6511 -0.0739
113.0200 37.6577 -0.0584
113.0400 37.6644 -0.0747
113.0600 37.6710 -0.0754
113.0800 37.6776 -0.0599
113.1000 37.6842 -0.0776
113.1200 37.6909 -0.0711
113.1400 37.6977 -0.0613
113.1600 37.7044 -0.0828
113.1800 37.7111 -0.0695
113.2000 37.7177 -0.0669
113.2200 37.7244 -0.0790
113.2400 37.7310 -0.0679
113.2600 37.7376 -0.0680
113.2800 37.7443 -0.0794
113.3000 37.7510 -0.0649
113.3200 37.7578 -0.0691
113.3400 37.7645 -0.0792
113.3600 37.7711 -0.0715
113.3800 37.7778 -0.0685
113.4000 37.7845 -0.0793
113.4200 37.7911 -0.0696
113.4400 37.7977 -0.0723
113.4600 37.8044 -0.0756
113.4800 37.8110 -0.0733
113.5000 37.8177 -0.0701
113.5200 37.8244 -0.0770
113.5400 37.8311 -0.0783
113.5600 37.8378 -0.0714
113.5800 37.8444 -0.0771
113.6000 37.8510 -0.0811
113.6200 37.8576 -0.0713
113.6400 37.8643 -0.0743
113.6600 37.8710 -0.0866
113.6800 37.8777 -0.0746
113.7000 37.8844 -0.0757
113.7200 37.8911 -0.0830
113.7400 37.8978 -0.0740
113.7600 37.9044 -0.0781
113.7800 37.9110 -0.0920
113.8000 37.9176 -0.0671
113.8200 37.9243 -0.0743
113.8400 37.9310 -0.0899
113.8600 37.9377 -0.0728
113.8800 37.9444 -0.0757
113.9000 37.9511 -0.0928
113.9200 37.9577 -0.0725
113.9400 37.9644 -0.0767
113.9600 37.9711 -0.0906
113.9800 37.9777 -0.0699
114.0000 37.9843 -0.0749
114.0200 37.9910 -0.0922
114.0400 37.9977 -0.0724
114.0600 38.0044 -0.0806
114.0800 38.0111 -0.0924
114.1000 38.0178 -0.0741
114.1200 38.0245 -0.0833
114.1400 38.0311 -0.0864
114.1600 38.0377 -0.0719
114.1800 38.0443 -0.0866
114.2000 38.0510 -0.0864
114.2200 38.0577 -0.0708
114.2400 38.0644 -0.0955
114.2600 38.0711 -0.0829
114.2800 38.0778 -0.0719
114.3000 38.0845 -0.0964
114.3200 38.0911 -0.0823
114.3400 38.0977 -0.0727
114.3600 38.1043 -0.1008
114.3800 38.1110 -0.0752
114.4000 38.1177 -0.0769
114.4200 38.1244 -0.0985
114.4400 38.1310 -0.0819
114.4600 38.1377 -0.0776
114.4800 38.1444 -0.0988
114.5000 38.1510 -0.0838
114.5200 38.1577 -0.0824
114.5400 38.1643 -0.0931
114.5600 38.1710 -0.0862
114.5800 38.1777 -0.0842
114.6000 38.1844 -0.0875
114.6200 38.1910 -0.0837
114.6400 38.1977 -0.0891
114.6600 38.2044 -0.0885
114.6800 38.2111 -0.0905
114.7000 38.2177 -0.0862
114.7200 38.2243 -0.0820
114.7400 38.2310 -0.0942
114.7600 38.2377 -0.0911
114.7800 38.2444 -0.0890
114.8000 38.2511 -0.0829
114.8200 38.2578 -0.0893
114.8400 38.2645 -0.0960
114.8600 38.2711 -0.0872
114.8800 38.2777 -0.0860
114.9000 38.2843 -0.0964
114.9200 38.2910 -0.0855
114.9400 38.2977 -0.0840
114.9600 38.3044 -0.1022
114.9800 38.3111 -0.0845
115.0000 38.3178 -0.0810
115.0200 38.3244 -0.1059
115.0400 38.3311 -0.0811
115.0600 38.3377 -0.0845
115.0800 38.3443 -0.1117
115.1000 38.3510 -0.0797
115.1200 38.3577 -0.0790
115.1400 38.3644 -0.1138
115.1600 38.3711 -0.0872
115.1800 38.3777 -0.0759
115.2000 38.3844 -0.1157
115.2200 38.3911 -0.0926
115.2400 38.3976 -0.0807
115.2600 38.4042 -0.1009
115.2800 38.4109 -0.0919
115.3000 38.4177 -0.0876
115.3200 38.4244 -0.1007
115.3400 38.4310 -0.0959
115.3600 38.4377 -0.0862
115.3800 38.4444 -0.0975
115.4000 38.4510 -0.0980
115.4200 38.4576 -0.0814
115.4400 38.4643 -0.1006
115.4600 38.4710 -0.0979
115.4800 38.4777 -0.0823
115.5000 38.4844 -0.1042
115.5200 38.4911 -0.0993
115.5400 38.4978 -0.0863
115.5600 38.5045 -0.1060
115.5800 38.5111 -0.0898
115.6000 38.5177 -0.0869
115.6200 38.5244 -0.1110
115.6400 38.5310 -0.0877
115.6600 38.5377 -0.0893
115.6800 38.5444 -0.1061
115.7000 38.5511 -0.0905
115.7200 38.5578 -0.0973
115.7400 38.5645 -0.0996
115.7600 38.5711 -0.0880
115.7800 38.5777 -0.1053
115.8000 38.5843 -0.0937
115.8200 38.5910 -0.0877
115.8400 38.5977 -0.1024
115.8600 38.6044 -0.1069
115.8800 38.6111 -0.0843
115.9000 38.6177 -0.1006
115.9200 38.6244 -0.1044
115.9400 38.6310 -0.0992
115.9600 38.6376 -0.0998
115.9800 38.6443 -0.0982
116.0000 38.6510 -0.0972
116.0200 38.6577 -0.1070
116.0400 38.6644 -0.1004
116.0600 38.6711 -0.1014
116.0800 38.6777 -0.1045
116.1000 38.6844 -0.0954
116.1200 38.6911 -0.1067
116.1400 38.6977 -0.1038
116.1600 38.7043 -0.0989
116.1800 38.7110 -0.1083
116.2000 38.7177 -0.1025
116.2200 38.7244 -0.0931
116.2400 38.7311 -0.1123
116.2600 38.7378 -0.1049
116.2800 38.7445 -0.0947
116.3000 38.7511 -0.1142
116.3200 38.7577 -0.1085
116.3400 38.7643 -0.0934
116.3600 38.7710 -0.1115
116.3800 38.7777 -0.1037
116.4000 38.7844 -0.1009
116.4200 38.7911 -0.1082
116.4400 38.7978 -0.1055
116.4600 38.8044 -0.1024
116.4800 38.8111 -0.1070
116.5000 38.8177 -0.1037
116.5200 38.8243 -0.1066
116.5400 38.8310 -0.1044
116.5600 38.8377 -0.1062
116.5800 38.8444 -0.1096
116.6000 38.8511 -0.1037
116.6200 38.8577 -0.1043
116.6400 38.8644 -0.1115
116.6600 38.8711 -0.1027
116.6800 38.8777 -0.1096
116.7000 38.8843 -0.1131
116.7200 38.8910 -0.0951
116.7400 38.8977 -0.1180
116.7600 38.9043 -0.1184
116.7800 38.9110 -0.0910
116.8000 38.9177 -0.1148
116.8200 38.9244 -0.1196
116.8400 38.9311 -0.0977
116.8600 38.9377 -0.1145
116.8800 38.9443 -0.1095
116.9000 38.9510 -0.0992
116.9200 38.9577 -0.1213
116.9400 38.9644 -0.1115
116.9600 38.9711 -0.1027
116.9800 38.9778 -0.1223
117.0000 38.9844 -0.1056
117.0200 38.9911 -0.1081
117.0400 38.9977 -0.1201
117.0600 39.0043 -0.1117
117.0800 39.0110 -0.1105
117.1000 39.0177 -0.1149
117.1200 39.0244 -0.1087
117.1400 39.0311 -0.1107
117.1600 39.0378 -0.1212
117.1800 39.0444 -0.1082
117.2000 39.0511 -0.1094
117.2200 39.0577 -0.1205
117.2400 39.0643 -0.1130
117.2600 39.0710 -0.1107
117.2800 39.0777 -0.1205
117.3000 39.0844 -0.1154
117.3200 39.0910 -0.1083
117.3400 39.0977 -0.1202
117.3600 39.1044 -0.1207
117.3800 39.1111 -0.1086
117.4000 39.1177 -0.1261
117.4200 39.1243 -0.1122
117.4400 39.1309 -0.1110
117.4600 39.1376 -0.1264
117.4800 39.1444 -0.1169
117.5000 39.1511 -0.1118
117.5200 39.1577 -0.1273
117.5400 39.1644 -0.1194
117.5600 39.1711 -0.1131
117.5800 39.1777 -0.1254
117.6000 39.1843 -0.1162
117.6200 39.1910 -0.1164
117.6400 39.1977 -0.1289
117.6600 39.2044 -0.1121
117.6800 39.2111 -0.1226
117.7000 39.2178 -0.1317
117.7200 39.2245 -0.1138
117.7400 39.2312 -0.1223
117.7600 39.2378 -0.1314
117.7800 39.2444 -0.1190
117.8000 39.2510 -0.1124
117.8200 39.2577 -0.1363
117.8400 39.2644 -0.1264
117.8600 39.2711 -0.1188
117.8800 39.2778 -0.1328
117.9000 39.2844 -0.1243
117.9200 39.2911 -0.1216
117.9400 39.2977 -0.1308
117.9600 39.3043 -0.1246
117.9800 39.3110 -0.1217
118.0000 39.3177 -0.1311
118.0200 39.3244 -0.1256
118.0400 39.3311 -0.1234
118.0600 39.3377 -0.1423
118.0800 39.3444 -0.1237
118.1000 39.3511 -0.1154
118.1200 39.3577 -0.1413
118.1400 39.3643 -0.1307
118.1600 39.3710 -0.1223
118.1800 39.3777 -0.1354
118.2000 39.3844 -0.1349
118.2200 39.3910 -0.1244
118.2400 39.3977 -0.1377
118.2600 39.4044 -0.1328
118.2800 39.4111 -0.1329
118.3000 39.4177 -0.1344
118.3200 39.4243 -0.1294
118.3400 39.4310 -0.1270
118.3600 39.4377 -0.1419
118.3800 39.4444 -0.1313
118.4000 39.4511 -0.1217
118.4200 39.4578 -0.1403
118.4400 39.4645 -0.1358
118.4600 39.4711 -0.1258
118.4800 39.4777 -0.1477
118.5000 39.4843 -0.1299
118.5200 39.4910 -0.1262
118.5400 39.4977 -0.1488
118.5600 39.5044 -0.1345
118.5800 39.5111 -0.1277
118.6000 39.5178 -0.1490
118.6200 39.5245 -0.1290
118.6400 39.5311 -0.1333
118.6600 39.5377 -0.1472
118.6800 39.5443 -0.1313
118.7000 39.5510 -0.1380
118.7200 39.5577 -0.1461
118.7400 39.5644 -0.1313
118.7600 39.5710 -0.1413
118.7800 39.5777 -0.1460
118.8000 39.5844 -0.1296
118.8200 39.5911 -0.1485
118.8400 39.5977 -0.1412
118.8600 39.6043 -0.1336
118.8800 39.6109 -0.1459
118.9000 39.6176 -0.1428
118.9200 39.6243 -0.1355
118.9400 39.6311 -0.1502
118.9600 39.6378 -0.1343
118.9800 39.6444 -0.1393
119.0000 39.6511 -0.1561
119.0200 39.6577 -0.1399
119.0400 39.6643 -0.1337
119.0600 39.6710 -0.1557
119.0800 39.6777 -0.1372
119.1000 39.6844 -0.1413
119.1200 39.6911 -0.1561
119.1400 39.6978 -0.1357
119.1600 39.7045 -0.1468
119.1800 39.7111 -0.1543
119.2000 39.7177 -0.1321
119.2200 39.7243 -0.1514
119.2400 39.7310 -0.1481
119.2600 39.7377 -0.1332
119.2800 39.7444 -0.1580
119.3000 39.7511 -0.1492
119.3200 39.7578 -0.1364
119.3400 39.7644 -0.1519
119.3600 39.7711 -0.1469
119.3800 39.7777 -0.1432
119.4000 39.7844 -0.1583
119.4200 39.7910 -0.1424
119.4400 39.7976 -0.1475
119.4600 39.8044 -0.1530
119.4800 39.8111 -0.1419
119.5000 39.8178 -0.1532
119.5200 39.8244 -0.1521
119.5400 39.8311 -0.1435
119.5600 39.8377 -0.1542
119.5800 39.8443 -0.1486
119.6000 39.8509 -0.1466
119.6200 39.8576 -0.1535
119.6400 39.8644 -0.1496
119.6600 39.8711 -0.1516
119.6800 39.8777 -0.1551
119.7000 39.8844 -0.1451
119.7200 39.8911 -0.1495
119.7400 39.8977 -0.1552
119.7600 39.9043 -0.1507
119.7800 39.9110 -0.1545
119.8000 39.9177 -0.1521
119.8200 39.9244 -0.1498
119.8400 39.9311 -0.1548
119.8600 39.9378 -0.1563
119.8800 39.9445 -0.1510
119.9000 39.9512 -0.1575
119.9200 39.9578 -0.1506
119.9400 39.9644 -0.1568
119.9600 39.9710 -0.1541
119.9800 39.9777 -0.1521
120.0000 39.9844 -0.1577
120.0200 39.9911 -0.1565
120.0400 39.9978 -0.1575
120.0470 40.0000 -0.1666
