Raw Data
Time Displacement Force
(s) (mm) (N)
0.0000 0.0001 -0.0066
0.0200 0.0001 0.0080
0.0400 0.0009 0.0289
0.0600 0.0041 0.0365
0.0800 0.0097 0.0064
0.1000 0.0156 -0.0148
0.1200 0.0215 0.0135
0.1400 0.0280 0.0159
0.1600 0.0352 -0.0066
0.1800 0.0427 -0.0036
0.2000 0.0499 -0.0012
0.2200 0.0568 -0.0156
0.2400 0.0635 0.0053
0.2600 0.0702 0.0009
0.2800 0.0768 -0.0058
0.3000 0.0835 0.0043
0.3200 0.0902 -0.0014
0.3400 0.0968 -0.0052
0.3600 0.1035 0.0059
0.3800 0.1102 -0.0035
0.4000 0.1169 0.0033
0.4200 0.1236 -0.0007
0.4400 0.1303 -0.0069
0.4600 0.1370 0.0013
0.4800 0.1436 -0.0009
0.5000 0.1502 0.0022
0.5200 0.1568 0.0059
0.5400 0.1635 -0.0034
0.5600 0.1702 0.0002
0.5800 0.1769 0.0030
0.6000 0.1836 -0.0027
0.6200 0.1902 0.0038
0.6400 0.1969 -0.0023
0.6600 0.2035 -0.0031
0.6800 0.2102 0.0054
0.7000 0.2168 0.0015
0.7200 0.2235 -0.0066
0.7400 0.2302 0.0058
0.7600 0.2369 -0.0036
0.7800 0.2436 -0.0034
0.8000 0.2502 0.0048
0.8200 0.2569 0.0013
0.8400 0.2636 -0.0056
0.8600 0.2702 0.0020
0.8800 0.2769 0.0009
0.9000 0.2835 -0.0013
0.9200 0.2902 0.0005
0.9400 0.2969 0.0025
0.9600 0.3036 -0.0053
0.9800 0.3103 0.0018
1.0000 0.3170 -0.0012
1.0200 0.3237 -0.0059
1.0400 0.3302 0.0010
1.0600 0.3368 0.0043
1.0800 0.3435 -0.0050
1.1000 0.3502 0.0015
1.1200 0.3569 0.0054
1.1400 0.3636 -0.0034
1.1600 0.3703 0.0017
1.1800 0.3769 0.0026
1.2000 0.3836 -0.0018
1.2200 0.3902 -0.0053
1.2400 0.3968 0.0067
1.2600 0.4035 0.0010
1.2800 0.4102 -0.0033
1.3000 0.4169 0.0027
1.3200 0.4235 -0.0005
1.3400 0.4302 -0.0001
1.3600 0.4369 0.0061
1.3800 0.4436 -0.0071
1.4000 0.4502 0.0037
1.4200 0.4568 0.0053
1.4400 0.4635 -0.0082
1.4600 0.4702 0.0031
1.4800 0.4769 0.0050
1.5000 0.4836 -0.0116
1.5200 0.4903 0.0022
1.5400 0.4970 0.0063
1.5600 0.5036 -0.0149
1.5800 0.5102 0.0065
1.6000 0.5169 0.0072
1.6200 0.5235 -0.0099
1.6400 0.5302 0.0086
1.6600 0.5370 0.0003
1.6800 0.5436 -0.0124
1.7000 0.5503 0.0072
1.7200 0.5569 -0.0018
1.7400 0.5636 -0.0039
1.7600 0.5702 0.0068
1.7800 0.5768 -0.0016
1.8000 0.5835 -0.0048
1.8200 0.5902 0.0066
1.8400 0.5969 -0.0042
1.8600 0.6035 -0.0070
1.8800 0.6102 0.0052
1.9000 0.6169 0.0036
1.9200 0.6236 -0.0074
1.9400 0.6302 0.0053
1.9600 0.6368 0.0043
1.9800 0.6434 -0.0041
2.0000 0.6501 0.0004
2.0200 0.6569 0.0009
2.0400 0.6636 -0.0016
2.0600 0.6703 0.0007
2.0800 0.6770 -0.0004
2.1000 0.6836 -0.0041
2.1200 0.6902 0.0016
2.1400 0.6968 0.0033
2.1600 0.7035 -0.0027
2.1800 0.7102 -0.0001
2.2000 0.7169 0.0069
2.2200 0.7236 -0.0040
2.2400 0.7303 0.0010
2.2600 0.7370 0.0074
2.2800 0.7437 -0.0047
2.3000 0.7503 -0.0040
2.3200 0.7569 0.0089
2.3400 0.7635 -0.0019
2.3600 0.7702 0.0034
2.3800 0.7769 0.0040
2.4000 0.7836 -0.0001
2.4200 0.7903 0.0046
2.4400 0.7970 0.0064
2.4600 0.8037 -0.0091
2.4800 0.8103 0.0053
2.5000 0.8169 0.0121
2.5200 0.8235 -0.0047
2.5400 0.8302 0.0055
2.5600 0.8369 0.0116
2.5800 0.8436 -0.0061
2.6000 0.8503 0.0028
2.6200 0.8570 0.0101
2.6400 0.8636 -0.0040
2.6600 0.8702 0.0081
2.6800 0.8768 0.0088
2.7000 0.8835 -0.0008
2.7200 0.8901 0.0058
2.7400 0.8969 0.0069
2.7600 0.9035 0.0036
2.7800 0.9102 0.0093
2.8000 0.9169 -0.0004
2.8200 0.9236 0.0016
2.8400 0.9302 0.0068
2.8600 0.9368 0.0072
2.8800 0.9435 0.0071
2.9000 0.9502 0.0079
2.9200 0.9570 0.0055
2.9400 0.9637 0.0072
2.9600 0.9703 0.0043
2.9800 0.9770 0.0114
3.0000 0.9837 0.0070
3.0200 0.9903 0.0013
3.0400 0.9969 0.0127
3.0600 1.0035 0.0085
3.0800 1.0102 0.0039
3.1000 1.0169 0.0118
3.1200 1.0236 0.0071
3.1400 1.0303 0.0056
3.1600 1.0370 0.0178
3.1800 1.0437 0.0063
3.2000 1.0503 0.0079
3.2200 1.0569 0.0204
3.2400 1.0635 0.0096
3.2600 1.0702 0.0099
3.2800 1.0769 0.0199
3.3000 1.0836 0.0051
3.3200 1.0903 0.0181
3.3400 1.0969 0.0175
3.3600 1.1036 0.0079
3.3800 1.1103 0.0158
3.4000 1.1169 0.0208
3.4200 1.1235 0.0108
3.4400 1.1302 0.0185
3.4600 1.1369 0.0198
3.4800 1.1436 0.0170
3.5000 1.1502 0.0181
3.5200 1.1569 0.0226
3.5400 1.1636 0.0191
3.5600 1.1702 0.0246
3.5800 1.1768 0.0235
3.6000 1.1835 0.0208
3.6200 1.1902 0.0238
3.6400 1.1969 0.0256
3.6600 1.2036 0.0268
3.6800 1.2103 0.0215
3.7000 1.2170 0.0292
3.7200 1.2237 0.0282
3.7400 1.2303 0.0237
3.7600 1.2369 0.0274
3.7800 1.2435 0.0334
3.8000 1.2502 0.0271
3.8200 1.2569 0.0254
3.8400 1.2637 0.0302
3.8600 1.2703 0.0302
3.8800 1.2770 0.0277
3.9000 1.2836 0.0336
3.9200 1.2903 0.0277
3.9400 1.2969 0.0374
3.9600 1.3035 0.0325
3.9800 1.3102 0.0331
4.0000 1.3169 0.0380
4.0200 1.3236 0.0388
4.0400 1.3302 0.0297
4.0600 1.3369 0.0401
4.0800 1.3436 0.0367
4.1000 1.3502 0.0311
4.1200 1.3568 0.0455
4.1400 1.3635 0.0372
4.1600 1.3701 0.0328
4.1800 1.3769 0.0427
4.2000 1.3836 0.0413
4.2200 1.3903 0.0371
4.2400 1.3969 0.0468
4.2600 1.4036 0.0407
4.2800 1.4103 0.0373
4.3000 1.4169 0.0451
4.3200 1.4235 0.0470
4.3400 1.4302 0.0436
4.3600 1.4369 0.0455
4.3800 1.4436 0.0429
4.4000 1.4503 0.0504
4.4200 1.4570 0.0452
4.4400 1.4636 0.0486
4.4600 1.4703 0.0435
4.4800 1.4769 0.0501
4.5000 1.4835 0.0528
4.5200 1.4902 0.0485
4.5400 1.4969 0.0457
4.5600 1.5036 0.0518
4.5800 1.5103 0.0500
4.6000 1.5170 0.0491
4.6200 1.5237 0.0534
4.6400 1.5303 0.0527
4.6600 1.5369 0.0498
4.6800 1.5435 0.0587
4.7000 1.5502 0.0533
4.7200 1.5569 0.0479
4.7400 1.5636 0.0608
4.7600 1.5703 0.0502
4.7800 1.5770 0.0517
4.8000 1.5836 0.0584
4.8200 1.5903 0.0540
4.8400 1.5969 0.0547
4.8600 1.6035 0.0674
4.8800 1.6102 0.0595
4.9000 1.6169 0.0573
4.9200 1.6236 0.0643
4.9400 1.6302 0.0601
4.9600 1.6369 0.0553
4.9800 1.6436 0.0687
5.0000 1.6502 0.0585
5.0200 1.6569 0.0597
5.0400 1.6635 0.0693
5.0600 1.6702 0.0597
5.0800 1.6769 0.0612
5.1000 1.6836 0.0701
5.1200 1.6903 0.0577
5.1400 1.6970 0.0629
5.1600 1.7037 0.0740
5.1800 1.7103 0.0584
5.2000 1.7169 0.0641
5.2200 1.7235 0.0756
5.2400 1.7302 0.0633
5.2600 1.7369 0.0649
5.2800 1.7436 0.0752
5.3000 1.7503 0.0649
5.3200 1.7570 0.0703
5.3400 1.7637 0.0692
5.3600 1.7703 0.0664
5.3800 1.7769 0.0704
5.4000 1.7835 0.0761
5.4200 1.7902 0.0664
5.4400 1.7969 0.0719
5.4600 1.8036 0.0765
5.4800 1.8102 0.0719
5.5000 1.8169 0.0713
5.5200 1.8236 0.0807
5.5400 1.8303 0.0713
5.5600 1.8369 0.0754
5.5800 1.8435 0.0828
5.6000 1.8501 0.0774
5.6200 1.8568 0.0722
5.6400 1.8635 0.0845
5.6600 1.8702 0.0785
5.6800 1.8769 0.0743
5.7000 1.8836 0.0858
5.7200 1.8903 0.0767
5.7400 1.8969 0.0750
5.7600 1.9035 0.0886
5.7800 1.9102 0.0821
5.8000 1.9169 0.0778
5.8200 1.9236 0.0859
5.8400 1.9303 0.0806
5.8600 1.9370 0.0808
5.8800 1.9436 0.0858
5.9000 1.9503 0.0850
5.9200 1.9569 0.0806
5.9400 1.9636 0.0914
5.9600 1.9702 0.0840
5.9800 1.9769 0.0826
6.0000 1.9836 0.0900
6.0200 1.9903 0.0873
6.0400 1.9970 0.0818
6.0600 2.0037 0.0927
6.0800 2.0103 0.0892
6.1000 2.0169 0.0825
6.1200 2.0235 0.0940
6.1400 2.0301 0.0858
6.1600 2.0368 0.0840
6.1800 2.0436 0.0943
6.2000 2.0502 0.0855
6.2200 2.0569 0.0851
6.2400 2.0636 0.0955
6.2600 2.0703 0.0921
6.2800 2.0769 0.0817
6.3000 2.0835 0.0964
6.3200 2.0901 0.1009
6.3400 2.0969 0.0802
6.3600 2.1036 0.0995
6.3800 2.1102 0.0994
6.4000 2.1169 0.0854
6.4200 2.1236 0.0993
6.4400 2.1303 0.0999
6.4600 2.1369 0.0836
6.4800 2.1435 0.1065
6.5000 2.1502 0.0974
6.5200 2.1569 0.0835
6.5400 2.1636 0.1073
6.5600 2.1703 0.1085
6.5800 2.1770 0.0879
6.6000 2.1837 0.1023
6.6200 2.1903 0.1024
6.6400 2.1969 0.0897
6.6600 2.2035 0.1033
6.6800 2.2102 0.1049
6.7000 2.2169 0.0938
6.7200 2.2236 0.1038
6.7400 2.2303 0.1045
6.7600 2.2370 0.0919
6.7800 2.2436 0.1049
6.8000 2.2503 0.1089
6.8200 2.2569 0.0945
6.8400 2.2635 0.1069
6.8600 2.2702 0.1151
6.8800 2.2769 0.0938
6.9000 2.2836 0.1049
6.9200 2.2903 0.1146
6.9400 2.2969 0.1005
6.9600 2.3036 0.1022
6.9800 2.3103 0.1146
7.0000 2.3169 0.0991
7.0200 2.3235 0.1116
7.0400 2.3301 0.1166
7.0600 2.3368 0.1005
7.0800 2.3435 0.1101
7.1000 2.3502 0.1156
7.1200 2.3569 0.0998
7.1400 2.3636 0.1139
7.1600 2.3703 0.1119
7.1800 2.3769 0.1041
7.2000 2.3835 0.1156
7.2200 2.3902 0.1126
7.2400 2.3969 0.1028
7.2600 2.4036 0.1201
7.2800 2.4103 0.1109
7.3000 2.4170 0.1056
7.3200 2.4237 0.1229
7.3400 2.4303 0.1168
7.3600 2.4369 0.1066
7.3800 2.4435 0.1177
7.4000 2.4502 0.1200
7.4200 2.4569 0.1067
7.4400 2.4636 0.1197
7.4600 2.4703 0.1171
7.4800 2.4770 0.1108
7.5000 2.4836 0.1193
7.5200 2.4903 0.1199
7.5400 2.4969 0.1074
7.5600 2.5035 0.1257
7.5800 2.5101 0.1205
7.6000 2.5168 0.1150
7.6200 2.5236 0.1222
7.6400 2.5302 0.1198
7.6600 2.5369 0.1171
7.6800 2.5436 0.1227
7.7000 2.5503 0.1190
7.7200 2.5569 0.1190
7.7400 2.5635 0.1259
7.7600 2.5701 0.1169
7.7800 2.5768 0.1247
7.8000 2.5835 0.1267
7.8200 2.5903 0.1150
7.8400 2.5969 0.1275
7.8600 2.6036 0.1214
7.8800 2.6103 0.1192
7.9000 2.6169 0.1322
7.9200 2.6235 0.1171
7.9400 2.6302 0.1263
7.9600 2.6369 0.1313
7.9800 2.6436 0.1191
8.0000 2.6503 0.1241
8.0200 2.6570 0.1380
8.0400 2.6636 0.1184
8.0600 2.6703 0.1263
8.0800 2.6770 0.1357
8.1000 2.6836 0.1187
8.1200 2.6902 0.1297
8.1400 2.6969 0.1358
8.1600 2.7036 0.1143
8.1800 2.7103 0.1333
8.2000 2.7170 0.1386
8.2200 2.7237 0.1188
8.2400 2.7303 0.1309
8.2600 2.7370 0.1375
8.2800 2.7435 0.1219
8.3000 2.7501 0.1369
8.3200 2.7568 0.1349
8.3400 2.7635 0.1209
8.3600 2.7702 0.1385
8.3800 2.7769 0.1373
8.4000 2.7836 0.1240
8.4200 2.7903 0.1349
8.4400 2.7969 0.1402
8.4600 2.8035 0.1251
8.4800 2.8102 0.1410
8.5000 2.8168 0.1370
8.5200 2.8235 0.1276
8.5400 2.8302 0.1392
8.5600 2.8369 0.1424
8.5800 2.8436 0.1296
8.6000 2.8503 0.1385
8.6200 2.8569 0.1376
8.6400 2.8636 0.1305
8.6600 2.8702 0.1412
8.6800 2.8769 0.1432
8.7000 2.8836 0.1313
8.7200 2.8903 0.1427
8.7400 2.8970 0.1398
8.7600 2.9037 0.1337
8.7800 2.9103 0.1403
8.8000 2.9170 0.1448
8.8200 2.9236 0.1375
8.8400 2.9302 0.1435
8.8600 2.9368 0.1452
8.8800 2.9436 0.1380
8.9000 2.9503 0.1446
8.9200 2.9570 0.1449
8.9400 2.9636 0.1428
8.9600 2.9703 0.1407
8.9800 2.9769 0.1464
9.0000 2.9836 0.1431
9.0200 2.9902 0.1446
9.0400 2.9969 0.1451
9.0600 3.0036 0.1427
9.0800 3.0102 0.1441
9.1000 3.0169 0.1511
9.1200 3.0236 0.1388
9.1400 3.0303 0.1454
9.1600 3.0369 0.1540
9.1800 3.0435 0.1376
9.2000 3.0501 0.1478
9.2200 3.0568 0.1590
9.2400 3.0635 0.1397
9.2600 3.0702 0.1478
9.2800 3.0769 0.1543
9.3000 3.0836 0.1407
9.3200 3.0903 0.1514
9.3400 3.0969 0.1533
9.3600 3.1035 0.1424
9.3800 3.1101 0.1542
9.4000 3.1168 0.1554
9.4200 3.1236 0.1429
9.4400 3.1303 0.1538
9.4600 3.1370 0.1562
9.4800 3.1437 0.1473
9.5000 3.1503 0.1548
9.5200 3.1570 0.1525
9.5400 3.1636 0.1485
9.5600 3.1702 0.1585
9.5800 3.1769 0.1563
9.6000 3.1836 0.1530
9.6200 3.1903 0.1528
9.6400 3.1969 0.1549
9.6600 3.2036 0.1551
9.6800 3.2103 0.1523
9.7000 3.2169 0.1578
9.7200 3.2235 0.1595
9.7400 3.2302 0.1508
9.7600 3.2368 0.1599
9.7800 3.2435 0.1586
9.8000 3.2502 0.1533
9.8200 3.2569 0.1653
9.8400 3.2636 0.1573
9.8600 3.2703 0.1519
9.8800 3.2769 0.1650
9.9000 3.2835 0.1552
9.9200 3.2902 0.1572
9.9400 3.2968 0.1719
9.9600 3.3036 0.1532
9.9800 3.3103 0.1550
10.0000 3.3169 0.1685
10.0200 3.3236 0.1567
10.0400 3.3303 0.1597
10.0600 3.3369 0.1708
10.0800 3.3436 0.1545
10.1000 3.3502 0.1634
10.1200 3.3569 0.1691
10.1400 3.3636 0.1556
10.1600 3.3703 0.1636
10.1800 3.3769 0.1728
10.2000 3.3836 0.1544
10.2200 3.3903 0.1618
10.2400 3.3970 0.1730
10.2600 3.4036 0.1569
10.2800 3.4102 0.1596
10.3000 3.4168 0.1796
10.3200 3.4236 0.1611
10.3400 3.4303 0.1580
10.3600 3.4370 0.1781
10.3800 3.4437 0.1612
10.4000 3.4503 0.1638
10.4200 3.4569 0.1778
10.4400 3.4635 0.1611
10.4600 3.4701 0.1655
10.4800 3.4768 0.1794
10.5000 3.4835 0.1623
10.5200 3.4902 0.1694
10.5400 3.4969 0.1706
10.5600 3.5036 0.1668
10.5800 3.5102 0.1686
10.6000 3.5169 0.1734
10.6200 3.5236 0.1644
10.6400 3.5302 0.1689
10.6600 3.5368 0.1749
10.6800 3.5435 0.1700
10.7000 3.5502 0.1671
10.7200 3.5569 0.1783
10.7400 3.5636 0.1718
10.7600 3.5703 0.1660
10.7800 3.5770 0.1790
10.8000 3.5836 0.1757
10.8200 3.5902 0.1668
10.8400 3.5968 0.1848
10.8600 3.6035 0.1739
10.8800 3.6103 0.1653
10.9000 3.6170 0.1827
10.9200 3.6237 0.1734
10.9400 3.6303 0.1714
10.9600 3.6370 0.1777
10.9800 3.6436 0.1753
11.0000 3.6502 0.1702
11.0200 3.6569 0.1848
11.0400 3.6636 0.1757
11.0600 3.6703 0.1672
11.0800 3.6770 0.1876
11.1000 3.6836 0.1785
11.1200 3.6903 0.1678
11.1400 3.6970 0.1886
11.1600 3.7036 0.1738
11.1800 3.7102 0.1739
11.2000 3.7168 0.1878
11.2200 3.7235 0.1780
11.2400 3.7302 0.1745
11.2600 3.7369 0.1868
11.2800 3.7436 0.1789
11.3000 3.7503 0.1741
11.3200 3.7570 0.1847
11.3400 3.7636 0.1805
11.3600 3.7702 0.1769
11.3800 3.7768 0.1896
11.4000 3.7835 0.1805
11.4200 3.7902 0.1755
11.4400 3.7969 0.1874
11.4600 3.8036 0.1823
11.4800 3.8103 0.1783
11.5000 3.8169 0.1848
11.5200 3.8236 0.1866
11.5400 3.8302 0.1786
11.5600 3.8368 0.1855
11.5800 3.8436 0.1889
11.6000 3.8503 0.1831
11.6200 3.8570 0.1799
11.6400 3.8636 0.1921
11.6600 3.8703 0.1797
11.6800 3.8770 0.1882
11.7000 3.8837 0.1930
11.7200 3.8903 0.1805
11.7400 3.8969 0.1878
11.7600 3.9035 0.1975
11.7800 3.9102 0.1777
11.8000 3.9170 0.1882
11.8200 3.9236 0.1959
11.8400 3.9303 0.1810
11.8600 3.9370 0.1872
11.8800 3.9436 0.1931
11.9000 3.9502 0.1853
11.9200 3.9568 0.1905
11.9400 3.9635 0.1956
11.9600 3.9702 0.1878
11.9800 3.9769 0.1875
12.0000 3.9836 0.1963
12.0200 3.9903 0.1877
12.0400 3.9969 0.1866
12.0600 4.0036 0.1955
12.0800 4.0102 0.1888
12.1000 4.0168 0.1938
12.1200 4.0235 0.1911
12.1400 4.0302 0.1966
12.1600 4.0369 0.1902
12.1800 4.0436 0.1934
12.2000 4.0503 0.1987
12.2200 4.0569 0.1879
12.2400 4.0636 0.1939
12.2600 4.0702 0.1998
12.2800 4.0768 0.1876
12.3000 4.0835 0.1996
12.3200 4.0902 0.1964
12.3400 4.0969 0.1887
12.3600 4.1036 0.2022
12.3800 4.1103 0.1985
12.4000 4.1170 0.1849
12.4200 4.1236 0.2011
12.4400 4.1302 0.2034
12.4600 4.1368 0.1887
12.4800 4.1435 0.2047
12.5000 4.1503 0.2010
12.5200 4.1570 0.1880
12.5400 4.1637 0.2033
12.5600 4.1703 0.2036
12.5800 4.1770 0.1859
12.6000 4.1836 0.2055
12.6200 4.1902 0.1973
12.6400 4.1969 0.1947
12.6600 4.2035 0.2102
12.6800 4.2102 0.1977
12.7000 4.2169 0.1911
12.7200 4.2236 0.2124
12.7400 4.2303 0.1981
12.7600 4.2369 0.1954
12.7800 4.2436 0.2077
12.8000 4.2502 0.1976
12.8200 4.2568 0.1972
12.8400 4.2635 0.2108
12.8600 4.2702 0.1973
12.8800 4.2769 0.1973
12.9000 4.2836 0.2107
12.9200 4.2903 0.1970
12.9400 4.2969 0.1972
12.9600 4.3036 0.2138
12.9800 4.3102 0.1995
13.0000 4.3168 0.1992
13.0200 4.3235 0.2156
13.0400 4.3303 0.1974
13.0600 4.3370 0.2038
13.0800 4.3437 0.2104
13.1000 4.3503 0.2052
13.1200 4.3570 0.2031
13.1400 4.3636 0.2107
13.1600 4.3702 0.2048
13.1800 4.3768 0.2038
13.2000 4.3835 0.2136
13.2200 4.3902 0.2048
13.2400 4.3969 0.2011
13.2600 4.4036 0.2145
13.2800 4.4103 0.2035
13.3000 4.4170 0.2058
13.3200 4.4236 0.2154
13.3400 4.4302 0.2088
13.3600 4.4368 0.2016
13.3800 4.4435 0.2142
13.4000 4.4502 0.2080
13.4200 4.4569 0.2041
13.4400 4.4636 0.2178
13.4600 4.4703 0.2106
13.4800 4.4770 0.1996
13.5000 4.4836 0.2138
13.5200 4.4902 0.2133
13.5400 4.4968 0.2052
13.5600 4.5035 0.2165
13.5800 4.5102 0.2148
13.6000 4.5169 0.2023
13.6200 4.5236 0.2117
13.6400 4.5302 0.2245
13.6600 4.5369 0.2015
13.6800 4.5436 0.2154
13.7000 4.5502 0.2189
13.7200 4.5569 0.2064
13.7400 4.5635 0.2153
13.7600 4.5702 0.2176
13.7800 4.5769 0.2056
13.8000 4.5836 0.2181
13.8200 4.5903 0.2162
13.8400 4.5970 0.2029
13.8600 4.6037 0.2203
13.8800 4.6102 0.2221
13.9000 4.6169 0.2054
13.9200 4.6235 0.2246
13.9400 4.6303 0.2194
13.9600 4.6370 0.2054
13.9800 4.6436 0.2240
14.0000 4.6503 0.2168
14.0200 4.6570 0.2087
14.0400 4.6636 0.2225
14.0600 4.6702 0.2182
14.0800 4.6768 0.2115
14.1000 4.6835 0.2207
14.1200 4.6902 0.2185
14.1400 4.6969 0.2167
14.1600 4.7036 0.2181
14.1800 4.7102 0.2235
14.2000 4.7169 0.2167
14.2200 4.7236 0.2185
14.2400 4.7302 0.2223
14.2600 4.7368 0.2207
14.2800 4.7435 0.2164
14.3000 4.7502 0.2287
14.3200 4.7569 0.2166
14.3400 4.7636 0.2176
14.3600 4.7703 0.2283
14.3800 4.7770 0.2142
14.4000 4.7836 0.2204
14.4200 4.7903 0.2325
14.4400 4.7969 0.2129
14.4600 4.8035 0.2279
14.4800 4.8102 0.2335
14.5000 4.8170 0.2076
14.5200 4.8236 0.2301
14.5400 4.8303 0.2347
14.5600 4.8370 0.2073
14.5800 4.8436 0.2284
14.6000 4.8502 0.2329
14.6200 4.8569 0.2092
14.6400 4.8635 0.2344
14.6600 4.8702 0.2305
14.6800 4.8769 0.2178
14.7000 4.8836 0.2291
14.7200 4.8903 0.2274
14.7400 4.8970 0.2208
14.7600 4.9037 0.2338
14.7800 4.9103 0.2267
14.8000 4.9169 0.2210
14.8200 4.9235 0.2303
14.8400 4.9302 0.2295
14.8600 4.9369 0.2223
14.8800 4.9436 0.2346
14.9000 4.9503 0.2270
14.9200 4.9570 0.2227
14.9400 4.9636 0.2288
14.9600 4.9702 0.2292
14.9800 4.9768 0.2271
15.0000 4.9834 0.2280
15.0200 4.9902 0.2324
15.0400 4.9969 0.2278
15.0600 5.0036 0.2310
15.0800 5.0103 0.2334
15.1000 5.0169 0.2288
15.1200 5.0236 0.2285
15.1400 5.0302 0.2325
15.1600 5.0368 0.2278
15.1800 5.0435 0.2334
15.2000 5.0502 0.2341
15.2200 5.0569 0.2230
15.2400 5.0636 0.2317
15.2600 5.0703 0.2409
15.2800 5.0770 0.2266
15.3000 5.0836 0.2351
15.3200 5.0903 0.2358
15.3400 5.0969 0.2256
15.3600 5.1035 0.2349
15.3800 5.1102 0.2407
15.4000 5.1169 0.2280
15.4200 5.1236 0.2350
15.4400 5.1303 0.2374
15.4600 5.1370 0.2267
15.4800 5.1437 0.2390
15.5000 5.1503 0.2381
15.5200 5.1568 0.2313
15.5400 5.1635 0.2412
15.5600 5.1702 0.2346
15.5800 5.1769 0.2300
15.6000 5.1836 0.2461
15.6200 5.1903 0.2330
15.6400 5.1969 0.2351
15.6600 5.2036 0.2380
15.6800 5.2102 0.2353
15.7000 5.2168 0.2400
15.7200 5.2235 0.2440
15.7400 5.2302 0.2331
15.7600 5.2369 0.2416
15.7800 5.2436 0.2384
15.8000 5.2502 0.2356
15.8200 5.2569 0.2455
15.8400 5.2636 0.2379
15.8600 5.2702 0.2328
15.8800 5.2769 0.2448
15.9000 5.2835 0.2393
15.9200 5.2902 0.2344
15.9400 5.2969 0.2434
15.9600 5.3036 0.2412
15.9800 5.3103 0.2346
16.0000 5.3170 0.2481
16.0200 5.3237 0.2412
16.0400 5.3303 0.2351
16.0600 5.3369 0.2448
16.0800 5.3435 0.2392
16.1000 5.3502 0.2397
16.1200 5.3570 0.2463
16.1400 5.3636 0.2404
16.1600 5.3703 0.2407
16.1800 5.3770 0.2513
16.2000 5.3836 0.2350
16.2200 5.3902 0.2451
16.2400 5.3969 0.2514
16.2600 5.4035 0.2416
16.2800 5.4102 0.2484
16.3000 5.4169 0.2458
16.3200 5.4236 0.2400
16.3400 5.4303 0.2516
16.3600 5.4369 0.2451
16.3800 5.4436 0.2400
16.4000 5.4502 0.2508
16.4200 5.4568 0.2430
16.4400 5.4635 0.2412
16.4600 5.4702 0.2509
16.4800 5.4769 0.2455
16.5000 5.4836 0.2471
16.5200 5.4903 0.2452
16.5400 5.4970 0.2435
16.5600 5.5037 0.2503
16.5800 5.5103 0.2473
16.6000 5.5169 0.2460
16.6200 5.5235 0.2527
16.6400 5.5302 0.2498
16.6600 5.5369 0.2436
16.6800 5.5436 0.2480
16.7000 5.5503 0.2477
16.7200 5.5570 0.2567
16.7400 5.5636 0.2492
16.7600 5.5703 0.2417
16.7800 5.5769 0.2580
16.8000 5.5835 0.2463
16.8200 5.5902 0.2416
16.8400 5.5969 0.2592
16.8600 5.6036 0.2463
16.8800 5.6103 0.2447
16.9000 5.6170 0.2603
16.9200 5.6237 0.2462
16.9400 5.6303 0.2423
16.9600 5.6369 0.2602
16.9800 5.6435 0.2508
17.0000 5.6502 0.2462
17.0200 5.6569 0.2596
17.0400 5.6636 0.2456
17.0600 5.6703 0.2483
17.0800 5.6770 0.2618
17.1000 5.6836 0.2464
17.1200 5.6902 0.2518
17.1400 5.6968 0.2642
17.1600 5.7035 0.2473
17.1800 5.7101 0.2537
17.2000 5.7169 0.2592
17.2200 5.7236 0.2509
17.2400 5.7302 0.2497
17.2600 5.7369 0.2630
17.2800 5.7436 0.2483
17.3000 5.7502 0.2524
17.3200 5.7568 0.2568
17.3400 5.7635 0.2491
17.3600 5.7702 0.2558
17.3800 5.7769 0.2645
17.4000 5.7836 0.2488
17.4200 5.7903 0.2535
17.4400 5.7970 0.2639
17.4600 5.8037 0.2542
17.4800 5.8103 0.2525
17.5000 5.8169 0.2611
17.5200 5.8235 0.2565
17.5400 5.8302 0.2561
17.5600 5.8369 0.2607
17.5800 5.8436 0.2581
17.6000 5.8503 0.2516
17.6200 5.8570 0.2591
17.6400 5.8637 0.2621
17.6600 5.8703 0.2510
17.6800 5.8768 0.2640
17.7000 5.8835 0.2614
17.7200 5.8902 0.2492
17.7400 5.8969 0.2638
17.7600 5.9036 0.2658
17.7800 5.9103 0.2497
17.8000 5.9169 0.2667
17.8200 5.9236 0.2623
17.8400 5.9303 0.2480
17.8600 5.9369 0.2718
17.8800 5.9435 0.2644
17.9000 5.9502 0.2437
17.9200 5.9569 0.2742
17.9400 5.9636 0.2599
17.9600 5.9702 0.2531
17.9800 5.9769 0.2742
18.0000 5.9836 0.2573
18.0200 5.9902 0.2559
18.0400 5.9969 0.2717
18.0600 6.0035 0.2566
18.0800 6.0102 0.2585
18.1000 6.0169 0.2797
18.1200 6.0236 0.2525
18.1400 6.0303 0.2566
18.1600 6.0370 0.2765
18.1800 6.0437 0.2566
18.2000 6.0503 0.2641
18.2200 6.0569 0.2721
18.2400 6.0635 0.2597
18.2600 6.0702 0.2694
18.2800 6.0769 0.2640
18.3000 6.0836 0.2577
18.3200 6.0903 0.2706
18.3400 6.0970 0.2690
18.3600 6.1036 0.2580
18.3800 6.1103 0.2676
18.4000 6.1169 0.2702
18.4200 6.1235 0.2689
18.4400 6.1302 0.2662
18.4600 6.1369 0.2645
18.4800 6.1436 0.2682
18.5000 6.1502 0.2647
18.5200 6.1569 0.2645
18.5400 6.1636 0.2737
18.5600 6.1703 0.2651
18.5800 6.1769 0.2651
18.6000 6.1835 0.2785
18.6200 6.1901 0.2667
18.6400 6.1969 0.2713
18.6600 6.2036 0.2718
18.6800 6.2103 0.2569
18.7000 6.2169 0.2682
18.7200 6.2236 0.2767
18.7400 6.2303 0.2578
18.7600 6.2369 0.2721
18.7800 6.2435 0.2750
18.8000 6.2502 0.2633
18.8200 6.2569 0.2724
18.8400 6.2636 0.2711
18.8600 6.2703 0.2605
18.8800 6.2769 0.2825
18.9000 6.2836 0.2677
18.9200 6.2903 0.2586
18.9400 6.2969 0.2787
18.9600 6.3035 0.2757
18.9800 6.3102 0.2584
19.0000 6.3169 0.2805
19.0200 6.3236 0.2732
19.0400 6.3303 0.2629
19.0600 6.3370 0.2802
19.0800 6.3437 0.2719
19.1000 6.3503 0.2674
19.1200 6.3569 0.2791
19.1400 6.3635 0.2712
19.1600 6.3702 0.2678
19.1800 6.3769 0.2799
19.2000 6.3836 0.2757
19.2200 6.3903 0.2683
19.2400 6.3970 0.2772
19.2600 6.4036 0.2761
19.2800 6.4103 0.2681
19.3000 6.4169 0.2772
19.3200 6.4235 0.2764
19.3400 6.4301 0.2743
19.3600 6.4368 0.2739
19.3800 6.4436 0.2764
19.4000 6.4502 0.2742
19.4200 6.4569 0.2749
19.4400 6.4636 0.2747
19.4600 6.4702 0.2787
19.4800 6.4769 0.2720
19.5000 6.4835 0.2791
19.5200 6.4902 0.2811
19.5400 6.4969 0.2713
19.5600 6.5036 0.2811
19.5800 6.5103 0.2770
19.6000 6.5170 0.2718
19.6200 6.5237 0.2880
19.6400 6.5304 0.2725
19.6600 6.5369 0.2695
19.6800 6.5435 0.2918
19.7000 6.5502 0.2696
19.7200 6.5569 0.2740
19.7400 6.5636 0.2965
19.7600 6.5703 0.2730
19.7800 6.5770 0.2681
19.8000 6.5837 0.2928
19.8200 6.5903 0.2773
19.8400 6.5969 0.2738
19.8600 6.6035 0.2929
19.8800 6.6102 0.2769
19.9000 6.6169 0.2741
19.9200 6.6236 0.2847
19.9400 6.6302 0.2774
19.9600 6.6369 0.2815
19.9800 6.6436 0.2872
20.0000 6.6503 0.2728
20.0200 6.6569 0.2766
20.0400 6.6635 0.2918
20.0600 6.6701 0.2807
20.0800 6.6768 0.2798
20.1000 6.6835 0.2892
20.1200 6.6902 0.2796
20.1400 6.6969 0.2784
20.1600 6.7036 0.2889
20.1800 6.7103 0.2849
20.2000 6.7169 0.2733
20.2200 6.7235 0.2867
20.2400 6.7302 0.2888
20.2600 6.7369 0.2794
20.2800 6.7436 0.2834
20.3000 6.7503 0.2861
20.3200 6.7570 0.2776
20.3400 6.7636 0.2882
20.3600 6.7703 0.2877
20.3800 6.7769 0.2774
20.4000 6.7836 0.2842
20.4200 6.7902 0.2905
20.4400 6.7969 0.2825
20.4600 6.8036 0.2909
20.4800 6.8103 0.2830
20.5000 6.8170 0.2842
20.5200 6.8237 0.2893
20.5400 6.8303 0.2782
20.5600 6.8369 0.2772
20.5800 6.8435 0.2980
20.6000 6.8501 0.2857
20.6200 6.8568 0.2795
20.6400 6.8636 0.2912
20.6600 6.8703 0.2891
20.6800 6.8770 0.2805
20.7000 6.8836 0.2907
20.7200 6.8903 0.2933
20.7400 6.8969 0.2816
20.7600 6.9035 0.2841
20.7800 6.9101 0.2930
20.8000 6.9168 0.2929
20.8200 6.9236 0.2880
20.8400 6.9302 0.2924
20.8600 6.9369 0.2820
20.8800 6.9436 0.2884
20.9000 6.9503 0.2955
20.9200 6.9569 0.2813
20.9400 6.9636 0.2901
20.9600 6.9702 0.3002
20.9800 6.9769 0.2799
21.0000 6.9835 0.2924
21.0200 6.9902 0.3015
21.0400 6.9969 0.2797
21.0600 7.0036 0.2869
21.0800 7.0103 0.3011
21.1000 7.0169 0.2861
21.1200 7.0235 0.2879
21.1400 7.0302 0.2964
21.1600 7.0369 0.2868
21.1800 7.0436 0.2875
21.2000 7.0503 0.2957
21.2200 7.0570 0.2873
21.2400 7.0637 0.2853
21.2600 7.0703 0.2982
21.2800 7.0769 0.2880
21.3000 7.0835 0.2932
21.3200 7.0902 0.2993
21.3400 7.0969 0.2890
21.3600 7.1036 0.2873
21.3800 7.1103 0.3051
21.4000 7.1169 0.2919
21.4200 7.1236 0.2863
21.4400 7.1303 0.3019
21.4600 7.1369 0.2881
21.4800 7.1435 0.2902
21.5000 7.1501 0.3060
21.5200 7.1568 0.2848
21.5400 7.1635 0.2895
21.5600 7.1702 0.3060
21.5800 7.1769 0.2920
21.6000 7.1836 0.2883
21.6200 7.1903 0.3063
21.6400 7.1969 0.2913
21.6600 7.2035 0.2914
21.6800 7.2102 0.3034
21.7000 7.2169 0.2923
21.7200 7.2236 0.2919
21.7400 7.2303 0.2991
21.7600 7.2370 0.2964
21.7800 7.2437 0.2912
21.8000 7.2503 0.2976
21.8200 7.2570 0.3002
21.8400 7.2635 0.2966
21.8600 7.2702 0.2937
21.8800 7.2769 0.3089
21.9000 7.2836 0.2933
21.9200 7.2903 0.2903
21.9400 7.2969 0.3100
21.9600 7.3036 0.2906
21.9800 7.3103 0.2905
22.0000 7.3169 0.3119
22.0200 7.3236 0.2891
22.0400 7.3302 0.2944
22.0600 7.3368 0.3081
22.0800 7.3435 0.2882
22.1000 7.3502 0.3021
22.1200 7.3569 0.3111
22.1400 7.3636 0.2826
22.1600 7.3703 0.3027
22.1800 7.3769 0.3068
22.2000 7.3835 0.2900
22.2200 7.3901 0.3077
22.2400 7.3968 0.3039
22.2600 7.4035 0.2910
22.2800 7.4102 0.3041
22.3000 7.4169 0.2966
22.3200 7.4236 0.2956
22.3400 7.4303 0.3151
22.3600 7.4369 0.2958
22.3800 7.4435 0.2933
22.4000 7.4502 0.3107
22.4200 7.4569 0.3005
22.4400 7.4636 0.2952
22.4600 7.4703 0.3090
22.4800 7.4770 0.2977
22.5000 7.4836 0.2978
22.5200 7.4903 0.3089
22.5400 7.4970 0.3047
22.5600 7.5036 0.2987
22.5800 7.5102 0.3089
22.6000 7.5169 0.3012
22.6200 7.5236 0.3007
22.6400 7.5303 0.3073
22.6600 7.5370 0.3025
22.6800 7.5437 0.2997
22.7000 7.5504 0.3044
22.7200 7.5570 0.3046
22.7400 7.5636 0.3030
22.7600 7.5702 0.3076
22.7800 7.5768 0.3075
22.8000 7.5835 0.3025
22.8200 7.5902 0.3079
22.8400 7.5969 0.3097
22.8600 7.6036 0.2984
22.8800 7.6103 0.3108
22.9000 7.6169 0.3094
22.9200 7.6235 0.3020
22.9400 7.6301 0.3085
22.9600 7.6368 0.3100
22.9800 7.6435 0.3003
23.0000 7.6502 0.3116
23.0200 7.6569 0.3108
23.0400 7.6635 0.3049
23.0600 7.6702 0.3047
23.0800 7.6769 0.3080
23.1000 7.6836 0.3019
23.1200 7.6902 0.3123
23.1400 7.6969 0.3108
23.1600 7.7035 0.3004
23.1800 7.7102 0.3080
23.2000 7.7169 0.3144
23.2200 7.7236 0.3101
23.2400 7.7303 0.3034
23.2600 7.7370 0.3105
23.2800 7.7436 0.3085
23.3000 7.7502 0.3088
23.3200 7.7568 0.3160
23.3400 7.7636 0.3086
23.3600 7.7703 0.3081
23.3800 7.7770 0.3099
23.4000 7.7836 0.3080
23.4200 7.7903 0.3102
23.4400 7.7969 0.3080
23.4600 7.8035 0.3111
23.4800 7.8102 0.3084
23.5000 7.8169 0.3122
23.5200 7.8235 0.3064
23.5400 7.8302 0.3149
23.5600 7.8369 0.3140
23.5800 7.8436 0.3077
23.6000 7.8503 0.3081
23.6200 7.8569 0.3150
23.6400 7.8636 0.3103
23.6600 7.8701 0.3067
23.6800 7.8768 0.3223
23.7000 7.8835 0.3181
23.7200 7.8902 0.3023
23.7400 7.8969 0.3071
23.7600 7.9036 0.3243
23.7800 7.9102 0.3186
23.8000 7.9169 0.3020
23.8200 7.9235 0.3190
23.8400 7.9301 0.3191
23.8600 7.9368 0.2996
23.8800 7.9435 0.3245
23.9000 7.9503 0.3178
23.9200 7.9569 0.2915
23.9400 7.9636 0.3258
23.9600 7.9703 0.3271
23.9800 7.9770 0.2892
24.0000 7.9836 0.3223
24.0200 7.9902 0.3355
24.0400 7.9969 0.2946
24.0600 8.0036 0.3108
24.0800 8.0103 0.3379
24.1000 8.0170 0.3029
24.1200 8.0237 0.3077
24.1400 8.0303 0.3343
24.1600 8.0370 0.3062
24.1800 8.0436 0.3011
24.2000 8.0502 0.3359
24.2200 8.0568 0.3206
24.2400 8.0635 0.3071
24.2600 8.0702 0.3244
24.2800 8.0769 0.3129
24.3000 8.0836 0.3133
24.3200 8.0903 0.3275
24.3400 8.0969 0.3165
24.3600 8.1035 0.3070
24.3800 8.1102 0.3298
24.4000 8.1168 0.3157
24.4200 8.1236 0.3114
24.4400 8.1303 0.3250
24.4600 8.1369 0.3158
24.4800 8.1436 0.3156
24.5000 8.1503 0.3225
24.5200 8.1570 0.3112
24.5400 8.1636 0.3233
24.5600 8.1702 0.3178
24.5800 8.1769 0.3175
24.6000 8.1836 0.3290
24.6200 8.1903 0.3123
24.6400 8.1970 0.3123
24.6600 8.2036 0.3354
24.6800 8.2103 0.3141
24.7000 8.2170 0.3131
24.7200 8.2236 0.3287
24.7400 8.2302 0.3100
24.7600 8.2368 0.3240
24.7800 8.2435 0.3277
24.8000 8.2503 0.3073
24.8200 8.2570 0.3263
24.8400 8.2636 0.3337
24.8600 8.2703 0.3021
24.8800 8.2770 0.3276
24.9000 8.2836 0.3341
24.9200 8.2902 0.3065
24.9400 8.2968 0.3263
24.9600 8.3035 0.3283
24.9800 8.3103 0.3116
25.0000 8.3169 0.3296
25.0200 8.3236 0.3246
25.0400 8.3303 0.3106
25.0600 8.3369 0.3247
25.0800 8.3436 0.3309
25.1000 8.3502 0.3088
25.1200 8.3568 0.3279
25.1400 8.3635 0.3313
25.1600 8.3702 0.3124
25.1800 8.3769 0.3308
25.2000 8.3836 0.3324
25.2200 8.3903 0.3061
25.2400 8.3970 0.3283
25.2600 8.4036 0.3315
25.2800 8.4102 0.3079
25.3000 8.4168 0.3336
25.3200 8.4235 0.3347
25.3400 8.4303 0.3054
25.3600 8.4370 0.3324
25.3800 8.4437 0.3346
25.4000 8.4503 0.3080
25.4200 8.4570 0.3292
25.4400 8.4636 0.3335
25.4600 8.4702 0.3105
25.4800 8.4769 0.3280
25.5000 8.4836 0.3362
25.5200 8.4903 0.3127
25.5400 8.4970 0.3310
25.5600 8.5036 0.3286
25.5800 8.5103 0.3163
25.6000 8.5170 0.3293
25.6200 8.5236 0.3346
25.6400 8.5302 0.3165
25.6600 8.5368 0.3323
25.6800 8.5435 0.3372
25.7000 8.5502 0.3180
25.7200 8.5569 0.3275
25.7400 8.5636 0.3335
25.7600 8.5703 0.3216
25.7800 8.5770 0.3303
25.8000 8.5836 0.3298
25.8200 8.5902 0.3227
25.8400 8.5968 0.3305
25.8600 8.6035 0.3253
25.8800 8.6102 0.3282
25.9000 8.6169 0.3273
25.9200 8.6236 0.3346
25.9400 8.6303 0.3249
25.9600 8.6369 0.3292
25.9800 8.6436 0.3300
26.0000 8.6502 0.3289
26.0200 8.6569 0.3273
26.0400 8.6635 0.3347
26.0600 8.6702 0.3296
26.0800 8.6769 0.3242
26.1000 8.6836 0.3389
26.1200 8.6903 0.3323
26.1400 8.6970 0.3225
26.1600 8.7037 0.3331
26.1800 8.7102 0.3282
26.2000 8.7169 0.3317
26.2200 8.7235 0.3360
26.2400 8.7302 0.3296
26.2600 8.7370 0.3284
26.2800 8.7436 0.3361
26.3000 8.7503 0.3303
26.3200 8.7570 0.3296
26.3400 8.7636 0.3367
26.3600 8.7702 0.3306
26.3800 8.7768 0.3298
26.4000 8.7835 0.3407
26.4200 8.7902 0.3286
26.4400 8.7969 0.3211
26.4600 8.8036 0.3444
26.4800 8.8103 0.3317
26.5000 8.8169 0.3242
26.5200 8.8236 0.3416
26.5400 8.8302 0.3368
26.5600 8.8368 0.3226
26.5800 8.8435 0.3478
26.6000 8.8502 0.3345
26.6200 8.8569 0.3252
26.6400 8.8636 0.3420
26.6600 8.8702 0.3315
26.6800 8.8770 0.3327
26.7000 8.8836 0.3393
26.7200 8.8902 0.3274
26.7400 8.8968 0.3353
26.7600 8.9035 0.3491
26.7800 8.9102 0.3250
26.8000 8.9169 0.3284
26.8200 8.9236 0.3469
26.8400 8.9303 0.3304
26.8600 8.9370 0.3343
26.8800 8.9436 0.3401
26.9000 8.9502 0.3338
26.9200 8.9569 0.3376
26.9400 8.9635 0.3329
26.9600 8.9703 0.3436
26.9800 8.9770 0.3363
27.0000 8.9836 0.3287
27.0200 8.9903 0.3408
27.0400 8.9970 0.3402
27.0600 9.0036 0.3278
27.0800 9.0102 0.3526
27.1000 9.0169 0.3356
27.1200 9.0235 0.3145
27.1400 9.0302 0.3614
27.1600 9.0369 0.3424
27.1800 9.0436 0.3073
27.2000 9.0503 0.3641
27.2200 9.0570 0.3416
27.2400 9.0636 0.3188
27.2600 9.0702 0.3527
27.2800 9.0768 0.3405
27.3000 9.0835 0.3225
27.3200 9.0902 0.3563
27.3400 9.0969 0.3375
27.3600 9.1036 0.3226
27.3800 9.1103 0.3573
27.4000 9.1169 0.3321
27.4200 9.1236 0.3355
27.4400 9.1302 0.3520
27.4600 9.1369 0.3285
27.4800 9.1435 0.3378
27.5000 9.1503 0.3496
27.5200 9.1570 0.3305
27.5400 9.1637 0.3401
27.5600 9.1703 0.3463
27.5800 9.1770 0.3369
27.6000 9.1836 0.3366
27.6200 9.1902 0.3474
27.6400 9.1968 0.3387
27.6600 9.2035 0.3446
27.6800 9.2102 0.3401
27.7000 9.2169 0.3467
27.7200 9.2236 0.3407
27.7400 9.2303 0.3358
27.7600 9.2370 0.3423
27.7800 9.2436 0.3469
27.8000 9.2502 0.3412
27.8200 9.2568 0.3426
27.8400 9.2635 0.3423
27.8600 9.2702 0.3462
27.8800 9.2769 0.3440
27.9000 9.2836 0.3359
27.9200 9.2903 0.3472
27.9400 9.2970 0.3465
27.9600 9.3036 0.3354
27.9800 9.3102 0.3463
28.0000 9.3168 0.3510
28.0200 9.3235 0.3371
28.0400 9.3302 0.3533
28.0600 9.3369 0.3398
28.0800 9.3436 0.3359
28.1000 9.3502 0.3578
28.1200 9.3569 0.3418
28.1400 9.3636 0.3349
28.1600 9.3702 0.3578
28.1800 9.3768 0.3420
28.2000 9.3835 0.3362
28.2200 9.3902 0.3523
28.2400 9.3969 0.3457
28.2600 9.4036 0.3378
28.2800 9.4103 0.3574
28.3000 9.4170 0.3443
28.3200 9.4237 0.3412
28.3400 9.4303 0.3536
28.3600 9.4369 0.3433
28.3800 9.4435 0.3472
28.4000 9.4502 0.3517
28.4200 9.4569 0.3414
28.4400 9.4636 0.3479
28.4600 9.4703 0.3483
28.4800 9.4770 0.3439
28.5000 9.4836 0.3495
28.5200 9.4902 0.3507
28.5400 9.4968 0.3420
28.5600 9.5035 0.3516
28.5800 9.5102 0.3501
28.6000 9.5169 0.3424
28.6200 9.5236 0.3506
28.6400 9.5302 0.3495
28.6600 9.5369 0.3483
28.6800 9.5436 0.3475
28.7000 9.5502 0.3517
28.7200 9.5568 0.3464
28.7400 9.5635 0.3500
28.7600 9.5702 0.3524
28.7800 9.5769 0.3455
28.8000 9.5836 0.3452
28.8200 9.5903 0.3586
28.8400 9.5970 0.3428
28.8600 9.6036 0.3445
28.8800 9.6103 0.3570
28.9000 9.6169 0.3487
28.9200 9.6235 0.3451
28.9400 9.6302 0.3538
28.9600 9.6369 0.3506
28.9800 9.6436 0.3451
29.0000 9.6503 0.3576
29.0200 9.6570 0.3524
29.0400 9.6636 0.3463
29.0600 9.6702 0.3547
29.0800 9.6769 0.3519
29.1000 9.6835 0.3491
29.1200 9.6902 0.3591
29.1400 9.6969 0.3480
29.1600 9.7036 0.3491
29.1800 9.7103 0.3561
29.2000 9.7170 0.3550
29.2200 9.7237 0.3462
29.2400 9.7303 0.3530
29.2600 9.7369 0.3583
29.2800 9.7435 0.3490
29.3000 9.7502 0.3489
29.3200 9.7569 0.3588
29.3400 9.7636 0.3465
29.3600 9.7703 0.3559
29.3800 9.7770 0.3591
29.4000 9.7836 0.3437
29.4200 9.7902 0.3538
29.4400 9.7968 0.3598
29.4600 9.8035 0.3455
29.4800 9.8102 0.3570
29.5000 9.8169 0.3636
29.5200 9.8236 0.3388
29.5400 9.8303 0.3560
29.5600 9.8369 0.3637
29.5800 9.8436 0.3452
29.6000 9.8502 0.3624
29.6200 9.8569 0.3612
29.6400 9.8635 0.3472
29.6600 9.8702 0.3647
29.6800 9.8769 0.3517
29.7000 9.8836 0.3467
29.7200 9.8903 0.3678
29.7400 9.8970 0.3531
29.7600 9.9037 0.3441
29.7800 9.9103 0.3726
29.8000 9.9169 0.3562
29.8200 9.9235 0.3438
29.8400 9.9302 0.3645
29.8600 9.9369 0.3611
29.8800 9.9436 0.3541
29.9000 9.9503 0.3576
29.9200 9.9570 0.3529
29.9400 9.9637 0.3577
29.9600 9.9703 0.3606
29.9800 9.9769 0.3499
30.0000 9.9835 0.3620
30.0200 9.9902 0.3621
30.0400 9.9969 0.3491
30.0600 10.0036 0.3588
30.0800 10.0103 0.3637
30.1000 10.0169 0.3573
30.1200 10.0236 0.3568
30.1400 10.0302 0.3540
30.1600 10.0368 0.3664
30.1800 10.0435 0.3629
30.2000 10.0502 0.3547
30.2200 10.0569 0.3579
30.2400 10.0636 0.3600
30.2600 10.0702 0.3599
30.2800 10.0769 0.3613
30.3000 10.0836 0.3563
30.3200 10.0903 0.3613
30.3400 10.0969 0.3629
30.3600 10.1035 0.3508
30.3800 10.1102 0.3650
30.4000 10.1169 0.3682
30.4200 10.1236 0.3496
30.4400 10.1303 0.3638
30.4600 10.1370 0.3664
30.4800 10.1437 0.3553
30.5000 10.1503 0.3623
30.5200 10.1569 0.3638
30.5400 10.1635 0.3624
30.5600 10.1702 0.3629
30.5800 10.1769 0.3583
30.6000 10.1837 0.3577
30.6200 10.1903 0.3703
30.6400 10.1970 0.3541
30.6600 10.2036 0.3584
30.6800 10.2102 0.3722
30.7000 10.2169 0.3601
30.7200 10.2235 0.3588
30.7400 10.2302 0.3701
30.7600 10.2369 0.3615
30.7800 10.2436 0.3621
30.8000 10.2502 0.3610
30.8200 10.2569 0.3634
30.8400 10.2636 0.3658
30.8600 10.2703 0.3596
30.8800 10.2769 0.3576
30.9000 10.2835 0.3726
30.9200 10.2901 0.3617
30.9400 10.2969 0.3563
30.9600 10.3036 0.3686
30.9800 10.3103 0.3623
31.0000 10.3170 0.3613
31.0200 10.3236 0.3665
31.0400 10.3303 0.3631
31.0600 10.3369 0.3609
31.0800 10.3435 0.3685
31.1000 10.3502 0.3628
31.1200 10.3569 0.3653
31.1400 10.3636 0.3712
31.1600 10.3703 0.3631
31.1800 10.3770 0.3629
31.2000 10.3837 0.3708
31.2200 10.3903 0.3625
31.2400 10.3969 0.3646
31.2600 10.4035 0.3717
31.2800 10.4102 0.3665
31.3000 10.4169 0.3571
31.3200 10.4236 0.3661
31.3400 10.4303 0.3732
31.3600 10.4370 0.3627
31.3800 10.4437 0.3627
31.4000 10.4503 0.3729
31.4200 10.4569 0.3644
31.4400 10.4635 0.3675
31.4600 10.4702 0.3688
31.4800 10.4769 0.3683
31.5000 10.4836 0.3734
31.5200 10.4903 0.3651
31.5400 10.4970 0.3613
31.5600 10.5036 0.3734
31.5800 10.5103 0.3702
31.6000 10.5169 0.3579
31.6200 10.5235 0.3721
31.6400 10.5301 0.3694
31.6600 10.5368 0.3614
31.6800 10.5435 0.3719
31.7000 10.5502 0.3704
31.7200 10.5569 0.3653
31.7400 10.5636 0.3692
31.7600 10.5703 0.3681
31.7800 10.5769 0.3726
31.8000 10.5835 0.3706
31.8200 10.5902 0.3613
31.8400 10.5969 0.3734
31.8600 10.6036 0.3790
31.8800 10.6103 0.3557
31.9000 10.6170 0.3741
31.9200 10.6237 0.3791
31.9400 10.6303 0.3600
31.9600 10.6369 0.3741
31.9800 10.6435 0.3788
32.0000 10.6502 0.3626
32.0200 10.6569 0.3761
32.0400 10.6636 0.3750
32.0600 10.6703 0.3643
32.0800 10.6770 0.3734
32.1000 10.6836 0.3697
32.1200 10.6903 0.3705
32.1400 10.6969 0.3745
32.1600 10.7035 0.3688
32.1800 10.7102 0.3721
32.2000 10.7169 0.3791
32.2200 10.7236 0.3648
32.2400 10.7303 0.3657
32.2600 10.7369 0.3792
32.2800 10.7436 0.3719
32.3000 10.7503 0.3651
32.3200 10.7569 0.3782
32.3400 10.7635 0.3719
32.3600 10.7702 0.3688
32.3800 10.7769 0.3677
32.4000 10.7836 0.3804
32.4200 10.7902 0.3692
32.4400 10.7969 0.3715
32.4600 10.8036 0.3808
32.4800 10.8102 0.3673
32.5000 10.8169 0.3723
32.5200 10.8235 0.3826
32.5400 10.8302 0.3680
32.5600 10.8369 0.3713
32.5800 10.8436 0.3787
32.6000 10.8503 0.3690
32.6200 10.8570 0.3786
32.6400 10.8637 0.3773
32.6600 10.8703 0.3658
32.6800 10.8769 0.3795
32.7000 10.8835 0.3783
32.7200 10.8902 0.3677
32.7400 10.8969 0.3831
32.7600 10.9037 0.3751
32.7800 10.9103 0.3711
32.8000 10.9170 0.3853
32.8200 10.9236 0.3743
32.8400 10.9303 0.3689
32.8600 10.9369 0.3818
32.8800 10.9435 0.3725
32.9000 10.9502 0.3776
32.9200 10.9569 0.3783
32.9400 10.9636 0.3756
32.9600 10.9702 0.3762
32.9800 10.9769 0.3783
33.0000 10.9836 0.3755
33.0200 10.9903 0.3765
33.0400 10.9969 0.3751
33.0600 11.0035 0.3801
33.0800 11.0101 0.3776
33.1000 11.0169 0.3734
33.1200 11.0236 0.3839
33.1400 11.0303 0.3749
33.1600 11.0369 0.3725
33.1800 11.0436 0.3807
33.2000 11.0503 0.3753
33.2200 11.0569 0.3765
33.2400 11.0635 0.3856
33.2600 11.0702 0.3704
33.2800 11.0769 0.3819
33.3000 11.0836 0.3822
33.3200 11.0903 0.3739
33.3400 11.0970 0.3831
33.3600 11.1037 0.3808
33.3800 11.1103 0.3690
33.4000 11.1169 0.3900
33.4200 11.1235 0.3801
33.4400 11.1302 0.3727
33.4600 11.1369 0.3854
33.4800 11.1436 0.3798
33.5000 11.1503 0.3717
33.5200 11.1570 0.3848
33.5400 11.1636 0.3822
33.5600 11.1703 0.3817
33.5800 11.1769 0.3776
33.6000 11.1835 0.3784
33.6200 11.1902 0.3872
33.6400 11.1969 0.3822
33.6600 11.2036 0.3781
33.6800 11.2103 0.3814
33.7000 11.2170 0.3817
33.7200 11.2236 0.3831
33.7400 11.2303 0.3829
33.7600 11.2369 0.3765
33.7800 11.2435 0.3892
33.8000 11.2501 0.3857
33.8200 11.2568 0.3797
33.8400 11.2635 0.3857
33.8600 11.2702 0.3836
33.8800 11.2769 0.3763
33.9000 11.2836 0.3840
33.9200 11.2903 0.3863
33.9400 11.2969 0.3804
33.9600 11.3035 0.3875
33.9800 11.3102 0.3828
34.0000 11.3169 0.3728
34.0200 11.3236 0.3889
34.0400 11.3303 0.3867
34.0600 11.3370 0.3798
34.0800 11.3437 0.3906
34.1000 11.3504 0.3824
34.1200 11.3570 0.3822
34.1400 11.3635 0.3906
34.1600 11.3702 0.3829
34.1800 11.3769 0.3825
34.2000 11.3836 0.3899
34.2200 11.3903 0.3791
34.2400 11.3970 0.3836
34.2600 11.4037 0.3952
34.2800 11.4103 0.3782
34.3000 11.4169 0.3775
34.3200 11.4235 0.3965
34.3400 11.4302 0.3852
34.3600 11.4369 0.3860
34.3800 11.4436 0.3848
34.4000 11.4502 0.3840
34.4200 11.4569 0.3871
34.4400 11.4636 0.3877
34.4600 11.4703 0.3820
34.4800 11.4769 0.3900
34.5000 11.4835 0.3881
34.5200 11.4901 0.3827
34.5400 11.4968 0.3905
34.5600 11.5035 0.3893
34.5800 11.5102 0.3841
34.6000 11.5169 0.3903
34.6200 11.5236 0.3888
34.6400 11.5303 0.3896
34.6600 11.5369 0.3840
34.6800 11.5435 0.3870
34.7000 11.5502 0.3945
34.7200 11.5569 0.3855
34.7400 11.5636 0.3863
34.7600 11.5703 0.3898
34.7800 11.5770 0.3887
34.8000 11.5836 0.3811
34.8200 11.5903 0.3935
34.8400 11.5970 0.3854
34.8600 11.6036 0.3872
34.8800 11.6102 0.3928
34.9000 11.6169 0.3896
34.9200 11.6236 0.3855
34.9400 11.6303 0.3943
34.9600 11.6370 0.3886
34.9800 11.6437 0.3862
35.0000 11.6503 0.3903
35.0200 11.6570 0.3872
35.0400 11.6635 0.3866
35.0600 11.6701 0.3979
35.0800 11.6768 0.3829
35.1000 11.6835 0.3882
35.1200 11.6902 0.3970
35.1400 11.6969 0.3845
35.1600 11.7036 0.3927
35.1800 11.7103 0.3968
35.2000 11.7169 0.3827
35.2200 11.7235 0.3934
35.2400 11.7301 0.3948
35.2600 11.7368 0.3872
35.2800 11.7435 0.3969
35.3000 11.7502 0.3896
35.3200 11.7569 0.3884
35.3400 11.7636 0.3971
35.3600 11.7703 0.3882
35.3800 11.7769 0.3865
35.4000 11.7836 0.4009
35.4200 11.7902 0.3851
35.4400 11.7969 0.3955
35.4600 11.8036 0.3998
35.4800 11.8103 0.3848
35.5000 11.8169 0.3939
35.5200 11.8236 0.3926
35.5400 11.8303 0.3868
35.5600 11.8370 0.3968
35.5800 11.8436 0.3907
35.6000 11.8502 0.3943
35.6200 11.8569 0.3961
35.6400 11.8636 0.3905
35.6600 11.8703 0.3903
35.6800 11.8770 0.3985
35.7000 11.8837 0.3931
35.7200 11.8903 0.3911
35.7400 11.8969 0.3986
35.7600 11.9036 0.3900
35.7800 11.9102 0.3975
35.8000 11.9169 0.3929
35.8200 11.9236 0.3947
35.8400 11.9303 0.3984
35.8600 11.9369 0.3922
35.8800 11.9436 0.3912
35.9000 11.9503 0.3962
35.9200 11.9569 0.3914
35.9400 11.9635 0.3986
35.9600 11.9701 0.3931
35.9800 11.9768 0.3967
36.0000 11.9835 0.4020
36.0200 11.9902 0.3923
36.0400 11.9969 0.3926
36.0600 12.0036 0.4051
36.0800 12.0103 0.3887
36.1000 12.0169 0.3993
36.1200 12.0235 0.4010
36.1400 12.0302 0.3875
36.1600 12.0369 0.4098
36.1800 12.0436 0.3988
36.2000 12.0503 0.3860
36.2200 12.0570 0.4074
36.2400 12.0637 0.3973
36.2600 12.0703 0.3901
36.2800 12.0770 0.4066
36.3000 12.0836 0.3967
36.3200 12.0902 0.3958
36.3400 12.0969 0.4046
36.3600 12.1036 0.3899
36.3800 12.1103 0.3948
36.4000 12.1170 0.4097
36.4200 12.1236 0.3843
36.4400 12.1303 0.4034
36.4600 12.1369 0.4038
36.4800 12.1435 0.3852
36.5000 12.1501 0.4043
36.5200 12.1568 0.4061
36.5400 12.1635 0.3847
36.5600 12.1702 0.4082
36.5800 12.1769 0.4016
36.6000 12.1836 0.3837
36.6200 12.1903 0.4132
36.6400 12.1969 0.4019
36.6600 12.2036 0.3830
36.6800 12.2102 0.4120
36.7000 12.2168 0.4001
36.7200 12.2235 0.3931
36.7400 12.2302 0.4114
36.7600 12.2369 0.3952
36.7800 12.2436 0.3964
36.8000 12.2503 0.4108
36.8200 12.2569 0.3954
36.8400 12.2635 0.3950
36.8600 12.2702 0.4107
36.8800 12.2768 0.3959
36.9000 12.2836 0.3981
36.9200 12.2903 0.4096
36.9400 12.2970 0.4007
36.9600 12.3036 0.3963
36.9800 12.3103 0.4097
37.0000 12.3170 0.3994
37.0200 12.3236 0.3979
37.0400 12.3302 0.4068
37.0600 12.3369 0.4047
37.0800 12.3436 0.3986
37.1000 12.3503 0.4043
37.1200 12.3570 0.4018
37.1400 12.3637 0.4001
37.1600 12.3704 0.4060
37.1800 12.3770 0.4017
37.2000 12.3836 0.3979
37.2200 12.3902 0.4130
37.2400 12.3968 0.4047
37.2600 12.4035 0.3982
37.2800 12.4102 0.4112
37.3000 12.4169 0.4002
37.3200 12.4236 0.4029
37.3400 12.4303 0.4111
37.3600 12.4369 0.4013
37.3800 12.4436 0.3996
37.4000 12.4502 0.4157
37.4200 12.4568 0.3957
37.4400 12.4635 0.4017
37.4600 12.4702 0.4166
37.4800 12.4769 0.4012
37.5000 12.4836 0.3981
37.5200 12.4903 0.4125
37.5400 12.4969 0.4012
37.5600 12.5036 0.4059
37.5800 12.5102 0.4111
37.6000 12.5168 0.4006
37.6200 12.5235 0.4050
37.6400 12.5303 0.4109
37.6600 12.5370 0.3963
37.6800 12.5437 0.4059
37.7000 12.5503 0.4089
37.7200 12.5570 0.4033
37.7400 12.5636 0.4100
37.7600 12.5702 0.4052
37.7800 12.5768 0.4065
37.8000 12.5835 0.4108
37.8200 12.5903 0.4080
37.8400 12.5970 0.4007
37.8600 12.6036 0.4105
37.8800 12.6103 0.4117
37.9000 12.6170 0.4007
37.9200 12.6236 0.4067
37.9400 12.6302 0.4165
37.9600 12.6368 0.4034
37.9800 12.6436 0.4053
38.0000 12.6503 0.4067
38.0200 12.6569 0.4070
38.0400 12.6636 0.4086
38.0600 12.6703 0.4130
38.0800 12.6770 0.4047
38.1000 12.6836 0.4049
38.1200 12.6902 0.4096
38.1400 12.6968 0.4131
38.1600 12.7035 0.4064
38.1800 12.7102 0.4076
38.2000 12.7169 0.4136
38.2200 12.7236 0.4084
38.2400 12.7302 0.4018
38.2600 12.7369 0.4125
38.2800 12.7435 0.4098
38.3000 12.7501 0.4079
38.3200 12.7568 0.4158
38.3400 12.7635 0.4029
38.3600 12.7703 0.4096
38.3800 12.7770 0.4151
38.4000 12.7836 0.4070
38.4200 12.7903 0.4084
38.4400 12.7970 0.4098
38.4600 12.8036 0.4064
38.4800 12.8102 0.4142
38.5000 12.8169 0.4117
38.5200 12.8236 0.4073
38.5400 12.8303 0.4165
38.5600 12.8370 0.4067
38.5800 12.8436 0.4069
38.6000 12.8503 0.4214
38.6200 12.8570 0.4033
38.6400 12.8636 0.4071
38.6600 12.8702 0.4174
38.6800 12.8768 0.4082
38.7000 12.8835 0.4168
38.7200 12.8902 0.4100
38.7400 12.8969 0.4092
38.7600 12.9036 0.4169
38.7800 12.9103 0.4143
38.8000 12.9169 0.4017
38.8200 12.9235 0.4194
38.8400 12.9302 0.4147
38.8600 12.9368 0.4045
38.8800 12.9435 0.4185
38.9000 12.9503 0.4102
38.9200 12.9569 0.4052
38.9400 12.9636 0.4227
38.9600 12.9702 0.4072
38.9800 12.9769 0.4124
39.0000 12.9836 0.4160
39.0200 12.9902 0.4116
39.0400 12.9969 0.4110
39.0600 13.0036 0.4170
39.0800 13.0102 0.4057
39.1000 13.0169 0.4141
39.1200 13.0236 0.4212
39.1400 13.0303 0.4078
39.1600 13.0370 0.4129
39.1800 13.0436 0.4193
39.2000 13.0502 0.4082
39.2200 13.0568 0.4161
39.2400 13.0635 0.4254
39.2600 13.0703 0.4093
39.2800 13.0770 0.4107
39.3000 13.0836 0.4191
39.3200 13.0903 0.4115
39.3400 13.0970 0.4158
39.3600 13.1036 0.4179
39.3800 13.1102 0.4093
39.4000 13.1168 0.4189
39.4200 13.1235 0.4157
39.4400 13.1302 0.4123
39.4600 13.1369 0.4160
39.4800 13.1436 0.4207
39.5000 13.1503 0.4140
39.5200 13.1569 0.4173
39.5400 13.1636 0.4143
39.5600 13.1702 0.4212
39.5800 13.1768 0.4178
39.6000 13.1835 0.4171
39.6200 13.1902 0.4180
39.6400 13.1969 0.4128
39.6600 13.2036 0.4152
39.6800 13.2103 0.4220
39.7000 13.2170 0.4145
39.7200 13.2236 0.4155
39.7400 13.2302 0.4248
39.7600 13.2368 0.4100
39.7800 13.2435 0.4206
39.8000 13.2502 0.4241
39.8200 13.2570 0.4081
39.8400 13.2636 0.4192
39.8600 13.2703 0.4266
39.8800 13.2770 0.4111
39.9000 13.2836 0.4195
39.9200 13.2902 0.4264
39.9400 13.2969 0.4160
39.9600 13.3035 0.4200
39.9800 13.3103 0.4224
40.0000 13.3170 0.4066
40.0200 13.3236 0.4310
40.0400 13.3303 0.4218
40.0600 13.3370 0.4099
40.0800 13.3436 0.4260
40.1000 13.3502 0.4190
40.1200 13.3568 0.4176
40.1400 13.3635 0.4237
40.1600 13.3702 0.4136
40.1800 13.3769 0.4198
40.2000 13.3836 0.4246
40.2200 13.3903 0.4187
40.2400 13.3970 0.4184
40.2600 13.4036 0.4249
40.2800 13.4102 0.4193
40.3000 13.4168 0.4171
40.3200 13.4235 0.4242
40.3400 13.4302 0.4170
40.3600 13.4369 0.4224
40.3800 13.4436 0.4203
40.4000 13.4502 0.4213
40.4200 13.4569 0.4217
40.4400 13.4636 0.4210
40.4600 13.4702 0.4223
40.4800 13.4768 0.4268
40.5000 13.4835 0.4221
40.5200 13.4902 0.4200
40.5400 13.4969 0.4210
40.5600 13.5036 0.4280
40.5800 13.5103 0.4222
40.6000 13.5170 0.4186
40.6200 13.5237 0.4275
40.6400 13.5303 0.4253
40.6600 13.5369 0.4173
40.6800 13.5435 0.4285
40.7000 13.5502 0.4232
40.7200 13.5569 0.4255
40.7400 13.5637 0.4273
40.7600 13.5703 0.4187
40.7800 13.5770 0.4225
40.8000 13.5836 0.4280
40.8200 13.5902 0.4212
40.8400 13.5968 0.4241
40.8600 13.6035 0.4312
40.8800 13.6102 0.4178
40.9000 13.6169 0.4272
40.9200 13.6236 0.4315
40.9400 13.6303 0.4198
40.9600 13.6370 0.4221
40.9800 13.6436 0.4287
41.0000 13.6502 0.4211
41.0200 13.6568 0.4277
41.0400 13.6635 0.4310
41.0600 13.6702 0.4202
41.0800 13.6769 0.4230
41.1000 13.6836 0.4325
41.1200 13.6902 0.4211
41.1400 13.6969 0.4299
41.1600 13.7036 0.4270
41.1800 13.7103 0.4206
41.2000 13.7169 0.4272
41.2200 13.7235 0.4313
41.2400 13.7302 0.4216
41.2600 13.7369 0.4315
41.2800 13.7436 0.4298
41.3000 13.7503 0.4181
41.3200 13.7570 0.4278
41.3400 13.7636 0.4266
41.3600 13.7702 0.4224
41.3800 13.7769 0.4330
41.4000 13.7835 0.4271
41.4200 13.7902 0.4209
41.4400 13.7969 0.4358
41.4600 13.8036 0.4267
41.4800 13.8103 0.4229
41.5000 13.8170 0.4305
41.5200 13.8236 0.4292
41.5400 13.8302 0.4278
41.5600 13.8369 0.4320
41.5800 13.8435 0.4290
41.6000 13.8502 0.4241
41.6200 13.8569 0.4313
41.6400 13.8636 0.4288
41.6600 13.8703 0.4197
41.6800 13.8770 0.4341
41.7000 13.8836 0.4303
41.7200 13.8902 0.4261
41.7400 13.8968 0.4331
41.7600 13.9035 0.4351
41.7800 13.9102 0.4210
41.8000 13.9169 0.4351
41.8200 13.9236 0.4354
41.8400 13.9303 0.4186
41.8600 13.9369 0.4350
41.8800 13.9436 0.4320
41.9000 13.9502 0.4221
41.9200 13.9568 0.4385
41.9400 13.9635 0.4390
41.9600 13.9703 0.4179
41.9800 13.9770 0.4363
42.0000 13.9837 0.4368
42.0200 13.9903 0.4234
42.0400 13.9970 0.4387
42.0600 14.0036 0.4319
42.0800 14.0103 0.4205
42.1000 14.0169 0.4393
42.1200 14.0235 0.4331
42.1400 14.0302 0.4291
42.1600 14.0369 0.4340
42.1800 14.0436 0.4257
42.2000 14.0503 0.4293
42.2200 14.0570 0.4445
42.2400 14.0636 0.4248
42.2600 14.0703 0.4286
42.2800 14.0769 0.4393
42.3000 14.0835 0.4297
42.3200 14.0902 0.4342
42.3400 14.0969 0.4327
42.3600 14.1036 0.4302
42.3800 14.1103 0.4385
42.4000 14.1170 0.4315
42.4200 14.1236 0.4279
42.4400 14.1302 0.4386
42.4600 14.1368 0.4325
42.4800 14.1434 0.4348
42.5000 14.1502 0.4371
42.5200 14.1569 0.4273
42.5400 14.1636 0.4350
42.5600 14.1702 0.4353
42.5800 14.1769 0.4308
42.6000 14.1836 0.4459
42.6200 14.1902 0.4338
42.6400 14.1969 0.4280
42.6600 14.2035 0.4386
42.6800 14.2102 0.4320
42.7000 14.2169 0.4311
42.7200 14.2236 0.4432
42.7400 14.2303 0.4315
42.7600 14.2370 0.4329
42.7800 14.2437 0.4441
42.8000 14.2503 0.4276
42.8200 14.2569 0.4331
42.8400 14.2635 0.4485
42.8600 14.2702 0.4297
42.8800 14.2769 0.4347
42.9000 14.2836 0.4448
42.9200 14.2903 0.4264
42.9400 14.2970 0.4390
42.9600 14.3036 0.4416
42.9800 14.3102 0.4259
43.0000 14.3168 0.4398
43.0200 14.3235 0.4445
43.0400 14.3302 0.4249
43.0600 14.3369 0.4371
43.0800 14.3436 0.4405
43.1000 14.3502 0.4282
43.1200 14.3569 0.4447
43.1400 14.3636 0.4358
43.1600 14.3702 0.4278
43.1800 14.3768 0.4484
43.2000 14.3835 0.4382
43.2200 14.3902 0.4297
43.2400 14.3969 0.4414
43.2600 14.4036 0.4408
43.2800 14.4103 0.4288
43.3000 14.4170 0.4459
43.3200 14.4237 0.4387
43.3400 14.4303 0.4303
43.3600 14.4369 0.4486
43.3800 14.4435 0.4380
43.4000 14.4502 0.4348
43.4200 14.4569 0.4489
43.4400 14.4636 0.4387
43.4600 14.4703 0.4357
43.4800 14.4770 0.4441
43.5000 14.4836 0.4389
43.5200 14.4903 0.4366
43.5400 14.4968 0.4438
43.5600 14.5035 0.4397
43.5800 14.5102 0.4402
43.6000 14.5169 0.4450
43.6200 14.5236 0.4348
43.6400 14.5303 0.4428
43.6600 14.5370 0.4411
43.6800 14.5437 0.4395
43.7000 14.5503 0.4401
43.7200 14.5569 0.4418
43.7400 14.5635 0.4404
43.7600 14.5702 0.4402
43.7800 14.5769 0.4379
43.8000 14.5836 0.4467
43.8200 14.5903 0.4448
43.8400 14.5970 0.4336
43.8600 14.6037 0.4427
43.8800 14.6103 0.4425
43.9000 14.6169 0.4348
43.9200 14.6235 0.4478
43.9400 14.6301 0.4426
43.9600 14.6369 0.4371
43.9800 14.6436 0.4468
44.0000 14.6503 0.4403
44.0200 14.6569 0.4421
44.0400 14.6636 0.4459
44.0600 14.6702 0.4445
44.0800 14.6769 0.4410
44.1000 14.6835 0.4490
44.1200 14.6902 0.4379
44.1400 14.6969 0.4448
44.1600 14.7036 0.4484
44.1800 14.7103 0.4416
44.2000 14.7170 0.4421
44.2200 14.7237 0.4442
44.2400 14.7303 0.4403
44.2600 14.7369 0.4463
44.2800 14.7435 0.4428
44.3000 14.7502 0.4504
44.3200 14.7569 0.4415
44.3400 14.7636 0.4399
44.3600 14.7703 0.4493
44.3800 14.7770 0.4435
44.4000 14.7837 0.4429
44.4200 14.7903 0.4492
44.4400 14.7969 0.4419
44.4600 14.8035 0.4450
44.4800 14.8102 0.4527
44.5000 14.8169 0.4400
44.5200 14.8236 0.4456
44.5400 14.8303 0.4496
44.5600 14.8370 0.4363
44.5800 14.8436 0.4498
44.6000 14.8502 0.4563
44.6200 14.8569 0.4366
44.6400 14.8635 0.4544
44.6600 14.8702 0.4491
44.6800 14.8769 0.4383
44.7000 14.8836 0.4484
44.7200 14.8902 0.4546
44.7400 14.8969 0.4399
44.7600 14.9036 0.4492
44.7800 14.9103 0.4494
44.8000 14.9169 0.4449
44.8200 14.9235 0.4445
44.8400 14.9302 0.4514
44.8600 14.9369 0.4448
44.8800 14.9436 0.4470
44.9000 14.9503 0.4537
44.9200 14.9570 0.4454
44.9400 14.9637 0.4477
44.9600 14.9703 0.4529
44.9800 14.9769 0.4437
45.0000 14.9835 0.4463
45.0200 14.9902 0.4558
45.0400 14.9969 0.4439
45.0600 15.0036 0.4488
45.0800 15.0103 0.4535
45.1000 15.0170 0.4455
45.1200 15.0236 0.4481
45.1400 15.0303 0.4579
45.1600 15.0369 0.4427
45.1800 15.0435 0.4527
45.2000 15.0502 0.4537
45.2200 15.0569 0.4450
45.2400 15.0636 0.4513
45.2600 15.0702 0.4523
45.2800 15.0769 0.4461
45.3000 15.0836 0.4502
45.3200 15.0903 0.4510
45.3400 15.0969 0.4456
45.3600 15.1035 0.4477
45.3800 15.1102 0.4571
45.4000 15.1169 0.4518
45.4200 15.1236 0.4442
45.4400 15.1303 0.4543
45.4600 15.1370 0.4564
45.4800 15.1436 0.4479
45.5000 15.1503 0.4532
45.5200 15.1569 0.4520
45.5400 15.1635 0.4501
45.5600 15.1702 0.4561
45.5800 15.1769 0.4486
45.6000 15.1836 0.4477
45.6200 15.1903 0.4559
45.6400 15.1970 0.4504
45.6600 15.2037 0.4498
45.6800 15.2103 0.4549
45.7000 15.2169 0.4515
45.7200 15.2235 0.4506
45.7400 15.2302 0.4527
45.7600 15.2369 0.4542
45.7800 15.2436 0.4523
45.8000 15.2503 0.4584
45.8200 15.2570 0.4535
45.8400 15.2637 0.4521
45.8600 15.2703 0.4535
45.8800 15.2769 0.4519
45.9000 15.2835 0.4549
45.9200 15.2902 0.4564
45.9400 15.2969 0.4511
45.9600 15.3036 0.4540
45.9800 15.3103 0.4571
46.0000 15.3169 0.4524
46.0200 15.3236 0.4551
46.0400 15.3303 0.4566
46.0600 15.3369 0.4531
46.0800 15.3435 0.4540
46.1000 15.3501 0.4590
46.1200 15.3569 0.4552
46.1400 15.3636 0.4558
46.1600 15.3702 0.4534
46.1800 15.3769 0.4552
46.2000 15.3836 0.4504
46.2200 15.3902 0.4603
46.2400 15.3969 0.4537
46.2600 15.4035 0.4512
46.2800 15.4102 0.4568
46.3000 15.4169 0.4583
46.3200 15.4236 0.4448
46.3400 15.4303 0.4610
46.3600 15.4370 0.4593
46.3800 15.4437 0.4464
46.4000 15.4503 0.4615
46.4200 15.4569 0.4614
46.4400 15.4635 0.4472
46.4600 15.4702 0.4647
46.4800 15.4769 0.4547
46.5000 15.4836 0.4518
46.5200 15.4903 0.4677
46.5400 15.4970 0.4558
46.5600 15.5037 0.4535
46.5800 15.5103 0.4607
46.6000 15.5169 0.4596
46.6200 15.5235 0.4527
46.6400 15.5302 0.4604
46.6600 15.5369 0.4594
46.6800 15.5436 0.4539
46.7000 15.5503 0.4588
46.7200 15.5569 0.4610
46.7400 15.5636 0.4541
46.7600 15.5703 0.4618
46.7800 15.5769 0.4588
46.8000 15.5835 0.4562
46.8200 15.5902 0.4602
46.8400 15.5968 0.4630
46.8600 15.6035 0.4549
46.8800 15.6102 0.4648
46.9000 15.6169 0.4606
46.9200 15.6236 0.4538
46.9400 15.6303 0.4639
46.9600 15.6369 0.4573
46.9800 15.6435 0.4556
47.0000 15.6502 0.4684
47.0200 15.6569 0.4578
47.0400 15.6636 0.4525
47.0600 15.6703 0.4645
47.0800 15.6770 0.4584
47.1000 15.6837 0.4597
47.1200 15.6903 0.4641
47.1400 15.6969 0.4594
47.1600 15.7035 0.4607
47.1800 15.7102 0.4643
47.2000 15.7169 0.4588
47.2200 15.7236 0.4656
47.2400 15.7303 0.4609
47.2600 15.7370 0.4602
47.2800 15.7436 0.4630
47.3000 15.7503 0.4596
47.3200 15.7569 0.4658
47.3400 15.7635 0.4662
47.3600 15.7702 0.4550
47.3800 15.7768 0.4689
47.4000 15.7835 0.4612
47.4200 15.7902 0.4580
47.4400 15.7969 0.4695
47.4600 15.8036 0.4625
47.4800 15.8103 0.4563
47.5000 15.8169 0.4683
47.5200 15.8235 0.4582
47.5400 15.8301 0.4660
47.5600 15.8368 0.4686
47.5800 15.8436 0.4537
47.6000 15.8503 0.4689
47.6200 15.8569 0.4660
47.6400 15.8636 0.4585
47.6600 15.8703 0.4649
47.6800 15.8769 0.4661
47.7000 15.8835 0.4608
47.7200 15.8902 0.4674
47.7400 15.8969 0.4633
47.7600 15.9036 0.4609
47.7800 15.9103 0.4692
47.8000 15.9169 0.4672
47.8200 15.9236 0.4597
47.8400 15.9303 0.4697
47.8600 15.9369 0.4588
47.8800 15.9435 0.4627
47.9000 15.9502 0.4728
47.9200 15.9568 0.4590
47.9400 15.9635 0.4688
47.9600 15.9703 0.4690
47.9800 15.9770 0.4521
48.0000 15.9837 0.4737
48.0200 15.9903 0.4728
48.0400 15.9969 0.4521
48.0600 16.0035 0.4688
48.0800 16.0102 0.4771
48.1000 16.0169 0.4561
48.1200 16.0236 0.4682
48.1400 16.0303 0.4710
48.1600 16.0370 0.4537
48.1800 16.0436 0.4775
48.2000 16.0503 0.4693
48.2200 16.0569 0.4559
48.2400 16.0635 0.4711
48.2600 16.0701 0.4714
48.2800 16.0768 0.4595
48.3000 16.0835 0.4834
48.3200 16.0902 0.4653
48.3400 16.0969 0.4568
48.3600 16.1036 0.4824
48.3800 16.1103 0.4648
48.4000 16.1169 0.4565
48.4200 16.1235 0.4849
48.4400 16.1302 0.4591
48.4600 16.1368 0.4639
48.4800 16.1436 0.4875
48.5000 16.1503 0.4586
48.5200 16.1570 0.4625
48.5400 16.1637 0.4813
48.5600 16.1704 0.4613
48.5800 16.1770 0.4686
48.6000 16.1836 0.4781
48.6200 16.1902 0.4624
48.6400 16.1969 0.4730
48.6600 16.2036 0.4800
48.6800 16.2103 0.4595
48.7000 16.2170 0.4655
48.7200 16.2236 0.4858
48.7400 16.2303 0.4598
48.7600 16.2369 0.4689
48.7800 16.2435 0.4829
48.8000 16.2502 0.4622
48.8200 16.2569 0.4654
48.8400 16.2636 0.4892
48.8600 16.2702 0.4561
48.8800 16.2769 0.4722
48.9000 16.2836 0.4825
48.9200 16.2903 0.4558
48.9400 16.2969 0.4754
48.9600 16.3035 0.4856
48.9800 16.3101 0.4555
49.0000 16.3168 0.4792
49.0200 16.3235 0.4784
49.0400 16.3302 0.4593
49.0600 16.3369 0.4823
49.0800 16.3436 0.4690
49.1000 16.3503 0.4659
49.1200 16.3569 0.4864
49.1400 16.3635 0.4660
49.1600 16.3702 0.4655
49.1800 16.3769 0.4872
49.2000 16.3836 0.4691
49.2200 16.3903 0.4653
49.2400 16.3970 0.4823
49.2600 16.4036 0.4730
49.2800 16.4103 0.4634
49.3000 16.4169 0.4816
49.3200 16.4236 0.4727
49.3400 16.4302 0.4714
49.3600 16.4369 0.4739
49.3800 16.4436 0.4785
49.4000 16.4503 0.4675
49.4200 16.4570 0.4759
49.4400 16.4636 0.4794
49.4600 16.4703 0.4632
49.4800 16.4770 0.4767
49.5000 16.4836 0.4839
49.5200 16.4901 0.4641
49.5400 16.4968 0.4753
49.5600 16.5035 0.4829
49.5800 16.5102 0.4643
49.6000 16.5169 0.4821
49.6200 16.5236 0.4801
49.6400 16.5303 0.4619
49.6600 16.5369 0.4839
49.6800 16.5435 0.4781
49.7000 16.5501 0.4619
49.7200 16.5568 0.4931
49.7400 16.5635 0.4767
49.7600 16.5702 0.4571
49.7800 16.5769 0.4882
49.8000 16.5836 0.4863
49.8200 16.5903 0.4593
49.8400 16.5969 0.4890
49.8600 16.6036 0.4788
49.8800 16.6102 0.4595
49.9000 16.6169 0.4831
49.9200 16.6236 0.4869
49.9400 16.6303 0.4670
49.9600 16.6369 0.4786
49.9800 16.6436 0.4796
50.0000 16.6503 0.4728
50.0200 16.6570 0.4814
50.0400 16.6636 0.4778
50.0600 16.6702 0.4796
50.0800 16.6769 0.4791
50.1000 16.6836 0.4758
50.1200 16.6903 0.4804
50.1400 16.6970 0.4828
50.1600 16.7037 0.4786
50.1800 16.7103 0.4789
50.2000 16.7169 0.4764
50.2200 16.7236 0.4818
50.2400 16.7302 0.4806
50.2600 16.7369 0.4749
50.2800 16.7436 0.4832
50.3000 16.7503 0.4789
50.3200 16.7569 0.4691
50.3400 16.7636 0.4907
50.3600 16.7703 0.4783
50.3800 16.7769 0.4734
50.4000 16.7836 0.4850
50.4200 16.7901 0.4766
50.4400 16.7968 0.4805
50.4600 16.8035 0.4906
50.4800 16.8102 0.4733
50.5000 16.8169 0.4764
50.5200 16.8236 0.4892
50.5400 16.8303 0.4782
50.5600 16.8369 0.4734
50.5800 16.8436 0.4922
50.6000 16.8502 0.4774
50.6200 16.8568 0.4785
50.6400 16.8636 0.4902
50.6600 16.8703 0.4753
50.6800 16.8770 0.4853
50.7000 16.8837 0.4877
50.7200 16.8903 0.4751
50.7400 16.8970 0.4812
50.7600 16.9036 0.4882
50.7800 16.9102 0.4778
50.8000 16.9169 0.4854
50.8200 16.9236 0.4860
50.8400 16.9303 0.4768
50.8600 16.9370 0.4851
50.8800 16.9436 0.4876
50.9000 16.9503 0.4767
50.9200 16.9570 0.4831
50.9400 16.9636 0.4838
50.9600 16.9702 0.4807
50.9800 16.9768 0.4783
51.0000 16.9835 0.4874
51.0200 16.9902 0.4799
51.0400 16.9969 0.4821
51.0600 17.0036 0.4874
51.0800 17.0103 0.4821
51.1000 17.0169 0.4811
51.1200 17.0236 0.4846
51.1400 17.0302 0.4865
51.1600 17.0368 0.4840
51.1800 17.0435 0.4880
51.2000 17.0502 0.4805
51.2200 17.0569 0.4842
51.2400 17.0636 0.4900
51.2600 17.0703 0.4817
51.2800 17.0769 0.4867
51.3000 17.0836 0.4908
51.3200 17.0902 0.4840
51.3400 17.0969 0.4872
51.3600 17.1036 0.4891
51.3800 17.1103 0.4862
51.4000 17.1170 0.4825
51.4200 17.1236 0.4907
51.4400 17.1303 0.4886
51.4600 17.1370 0.4860
51.4800 17.1436 0.4839
51.5000 17.1502 0.4911
51.5200 17.1569 0.4853
51.5400 17.1635 0.4846
51.5600 17.1702 0.4956
51.5800 17.1770 0.4869
51.6000 17.1837 0.4833
51.6200 17.1903 0.4961
51.6400 17.1970 0.4793
51.6600 17.2036 0.4863
51.6800 17.2102 0.4981
51.7000 17.2168 0.4812
51.7200 17.2235 0.4906
51.7400 17.2302 0.4949
51.7600 17.2369 0.4795
51.7800 17.2436 0.4954
51.8000 17.2503 0.4917
51.8200 17.2569 0.4692
51.8400 17.2636 0.5008
51.8600 17.2702 0.4912
51.8800 17.2768 0.4764
51.9000 17.2835 0.4995
51.9200 17.2902 0.4868
51.9400 17.2969 0.4821
51.9600 17.3036 0.5020
51.9800 17.3103 0.4793
52.0000 17.3170 0.4885
52.0200 17.3236 0.4989
52.0400 17.3302 0.4763
52.0600 17.3369 0.4953
52.0800 17.3435 0.4994
52.1000 17.3503 0.4780
52.1200 17.3570 0.4919
52.1400 17.3636 0.4948
52.1600 17.3703 0.4815
52.1800 17.3770 0.4974
52.2000 17.3836 0.4919
52.2200 17.3902 0.4825
52.2400 17.3968 0.4976
52.2600 17.4035 0.4912
52.2800 17.4103 0.4836
52.3000 17.4170 0.4975
52.3200 17.4236 0.4924
52.3400 17.4303 0.4925
52.3600 17.4370 0.4901
52.3800 17.4436 0.4889
52.4000 17.4502 0.4939
52.4200 17.4569 0.4969
52.4400 17.4635 0.4833
52.4600 17.4702 0.4985
52.4800 17.4769 0.4905
52.5000 17.4836 0.4868
52.5200 17.4903 0.5016
52.5400 17.4970 0.4882
52.5600 17.5036 0.4846
52.5800 17.5102 0.5021
52.6000 17.5168 0.4938
52.6200 17.5235 0.4830
52.6400 17.5302 0.4990
52.6600 17.5369 0.4970
52.6800 17.5436 0.4835
52.7000 17.5503 0.5044
52.7200 17.5569 0.4945
52.7400 17.5635 0.4849
52.7600 17.5702 0.5057
52.7800 17.5768 0.4883
52.8000 17.5835 0.4858
52.8200 17.5903 0.5058
52.8400 17.5970 0.4907
52.8600 17.6036 0.4880
52.8800 17.6103 0.5076
52.9000 17.6170 0.4867
52.9200 17.6236 0.4929
52.9400 17.6303 0.5010
52.9600 17.6369 0.4918
52.9800 17.6436 0.4970
53.0000 17.6503 0.5002
53.0200 17.6569 0.4914
53.0400 17.6636 0.4978
53.0600 17.6703 0.4994
53.0800 17.6770 0.4968
53.1000 17.6836 0.4921
53.1200 17.6902 0.4974
53.1400 17.6968 0.4995
53.1600 17.7035 0.4937
53.1800 17.7102 0.4981
53.2000 17.7169 0.5020
53.2200 17.7236 0.4898
53.2400 17.7303 0.4961
53.2600 17.7369 0.5009
53.2800 17.7436 0.4898
53.3000 17.7502 0.5060
53.3200 17.7568 0.4974
53.3400 17.7635 0.4860
53.3600 17.7702 0.5075
53.3800 17.7769 0.4971
53.4000 17.7836 0.4877
53.4200 17.7903 0.5119
53.4400 17.7969 0.4940
53.4600 17.8036 0.4903
53.4800 17.8102 0.5090
53.5000 17.8169 0.4974
53.5200 17.8235 0.4895
53.5400 17.8302 0.5087
53.5600 17.8369 0.4925
53.5800 17.8436 0.4954
53.6000 17.8503 0.5076
53.6200 17.8570 0.4945
53.6400 17.8636 0.4971
53.6600 17.8702 0.5019
53.6800 17.8768 0.5015
53.7000 17.8835 0.4981
53.7200 17.8902 0.4991
53.7400 17.8970 0.4994
53.7600 17.9036 0.4965
53.7800 17.9103 0.5022
53.8000 17.9170 0.5035
53.8200 17.9236 0.4925
53.8400 17.9302 0.5022
53.8600 17.9368 0.5056
53.8800 17.9435 0.4989
53.9000 17.9502 0.4988
53.9200 17.9569 0.5123
53.9400 17.9636 0.4942
53.9600 17.9703 0.5007
53.9800 17.9769 0.5109
54.0000 17.9836 0.4961
54.0200 17.9902 0.5020
54.0400 17.9968 0.5056
54.0600 18.0035 0.4989
54.0800 18.0102 0.5063
54.1000 18.0169 0.5054
54.1200 18.0236 0.4981
54.1400 18.0303 0.5030
54.1600 18.0370 0.5089
54.1800 18.0436 0.4975
54.2000 18.0502 0.5020
54.2200 18.0568 0.5078
54.2400 18.0635 0.4957
54.2600 18.0702 0.5045
54.2800 18.0769 0.5062
54.3000 18.0836 0.4980
54.3200 18.0903 0.5021
54.3400 18.0970 0.5054
54.3600 18.1036 0.4953
54.3800 18.1102 0.5080
54.4000 18.1168 0.5089
54.4200 18.1235 0.5020
54.4400 18.1302 0.5015
54.4600 18.1369 0.5086
54.4800 18.1436 0.4963
54.5000 18.1503 0.5057
54.5200 18.1570 0.5108
54.5400 18.1636 0.4961
54.5600 18.1702 0.5044
54.5800 18.1768 0.5123
54.6000 18.1835 0.4962
54.6200 18.1902 0.5132
54.6400 18.1969 0.5121
54.6600 18.2036 0.4896
54.6800 18.2103 0.5087
54.7000 18.2170 0.5128
54.7200 18.2236 0.4921
54.7400 18.2302 0.5081
54.7600 18.2368 0.5163
54.7800 18.2435 0.4968
54.8000 18.2502 0.5099
54.8200 18.2569 0.5089
54.8400 18.2636 0.4980
54.8600 18.2703 0.5086
54.8800 18.2769 0.5120
54.9000 18.2836 0.4938
54.9200 18.2902 0.5118
54.9400 18.2969 0.5122
54.9600 18.3035 0.4992
54.9800 18.3102 0.5100
55.0000 18.3169 0.5182
55.0200 18.3236 0.4974
55.0400 18.3303 0.5132
55.0600 18.3370 0.5120
55.0800 18.3437 0.4995
55.1000 18.3503 0.5110
55.1200 18.3569 0.5149
55.1400 18.3635 0.5016
55.1600 18.3702 0.5105
55.1800 18.3769 0.5152
55.2000 18.3836 0.5005
55.2200 18.3903 0.5100
55.2400 18.3970 0.5162
55.2600 18.4036 0.5055
55.2800 18.4102 0.5079
55.3000 18.4168 0.5180
55.3200 18.4235 0.5040
55.3400 18.4302 0.5074
55.3600 18.4369 0.5144
55.3800 18.4436 0.5025
55.4000 18.4503 0.5101
55.4200 18.4569 0.5204
55.4400 18.4636 0.5014
55.4600 18.4702 0.5113
55.4800 18.4768 0.5169
55.5000 18.4835 0.5051
55.5200 18.4902 0.5105
55.5400 18.4969 0.5161
55.5600 18.5036 0.5039
55.5800 18.5102 0.5099
55.6000 18.5169 0.5146
55.6200 18.5236 0.5070
55.6400 18.5303 0.5151
55.6600 18.5369 0.5161
55.6800 18.5435 0.5054
55.7000 18.5502 0.5111
55.7200 18.5569 0.5179
55.7400 18.5636 0.5108
55.7600 18.5703 0.5094
55.7800 18.5770 0.5151
55.8000 18.5836 0.5132
55.8200 18.5902 0.5095
55.8400 18.5969 0.5158
55.8600 18.6035 0.5109
55.8800 18.6102 0.5101
55.9000 18.6169 0.5166
55.9200 18.6236 0.5114
55.9400 18.6303 0.5080
55.9600 18.6370 0.5174
55.9800 18.6437 0.5091
56.0000 18.6503 0.5127
56.0200 18.6569 0.5205
56.0400 18.6635 0.5112
56.0600 18.6702 0.5101
56.0800 18.6769 0.5226
56.1000 18.6836 0.5107
56.1200 18.6903 0.5085
56.1400 18.6970 0.5195
56.1600 18.7036 0.5142
56.1800 18.7102 0.5080
56.2000 18.7168 0.5167
56.2200 18.7235 0.5139
56.2400 18.7302 0.5148
56.2600 18.7369 0.5194
56.2800 18.7436 0.5135
56.3000 18.7502 0.5125
56.3200 18.7569 0.5182
56.3400 18.7636 0.5110
56.3600 18.7703 0.5143
56.3800 18.7769 0.5187
56.4000 18.7835 0.5091
56.4200 18.7902 0.5180
56.4400 18.7970 0.5155
56.4600 18.8037 0.5147
56.4800 18.8103 0.5158
56.5000 18.8170 0.5155
56.5200 18.8236 0.5156
56.5400 18.8303 0.5160
56.5600 18.8369 0.5157
56.5800 18.8435 0.5220
56.6000 18.8502 0.5142
56.6200 18.8569 0.5166
56.6400 18.8636 0.5205
56.6600 18.8703 0.5162
56.6800 18.8770 0.5160
56.7000 18.8837 0.5271
56.7200 18.8903 0.5128
56.7400 18.8969 0.5162
56.7600 18.9035 0.5294
56.7800 18.9102 0.5127
56.8000 18.9169 0.5183
56.8200 18.9236 0.5278
56.8400 18.9303 0.5157
56.8600 18.9370 0.5139
56.8800 18.9437 0.5277
56.9000 18.9503 0.5152
56.9200 18.9568 0.5172
56.9400 18.9634 0.5278
56.9600 18.9701 0.5143
56.9800 18.9769 0.5157
57.0000 18.9836 0.5276
57.0200 18.9903 0.5120
57.0400 18.9969 0.5202
57.0600 19.0036 0.5265
57.0800 19.0102 0.5159
57.1000 19.0168 0.5157
57.1200 19.0235 0.5316
57.1400 19.0302 0.5182
57.1600 19.0369 0.5200
57.1800 19.0436 0.5254
57.2000 19.0503 0.5162
57.2200 19.0570 0.5206
57.2400 19.0637 0.5226
57.2600 19.0703 0.5178
57.2800 19.0769 0.5162
57.3000 19.0835 0.5262
57.3200 19.0902 0.5233
57.3400 19.0969 0.5164
57.3600 19.1036 0.5256
57.3800 19.1103 0.5268
57.4000 19.1170 0.5133
57.4200 19.1236 0.5268
57.4400 19.1303 0.5224
57.4600 19.1369 0.5189
57.4800 19.1435 0.5290
57.5000 19.1502 0.5215
57.5200 19.1569 0.5142
57.5400 19.1636 0.5365
57.5600 19.1702 0.5210
57.5800 19.1769 0.5160
57.6000 19.1836 0.5312
57.6200 19.1902 0.5208
57.6400 19.1968 0.5164
57.6600 19.2035 0.5360
57.6800 19.2102 0.5200
57.7000 19.2169 0.5176
57.7200 19.2236 0.5294
57.7400 19.2303 0.5199
57.7600 19.2370 0.5244
57.7800 19.2436 0.5292
57.8000 19.2503 0.5200
57.8200 19.2569 0.5172
57.8400 19.2635 0.5318
57.8600 19.2702 0.5245
57.8800 19.2769 0.5232
57.9000 19.2836 0.5267
57.9200 19.2903 0.5217
57.9400 19.2970 0.5245
57.9600 19.3036 0.5329
57.9800 19.3103 0.5234
58.0000 19.3169 0.5248
58.0200 19.3235 0.5247
58.0400 19.3302 0.5286
58.0600 19.3369 0.5199
58.0800 19.3436 0.5283
58.1000 19.3503 0.5316
58.1200 19.3570 0.5226
58.1400 19.3637 0.5250
58.1600 19.3703 0.5305
58.1800 19.3769 0.5210
58.2000 19.3835 0.5305
58.2200 19.3902 0.5308
58.2400 19.3969 0.5197
58.2600 19.4036 0.5319
58.2800 19.4103 0.5319
58.3000 19.4170 0.5224
58.3200 19.4236 0.5293
58.3400 19.4303 0.5310
58.3600 19.4369 0.5211
58.3800 19.4435 0.5370
58.4000 19.4501 0.5319
58.4200 19.4569 0.5186
58.4400 19.4636 0.5342
58.4600 19.4703 0.5333
58.4800 19.4769 0.5189
58.5000 19.4836 0.5382
58.5200 19.4903 0.5308
58.5400 19.4969 0.5195
58.5600 19.5035 0.5352
58.5800 19.5102 0.5333
58.6000 19.5169 0.5216
58.6200 19.5236 0.5365
58.6400 19.5303 0.5322
58.6600 19.5370 0.5208
58.6800 19.5436 0.5355
58.7000 19.5503 0.5320
58.7200 19.5569 0.5198
58.7400 19.5635 0.5378
58.7600 19.5702 0.5339
58.7800 19.5769 0.5222
58.8000 19.5836 0.5331
58.8200 19.5903 0.5321
58.8400 19.5970 0.5242
58.8600 19.6037 0.5320
58.8800 19.6103 0.5337
58.9000 19.6169 0.5277
58.9200 19.6235 0.5350
58.9400 19.6302 0.5307
58.9600 19.6369 0.5300
58.9800 19.6436 0.5347
59.0000 19.6503 0.5348
59.0200 19.6569 0.5276
59.0400 19.6636 0.5391
59.0600 19.6703 0.5369
59.0800 19.6769 0.5249
59.1000 19.6835 0.5362
59.1200 19.6902 0.5366
59.1400 19.6969 0.5252
59.1600 19.7035 0.5368
59.1800 19.7102 0.5378
59.2000 19.7169 0.5258
59.2200 19.7236 0.5369
59.2400 19.7303 0.5400
59.2600 19.7369 0.5241
59.2800 19.7435 0.5361
59.3000 19.7502 0.5443
59.3200 19.7569 0.5281
59.3400 19.7636 0.5386
59.3600 19.7703 0.5372
59.3800 19.7770 0.5269
59.4000 19.7837 0.5365
59.4200 19.7903 0.5348
59.4400 19.7969 0.5284
59.4600 19.8035 0.5400
59.4800 19.8102 0.5401
59.5000 19.8169 0.5297
59.5200 19.8237 0.5359
59.5400 19.8303 0.5406
59.5600 19.8370 0.5301
59.5800 19.8436 0.5382
59.6000 19.8502 0.5406
59.6200 19.8569 0.5319
59.6400 19.8635 0.5370
59.6600 19.8702 0.5423
59.6800 19.8769 0.5326
59.7000 19.8836 0.5346
59.7200 19.8903 0.5393
59.7400 19.8969 0.5344
59.7600 19.9036 0.5388
59.7800 19.9103 0.5370
59.8000 19.9169 0.5345
59.8200 19.9235 0.5418
59.8400 19.9302 0.5372
59.8600 19.9369 0.5335
59.8800 19.9436 0.5385
59.9000 19.9503 0.5387
59.9200 19.9570 0.5404
59.9400 19.9636 0.5388
59.9600 19.9703 0.5393
59.9800 19.9769 0.5361
60.0000 19.9835 0.5394
60.0200 19.9902 0.5353
60.0400 19.9969 0.5444
60.0600 20.0036 0.5337
60.0800 20.0103 0.5374
60.1000 20.0170 0.5431
60.1200 20.0236 0.5376
60.1400 20.0303 0.5364
60.1600 20.0369 0.5416
60.1800 20.0436 0.5360
60.2000 20.0502 0.5423
60.2200 20.0569 0.5464
60.2400 20.0636 0.5371
60.2600 20.0703 0.5421
60.2800 20.0770 0.5455
60.3000 20.0837 0.5305
60.3200 20.0903 0.5413
60.3400 20.0969 0.5419
60.3600 20.1035 0.5375
60.3800 20.1102 0.5438
60.4000 20.1169 0.5379
60.4200 20.1236 0.5367
60.4400 20.1303 0.5438
60.4600 20.1370 0.5481
60.4800 20.1436 0.5367
60.5000 20.1503 0.5471
60.5200 20.1569 0.5406
60.5400 20.1635 0.5381
60.5600 20.1701 0.5492
60.5800 20.1768 0.5445
60.6000 20.1835 0.5376
60.6200 20.1902 0.5472
60.6400 20.1969 0.5452
60.6600 20.2036 0.5403
60.6800 20.2102 0.5450
60.7000 20.2169 0.5447
60.7200 20.2235 0.5381
60.7400 20.2302 0.5475
60.7600 20.2369 0.5410
60.7800 20.2436 0.5402
60.8000 20.2503 0.5457
60.8200 20.2570 0.5430
60.8400 20.2637 0.5419
60.8600 20.2703 0.5498
60.8800 20.2770 0.5480
60.9000 20.2836 0.5422
60.9200 20.2902 0.5452
60.9400 20.2969 0.5475
60.9600 20.3036 0.5467
60.9800 20.3103 0.5426
61.0000 20.3170 0.5468
61.0200 20.3237 0.5413
61.0400 20.3303 0.5444
61.0600 20.3369 0.5503
61.0800 20.3435 0.5430
61.1000 20.3501 0.5433
61.1200 20.3569 0.5557
61.1400 20.3636 0.5351
61.1600 20.3703 0.5446
61.1800 20.3769 0.5567
61.2000 20.3836 0.5408
61.2200 20.3903 0.5447
61.2400 20.3969 0.5570
61.2600 20.4035 0.5403
61.2800 20.4102 0.5474
61.3000 20.4169 0.5566
61.3200 20.4236 0.5408
61.3400 20.4302 0.5504
61.3600 20.4369 0.5514
61.3800 20.4436 0.5388
61.4000 20.4502 0.5517
61.4200 20.4569 0.5520
61.4400 20.4635 0.5390
61.4600 20.4702 0.5531
61.4800 20.4769 0.5484
61.5000 20.4836 0.5428
61.5200 20.4903 0.5503
61.5400 20.4970 0.5507
61.5600 20.5037 0.5471
61.5800 20.5103 0.5508
61.6000 20.5169 0.5475
61.6200 20.5235 0.5470
61.6400 20.5302 0.5526
61.6600 20.5369 0.5556
61.6800 20.5436 0.5436
61.7000 20.5503 0.5498
61.7200 20.5570 0.5545
61.7400 20.5636 0.5467
61.7600 20.5703 0.5424
61.7800 20.5769 0.5552
61.8000 20.5835 0.5516
61.8200 20.5902 0.5447
61.8400 20.5969 0.5601
61.8600 20.6035 0.5481
61.8800 20.6102 0.5433
61.9000 20.6169 0.5606
61.9200 20.6236 0.5477
61.9400 20.6303 0.5426
61.9600 20.6369 0.5630
61.9800 20.6435 0.5464
62.0000 20.6501 0.5468
62.0200 20.6568 0.5602
62.0400 20.6635 0.5467
62.0600 20.6702 0.5415
62.0800 20.6769 0.5657
62.1000 20.6836 0.5433
62.1200 20.6903 0.5472
62.1400 20.6969 0.5629
62.1600 20.7035 0.5435
62.1800 20.7102 0.5490
62.2000 20.7169 0.5674
62.2200 20.7236 0.5444
62.2400 20.7303 0.5478
62.2600 20.7370 0.5635
62.2800 20.7436 0.5457
62.3000 20.7503 0.5549
62.3200 20.7570 0.5622
62.3400 20.7635 0.5427
62.3600 20.7702 0.5586
62.3800 20.7768 0.5642
62.4000 20.7835 0.5444
62.4200 20.7903 0.5530
62.4400 20.7970 0.5612
62.4600 20.8036 0.5495
62.4800 20.8103 0.5483
62.5000 20.8170 0.5664
62.5200 20.8236 0.5514
62.5400 20.8302 0.5529
62.5600 20.8369 0.5624
62.5800 20.8436 0.5530
62.6000 20.8503 0.5489
62.6200 20.8570 0.5610
62.6400 20.8636 0.5563
62.6600 20.8703 0.5448
62.6800 20.8769 0.5650
62.7000 20.8835 0.5574
62.7200 20.8901 0.5450
62.7400 20.8968 0.5713
62.7600 20.9035 0.5524
62.7800 20.9102 0.5460
62.8000 20.9169 0.5664
62.8200 20.9236 0.5563
62.8400 20.9303 0.5480
62.8600 20.9369 0.5674
62.8800 20.9435 0.5521
62.9000 20.9502 0.5510
62.9200 20.9568 0.5761
62.9400 20.9635 0.5483
62.9600 20.9703 0.5536
62.9800 20.9770 0.5728
63.0000 20.9837 0.5491
63.0200 20.9904 0.5541
63.0400 20.9970 0.5720
63.0600 21.0036 0.5488
63.0800 21.0102 0.5580
63.1000 21.0169 0.5688
63.1200 21.0236 0.5522
63.1400 21.0303 0.5544
63.1600 21.0370 0.5744
63.1800 21.0437 0.5467
63.2000 21.0503 0.5621
63.2200 21.0569 0.5657
63.2400 21.0635 0.5542
63.2600 21.0701 0.5636
63.2800 21.0768 0.5654
63.3000 21.0835 0.5557
63.3200 21.0902 0.5634
63.3400 21.0969 0.5587
63.3600 21.1036 0.5554
63.3800 21.1103 0.5655
63.4000 21.1169 0.5570
63.4200 21.1235 0.5561
63.4400 21.1302 0.5616
63.4600 21.1368 0.5637
63.4800 21.1435 0.5594
63.5000 21.1502 0.5590
63.5200 21.1569 0.5631
63.5400 21.1636 0.5640
63.5600 21.1703 0.5573
63.5800 21.1769 0.5639
63.6000 21.1835 0.5650
63.6200 21.1901 0.5596
63.6400 21.1968 0.5637
63.6600 21.2036 0.5655
63.6800 21.2103 0.5583
63.7000 21.2170 0.5659
63.7200 21.2237 0.5621
63.7400 21.2303 0.5602
63.7600 21.2370 0.5650
63.7800 21.2436 0.5680
63.8000 21.2502 0.5597
63.8200 21.2569 0.5685
63.8400 21.2636 0.5664
63.8600 21.2703 0.5544
63.8800 21.2769 0.5626
63.9000 21.2836 0.5697
63.9200 21.2903 0.5608
63.9400 21.2970 0.5615
63.9600 21.3036 0.5685
63.9800 21.3102 0.5624
64.0000 21.3168 0.5628
64.0200 21.3235 0.5707
64.0400 21.3302 0.5651
64.0600 21.3369 0.5614
64.0800 21.3436 0.5717
64.1000 21.3503 0.5628
64.1200 21.3569 0.5636
64.1400 21.3636 0.5690
64.1600 21.3702 0.5676
64.1800 21.3768 0.5624
64.2000 21.3835 0.5727
64.2200 21.3902 0.5623
64.2400 21.3969 0.5623
64.2600 21.4036 0.5703
64.2800 21.4103 0.5652
64.3000 21.4169 0.5625
64.3200 21.4236 0.5690
64.3400 21.4302 0.5700
64.3600 21.4369 0.5648
64.3800 21.4436 0.5696
64.4000 21.4502 0.5721
64.4200 21.4569 0.5592
64.4400 21.4636 0.5724
64.4600 21.4703 0.5728
64.4800 21.4770 0.5569
64.5000 21.4836 0.5720
64.5200 21.4902 0.5690
64.5400 21.4969 0.5668
64.5600 21.5036 0.5706
64.5800 21.5103 0.5702
64.6000 21.5170 0.5640
64.6200 21.5237 0.5728
64.6400 21.5303 0.5642
64.6600 21.5370 0.5650
64.6800 21.5436 0.5778
64.7000 21.5502 0.5652
64.7200 21.5569 0.5625
64.7400 21.5636 0.5827
64.7600 21.5703 0.5623
64.7800 21.5769 0.5693
64.8000 21.5836 0.5775
64.8200 21.5903 0.5672
64.8400 21.5969 0.5686
64.8600 21.6036 0.5756
64.8800 21.6102 0.5656
64.9000 21.6168 0.5703
64.9200 21.6235 0.5786
64.9400 21.6302 0.5618
64.9600 21.6369 0.5690
64.9800 21.6436 0.5799
65.0000 21.6503 0.5671
65.0200 21.6569 0.5651
65.0400 21.6636 0.5800
65.0600 21.6702 0.5701
65.0800 21.6768 0.5672
65.1000 21.6835 0.5775
65.1200 21.6903 0.5747
65.1400 21.6970 0.5653
65.1600 21.7037 0.5749
65.1800 21.7103 0.5723
65.2000 21.7170 0.5694
65.2200 21.7236 0.5765
65.2400 21.7302 0.5747
65.2600 21.7369 0.5693
65.2800 21.7436 0.5815
65.3000 21.7503 0.5758
65.3200 21.7570 0.5642
65.3400 21.7636 0.5758
65.3600 21.7703 0.5811
65.3800 21.7770 0.5679
65.4000 21.7836 0.5706
65.4200 21.7902 0.5800
65.4400 21.7968 0.5695
65.4600 21.8035 0.5737
65.4800 21.8102 0.5798
65.5000 21.8169 0.5684
65.5200 21.8236 0.5742
65.5400 21.8303 0.5810
65.5600 21.8370 0.5630
65.5800 21.8436 0.5791
65.6000 21.8502 0.5860
65.6200 21.8568 0.5679
65.6400 21.8635 0.5769
65.6600 21.8702 0.5785
65.6800 21.8769 0.5699
65.7000 21.8836 0.5814
65.7200 21.8903 0.5798
65.7400 21.8969 0.5677
65.7600 21.9036 0.5792
65.7800 21.9102 0.5810
65.8000 21.9168 0.5682
65.8200 21.9235 0.5842
65.8400 21.9303 0.5810
65.8600 21.9369 0.5690
65.8800 21.9436 0.5805
65.9000 21.9503 0.5832
65.9200 21.9570 0.5751
65.9400 21.9636 0.5765
65.9600 21.9702 0.5861
65.9800 21.9769 0.5711
66.0000 21.9836 0.5804
66.0200 21.9903 0.5832
66.0400 21.9970 0.5676
66.0600 22.0037 0.5818
66.0800 22.0103 0.5858
66.1000 22.0170 0.5696
66.1200 22.0236 0.5827
66.1400 22.0302 0.5872
66.1600 22.0368 0.5708
66.1800 22.0435 0.5808
66.2000 22.0502 0.5895
66.2200 22.0569 0.5690
66.2400 22.0636 0.5855
66.2600 22.0703 0.5840
66.2800 22.0769 0.5733
66.3000 22.0836 0.5854
66.3200 22.0902 0.5866
66.3400 22.0968 0.5706
66.3600 22.1035 0.5838
66.3800 22.1102 0.5874
66.4000 22.1169 0.5715
66.4200 22.1235 0.5851
66.4400 22.1302 0.5881
66.4600 22.1369 0.5719
66.4800 22.1436 0.5843
66.5000 22.1502 0.5910
66.5200 22.1569 0.5761
66.5400 22.1635 0.5852
66.5600 22.1702 0.5893
66.5800 22.1769 0.5767
66.6000 22.1836 0.5849
66.6200 22.1903 0.5907
66.6400 22.1970 0.5748
66.6600 22.2036 0.5822
66.6800 22.2102 0.5863
66.7000 22.2168 0.5831
66.7200 22.2235 0.5835
66.7400 22.2302 0.5828
66.7600 22.2369 0.5813
66.7800 22.2436 0.5860
66.8000 22.2503 0.5833
66.8200 22.2570 0.5815
66.8400 22.2636 0.5872
66.8600 22.2702 0.5908
66.8800 22.2768 0.5807
66.9000 22.2835 0.5811
66.9200 22.2902 0.5912
66.9400 22.2969 0.5789
66.9600 22.3036 0.5830
66.9800 22.3103 0.5912
67.0000 22.3170 0.5814
67.0200 22.3236 0.5797
67.0400 22.3302 0.5903
67.0600 22.3368 0.5836
67.0800 22.3435 0.5854
67.1000 22.3502 0.5902
67.1200 22.3569 0.5808
67.1400 22.3636 0.5840
67.1600 22.3703 0.5948
67.1800 22.3769 0.5773
67.2000 22.3836 0.5868
67.2200 22.3902 0.5926
67.2400 22.3968 0.5791
67.2600 22.4035 0.5900
67.2800 22.4102 0.5914
67.3000 22.4170 0.5831
67.3200 22.4237 0.5902
67.3400 22.4303 0.5848
67.3600 22.4370 0.5884
67.3800 22.4437 0.5872
67.4000 22.4503 0.5868
67.4200 22.4569 0.5898
67.4400 22.4636 0.5848
67.4600 22.4703 0.5866
67.4800 22.4770 0.5886
67.5000 22.4836 0.5907
67.5200 22.4903 0.5883
67.5400 22.4970 0.5965
67.5600 22.5036 0.5804
67.5800 22.5102 0.5898
67.6000 22.5168 0.5939
67.6200 22.5235 0.5863
67.6400 22.5302 0.5916
67.6600 22.5369 0.5895
67.6800 22.5436 0.5877
67.7000 22.5502 0.5929
67.7200 22.5569 0.5897
67.7400 22.5636 0.5924
67.7600 22.5702 0.5872
67.7800 22.5768 0.5934
67.8000 22.5835 0.5885
67.8200 22.5902 0.5943
67.8400 22.5969 0.5880
67.8600 22.6036 0.5832
67.8800 22.6103 0.5967
67.9000 22.6169 0.5917
67.9200 22.6236 0.5881
67.9400 22.6302 0.5958
67.9600 22.6369 0.5979
67.9800 22.6436 0.5842
68.0000 22.6503 0.5981
68.0200 22.6570 0.5979
68.0400 22.6636 0.5837
68.0600 22.6703 0.5927
68.0800 22.6770 0.6004
68.1000 22.6836 0.5861
68.1200 22.6902 0.5969
68.1400 22.6968 0.5945
68.1600 22.7035 0.5916
68.1800 22.7102 0.5961
68.2000 22.7169 0.5926
68.2200 22.7236 0.5887
68.2400 22.7303 0.5960
68.2600 22.7370 0.5930
68.2800 22.7436 0.5932
68.3000 22.7502 0.5981
68.3200 22.7568 0.5914
68.3400 22.7635 0.5927
68.3600 22.7702 0.6030
68.3800 22.7769 0.5934
68.4000 22.7836 0.5915
68.4200 22.7902 0.5958
68.4400 22.7969 0.5988
68.4600 22.8036 0.5926
68.4800 22.8102 0.5927
68.5000 22.8168 0.5984
68.5200 22.8235 0.5940
68.5400 22.8302 0.5973
68.5600 22.8369 0.5957
68.5800 22.8435 0.5947
68.6000 22.8502 0.5949
68.6200 22.8569 0.6035
68.6400 22.8636 0.5898
68.6600 22.8702 0.5956
68.6800 22.8768 0.6049
68.7000 22.8835 0.5950
68.7200 22.8902 0.5958
68.7400 22.8969 0.6054
68.7600 22.9036 0.5927
68.7800 22.9103 0.5965
68.8000 22.9170 0.5999
68.8200 22.9236 0.5976
68.8400 22.9302 0.5958
68.8600 22.9369 0.6049
68.8800 22.9435 0.5978
68.9000 22.9502 0.5955
68.9200 22.9569 0.6020
68.9400 22.9636 0.5971
68.9600 22.9703 0.5970
68.9800 22.9770 0.6055
69.0000 22.9836 0.5952
69.0200 22.9903 0.5932
69.0400 22.9969 0.6106
69.0600 23.0035 0.5948
69.0800 23.0102 0.5981
69.1000 23.0169 0.6081
69.1200 23.0236 0.5979
69.1400 23.0303 0.5946
69.1600 23.0370 0.6084
69.1800 23.0436 0.5950
69.2000 23.0502 0.5986
69.2200 23.0568 0.6087
69.2400 23.0634 0.5989
69.2600 23.0701 0.6002
69.2800 23.0769 0.6078
69.3000 23.0836 0.5978
69.3200 23.0902 0.6008
69.3400 23.0969 0.6059
69.3600 23.1036 0.6043
69.3800 23.1102 0.5959
69.4000 23.1168 0.6124
69.4200 23.1235 0.6033
69.4400 23.1302 0.5902
69.4600 23.1369 0.6172
69.4800 23.1436 0.6025
69.5000 23.1503 0.5897
69.5200 23.1570 0.6169
69.5400 23.1637 0.6056
69.5600 23.1703 0.5843
69.5800 23.1769 0.6194
69.6000 23.1835 0.6072
69.6200 23.1902 0.5906
69.6400 23.1969 0.6174
69.6600 23.2036 0.6038
69.6800 23.2103 0.5941
69.7000 23.2170 0.6227
69.7200 23.2236 0.5945
69.7400 23.2302 0.5997
69.7600 23.2368 0.6213
69.7800 23.2435 0.5989
69.8000 23.2502 0.6010
69.8200 23.2569 0.6188
69.8400 23.2636 0.5969
69.8600 23.2703 0.6017
69.8800 23.2769 0.6139
69.9000 23.2836 0.6020
69.9200 23.2903 0.6053
69.9400 23.2969 0.6126
69.9600 23.3035 0.6043
69.9800 23.3102 0.6031
70.0000 23.3169 0.6162
70.0200 23.3236 0.6028
70.0400 23.3302 0.6050
70.0600 23.3369 0.6129
70.0800 23.3436 0.6076
70.1000 23.3503 0.6029
70.1200 23.3569 0.6107
70.1400 23.3635 0.6068
70.1600 23.3702 0.6072
70.1800 23.3769 0.6101
70.2000 23.3836 0.6077
70.2200 23.3903 0.6055
70.2400 23.3970 0.6169
70.2600 23.4036 0.6058
70.2800 23.4103 0.6078
70.3000 23.4169 0.6127
70.3200 23.4235 0.6104
70.3400 23.4302 0.6042
70.3600 23.4369 0.6069
70.3800 23.4436 0.6105
70.4000 23.4503 0.6034
70.4200 23.4570 0.6121
70.4400 23.4637 0.6099
70.4600 23.4703 0.6028
70.4800 23.4769 0.6131
70.5000 23.4835 0.6157
70.5200 23.4902 0.6008
70.5400 23.4969 0.6174
70.5600 23.5036 0.6142
70.5800 23.5103 0.6041
70.6000 23.5170 0.6160
70.6200 23.5236 0.6167
70.6400 23.5303 0.6015
70.6600 23.5369 0.6193
70.6800 23.5435 0.6107
70.7000 23.5501 0.6097
70.7200 23.5569 0.6199
70.7400 23.5636 0.6095
70.7600 23.5703 0.6073
70.7800 23.5770 0.6179
70.8000 23.5836 0.6111
70.8200 23.5903 0.6075
70.8400 23.5969 0.6203
70.8600 23.6035 0.6120
70.8800 23.6102 0.6082
70.9000 23.6170 0.6188
70.9200 23.6237 0.6101
70.9400 23.6303 0.6103
70.9600 23.6370 0.6205
70.9800 23.6436 0.6163
71.0000 23.6503 0.6107
71.0200 23.6569 0.6101
71.0400 23.6635 0.6250
71.0600 23.6702 0.6113
71.0800 23.6769 0.6077
71.1000 23.6836 0.6169
71.1200 23.6903 0.6135
71.1400 23.6970 0.6117
71.1600 23.7037 0.6174
71.1800 23.7103 0.6067
71.2000 23.7169 0.6155
71.2200 23.7235 0.6274
71.2400 23.7302 0.6050
71.2600 23.7369 0.6202
71.2800 23.7436 0.6262
71.3000 23.7503 0.5998
71.3200 23.7570 0.6264
71.3400 23.7636 0.6281
71.3600 23.7703 0.6011
71.3800 23.7769 0.6241
71.4000 23.7835 0.6232
71.4200 23.7901 0.6043
71.4400 23.7969 0.6253
71.4600 23.8036 0.6231
71.4800 23.8102 0.6062
71.5000 23.8169 0.6209
71.5200 23.8236 0.6173
71.5400 23.8302 0.6119
71.5600 23.8369 0.6217
71.5800 23.8435 0.6168
71.6000 23.8502 0.6152
71.6200 23.8569 0.6292
71.6400 23.8636 0.6116
71.6600 23.8703 0.6195
71.6800 23.8770 0.6217
71.7000 23.8837 0.6162
71.7200 23.8903 0.6207
71.7400 23.8969 0.6198
71.7600 23.9035 0.6227
71.7800 23.9102 0.6236
71.8000 23.9169 0.6144
71.8200 23.9236 0.6270
71.8400 23.9303 0.6223
71.8600 23.9370 0.6125
71.8800 23.9436 0.6246
71.9000 23.9502 0.6208
71.9200 23.9569 0.6180
71.9400 23.9635 0.6297
71.9600 23.9702 0.6198
71.9800 23.9769 0.6179
72.0000 23.9836 0.6315
72.0200 23.9902 0.6130
72.0400 23.9969 0.6193
72.0600 24.0036 0.6278
72.0800 24.0102 0.6183
72.1000 24.0169 0.6235
72.1200 24.0235 0.6249
72.1400 24.0302 0.6177
72.1600 24.0369 0.6295
72.1800 24.0436 0.6248
72.2000 24.0503 0.6189
72.2200 24.0569 0.6250
72.2400 24.0636 0.6286
72.2600 24.0703 0.6177
72.2800 24.0769 0.6256
72.3000 24.0835 0.6267
72.3200 24.0902 0.6216
72.3400 24.0969 0.6204
72.3600 24.1036 0.6273
72.3800 24.1103 0.6278
72.4000 24.1170 0.6207
72.4200 24.1237 0.6280
72.4400 24.1303 0.6265
72.4600 24.1369 0.6233
72.4800 24.1435 0.6317
72.5000 24.1502 0.6238
72.5200 24.1569 0.6213
72.5400 24.1636 0.6297
72.5600 24.1703 0.6231
72.5800 24.1770 0.6241
72.6000 24.1837 0.6323
72.6200 24.1903 0.6252
72.6400 24.1970 0.6204
72.6600 24.2036 0.6344
72.6800 24.2102 0.6233
72.7000 24.2169 0.6271
72.7200 24.2236 0.6284
72.7400 24.2303 0.6241
72.7600 24.2370 0.6261
72.7800 24.2437 0.6267
72.8000 24.2503 0.6259
72.8200 24.2569 0.6270
72.8400 24.2635 0.6296
72.8600 24.2701 0.6332
72.8800 24.2768 0.6251
72.9000 24.2836 0.6272
72.9200 24.2903 0.6326
72.9400 24.2969 0.6285
72.9600 24.3036 0.6236
72.9800 24.3103 0.6273
73.0000 24.3169 0.6308
73.0200 24.3235 0.6205
73.0400 24.3302 0.6363
73.0600 24.3369 0.6264
73.0800 24.3436 0.6206
73.1000 24.3503 0.6362
73.1200 24.3570 0.6285
73.1400 24.3637 0.6250
73.1600 24.3703 0.6383
73.1800 24.3769 0.6281
73.2000 24.3835 0.6258
73.2200 24.3902 0.6393
73.2400 24.3969 0.6304
73.2600 24.4036 0.6243
73.2800 24.4103 0.6437
73.3000 24.4170 0.6253
73.3200 24.4237 0.6291
73.3400 24.4303 0.6427
73.3600 24.4369 0.6229
73.3800 24.4435 0.6313
73.4000 24.4502 0.6454
73.4200 24.4569 0.6225
73.4400 24.4636 0.6316
73.4600 24.4703 0.6433
73.4800 24.4770 0.6208
73.5000 24.4836 0.6322
73.5200 24.4903 0.6451
73.5400 24.4969 0.6234
73.5600 24.5035 0.6352
73.5800 24.5102 0.6420
73.6000 24.5169 0.6243
73.6200 24.5236 0.6365
73.6400 24.5302 0.6360
73.6600 24.5369 0.6291
73.6800 24.5436 0.6333
73.7000 24.5503 0.6410
73.7200 24.5569 0.6295
73.7400 24.5635 0.6361
73.7600 24.5702 0.6382
73.7800 24.5769 0.6314
73.8000 24.5836 0.6316
73.8200 24.5903 0.6415
73.8400 24.5970 0.6362
73.8600 24.6037 0.6243
73.8800 24.6103 0.6427
73.9000 24.6169 0.6390
73.9200 24.6235 0.6293
73.9400 24.6302 0.6452
73.9600 24.6369 0.6296
73.9800 24.6436 0.6319
74.0000 24.6503 0.6494
74.0200 24.6570 0.6240
74.0400 24.6636 0.6350
74.0600 24.6703 0.6489
74.0800 24.6769 0.6257
74.1000 24.6835 0.6364
74.1200 24.6902 0.6498
74.1400 24.6968 0.6272
74.1600 24.7036 0.6402
74.1800 24.7102 0.6483
74.2000 24.7169 0.6272
74.2200 24.7236 0.6420
74.2400 24.7303 0.6456
74.2600 24.7369 0.6273
74.2800 24.7435 0.6458
74.3000 24.7501 0.6406
74.3200 24.7568 0.6325
74.3400 24.7636 0.6454
74.3600 24.7703 0.6407
74.3800 24.7770 0.6350
74.4000 24.7836 0.6454
74.4200 24.7903 0.6371
74.4400 24.7969 0.6383
74.4600 24.8035 0.6440
74.4800 24.8102 0.6423
74.5000 24.8169 0.6423
74.5200 24.8236 0.6369
74.5400 24.8303 0.6433
74.5600 24.8370 0.6435
74.5800 24.8436 0.6367
74.6000 24.8503 0.6425
74.6200 24.8569 0.6434
74.6400 24.8636 0.6359
74.6600 24.8702 0.6487
74.6800 24.8769 0.6420
74.7000 24.8836 0.6360
74.7200 24.8903 0.6490
74.7400 24.8970 0.6443
74.7600 24.9036 0.6344
74.7800 24.9103 0.6518
74.8000 24.9169 0.6358
74.8200 24.9235 0.6323
74.8400 24.9302 0.6571
74.8600 24.9369 0.6406
74.8800 24.9436 0.6315
74.9000 24.9503 0.6574
74.9200 24.9569 0.6377
74.9400 24.9636 0.6322
74.9600 24.9703 0.6597
74.9800 24.9769 0.6381
75.0000 24.9835 0.6339
75.0200 24.9901 0.6592
75.0400 24.9968 0.6368
75.0600 25.0035 0.6394
75.0800 25.0102 0.6644
75.1000 25.0169 0.6364
75.1200 25.0236 0.6362
75.1400 25.0303 0.6571
75.1600 25.0369 0.6424
75.1800 25.0435 0.6451
75.2000 25.0502 0.6565
75.2200 25.0569 0.6405
75.2400 25.0636 0.6456
75.2600 25.0703 0.6503
75.2800 25.0770 0.6419
75.3000 25.0837 0.6473
75.3200 25.0903 0.6504
75.3400 25.0970 0.6417
75.3600 25.1035 0.6496
75.3800 25.1102 0.6548
75.4000 25.1169 0.6444
75.4200 25.1236 0.6481
75.4400 25.1303 0.6536
75.4600 25.1370 0.6447
75.4800 25.1437 0.6491
75.5000 25.1503 0.6542
75.5200 25.1569 0.6457
75.5400 25.1635 0.6487
75.5600 25.1702 0.6518
75.5800 25.1769 0.6483
75.6000 25.1836 0.6471
75.6200 25.1903 0.6517
75.6400 25.1969 0.6466
75.6600 25.2036 0.6504
75.6800 25.2103 0.6496
75.7000 25.2169 0.6484
75.7200 25.2236 0.6522
75.7400 25.2302 0.6553
75.7600 25.2369 0.6476
75.7800 25.2436 0.6531
75.8000 25.2502 0.6499
75.8200 25.2569 0.6490
75.8400 25.2636 0.6531
75.8600 25.2702 0.6523
75.8800 25.2769 0.6480
75.9000 25.2835 0.6538
75.9200 25.2902 0.6528
75.9400 25.2969 0.6510
75.9600 25.3036 0.6551
75.9800 25.3103 0.6489
76.0000 25.3170 0.6535
76.0200 25.3237 0.6529
76.0400 25.3303 0.6538
76.0600 25.3369 0.6490
76.0800 25.3435 0.6626
76.1000 25.3502 0.6509
76.1200 25.3569 0.6481
76.1400 25.3636 0.6584
76.1600 25.3703 0.6516
76.1800 25.3770 0.6480
76.2000 25.3836 0.6604
76.2200 25.3903 0.6467
76.2400 25.3969 0.6581
76.2600 25.4036 0.6597
76.2800 25.4102 0.6491
76.3000 25.4168 0.6551
76.3200 25.4235 0.6622
76.3400 25.4302 0.6488
76.3600 25.4369 0.6540
76.3800 25.4436 0.6577
76.4000 25.4503 0.6499
76.4200 25.4569 0.6601
76.4400 25.4635 0.6580
76.4600 25.4701 0.6491
76.4800 25.4768 0.6611
76.5000 25.4835 0.6541
76.5200 25.4903 0.6500
76.5400 25.4969 0.6641
76.5600 25.5036 0.6547
76.5800 25.5103 0.6557
76.6000 25.5169 0.6665
76.6200 25.5235 0.6542
76.6400 25.5302 0.6540
76.6600 25.5369 0.6657
76.6800 25.5436 0.6543
76.7000 25.5503 0.6575
76.7200 25.5569 0.6632
76.7400 25.5636 0.6589
76.7600 25.5703 0.6547
76.7800 25.5770 0.6584
76.8000 25.5836 0.6643
76.8200 25.5902 0.6588
76.8400 25.5968 0.6546
76.8600 25.6035 0.6666
76.8800 25.6103 0.6542
76.9000 25.6170 0.6546
76.9200 25.6236 0.6693
76.9400 25.6303 0.6521
76.9600 25.6370 0.6556
76.9800 25.6436 0.6702
77.0000 25.6502 0.6515
77.0200 25.6568 0.6616
77.0400 25.6636 0.6768
77.0600 25.6703 0.6482
77.0800 25.6770 0.6645
77.1000 25.6836 0.6718
77.1200 25.6903 0.6519
77.1400 25.6969 0.6670
77.1600 25.7035 0.6696
77.1800 25.7101 0.6469
77.2000 25.7168 0.6725
77.2200 25.7235 0.6676
77.2400 25.7302 0.6490
77.2600 25.7369 0.6672
77.2800 25.7436 0.6712
77.3000 25.7502 0.6545
77.3200 25.7569 0.6683
77.3400 25.7635 0.6622
77.3600 25.7702 0.6616
77.3800 25.7768 0.6697
77.4000 25.7835 0.6612
77.4200 25.7903 0.6596
77.4400 25.7970 0.6683
77.4600 25.8037 0.6628
77.4800 25.8104 0.6602
77.5000 25.8170 0.6656
77.5200 25.8236 0.6674
77.5400 25.8302 0.6622
77.5600 25.8369 0.6651
77.5800 25.8436 0.6674
77.6000 25.8503 0.6652
77.6200 25.8570 0.6679
77.6400 25.8637 0.6628
77.6600 25.8703 0.6659
77.6800 25.8770 0.6671
77.7000 25.8836 0.6657
77.7200 25.8902 0.6662
77.7400 25.8968 0.6716
77.7600 25.9035 0.6652
77.7800 25.9102 0.6652
77.8000 25.9169 0.6693
77.8200 25.9236 0.6723
77.8400 25.9303 0.6628
77.8600 25.9370 0.6698
77.8800 25.9436 0.6705
77.9000 25.9502 0.6639
77.9200 25.9568 0.6702
77.9400 25.9635 0.6707
77.9600 25.9702 0.6656
77.9800 25.9769 0.6698
78.0000 25.9836 0.6707
78.0200 25.9903 0.6656
78.0400 25.9969 0.6740
78.0600 26.0036 0.6701
78.0800 26.0102 0.6648
78.1000 26.0168 0.6739
78.1200 26.0236 0.6692
78.1400 26.0303 0.6659
78.1600 26.0370 0.6735
78.1800 26.0436 0.6714
78.2000 26.0503 0.6696
78.2200 26.0570 0.6718
78.2400 26.0636 0.6735
78.2600 26.0702 0.6661
78.2800 26.0769 0.6738
78.3000 26.0836 0.6719
78.3200 26.0903 0.6664
78.3400 26.0970 0.6727
78.3600 26.1036 0.6750
78.3800 26.1103 0.6694
78.4000 26.1170 0.6725
78.4200 26.1236 0.6705
78.4400 26.1302 0.6703
78.4600 26.1368 0.6765
78.4800 26.1435 0.6673
78.5000 26.1502 0.6744
78.5200 26.1569 0.6764
78.5400 26.1636 0.6671
78.5600 26.1703 0.6767
78.5800 26.1770 0.6750
78.6000 26.1836 0.6692
78.6200 26.1902 0.6788
78.6400 26.1968 0.6700
78.6600 26.2035 0.6731
78.6800 26.2102 0.6801
78.7000 26.2169 0.6700
78.7200 26.2236 0.6737
78.7400 26.2303 0.6845
78.7600 26.2370 0.6685
78.7800 26.2436 0.6773
78.8000 26.2502 0.6802
78.8200 26.2569 0.6752
78.8400 26.2635 0.6767
78.8600 26.2702 0.6779
78.8800 26.2769 0.6754
78.9000 26.2836 0.6780
78.9200 26.2903 0.6735
78.9400 26.2970 0.6756
78.9600 26.3036 0.6760
78.9800 26.3102 0.6753
79.0000 26.3168 0.6832
79.0200 26.3235 0.6788
79.0400 26.3303 0.6768
79.0600 26.3370 0.6786
79.0800 26.3436 0.6780
79.1000 26.3503 0.6729
79.1200 26.3569 0.6787
79.1400 26.3636 0.6769
79.1600 26.3702 0.6789
79.1800 26.3769 0.6753
79.2000 26.3836 0.6799
79.2200 26.3903 0.6810
79.2400 26.3969 0.6747
79.2600 26.4036 0.6783
79.2800 26.4103 0.6894
79.3000 26.4169 0.6779
79.3200 26.4236 0.6773
79.3400 26.4302 0.6844
79.3600 26.4368 0.6833
79.3800 26.4435 0.6798
79.4000 26.4502 0.6799
79.4200 26.4569 0.6807
79.4400 26.4636 0.6842
79.4600 26.4703 0.6798
79.4800 26.4770 0.6789
79.5000 26.4836 0.6822
79.5200 26.4902 0.6844
79.5400 26.4968 0.6825
79.5600 26.5035 0.6759
79.5800 26.5103 0.6832
79.6000 26.5170 0.6894
79.6200 26.5237 0.6764
79.6400 26.5303 0.6783
79.6600 26.5370 0.6890
79.6800 26.5436 0.6816
79.7000 26.5502 0.6863
79.7200 26.5568 0.6801
79.7400 26.5636 0.6861
79.7600 26.5703 0.6852
79.7800 26.5770 0.6773
79.8000 26.5836 0.6833
79.8200 26.5903 0.6898
79.8400 26.5970 0.6822
79.8600 26.6036 0.6869
79.8800 26.6102 0.6841
79.9000 26.6168 0.6875
79.9200 26.6235 0.6914
79.9400 26.6302 0.6792
79.9600 26.6369 0.6800
79.9800 26.6436 0.6962
80.0000 26.6503 0.6890
80.0200 26.6569 0.6727
80.0400 26.6636 0.6832
80.0600 26.6702 0.7026
80.0800 26.6768 0.6849
80.1000 26.6835 0.6739
80.1200 26.6902 0.6962
80.1400 26.6969 0.6879
80.1600 26.7036 0.6829
80.1800 26.7103 0.6885
80.2000 26.7169 0.6920
80.2200 26.7236 0.6818
80.2400 26.7302 0.6890
80.2600 26.7368 0.6862
80.2800 26.7435 0.6853
80.3000 26.7503 0.6974
80.3200 26.7570 0.6860
80.3400 26.7636 0.6773
80.3600 26.7703 0.6990
80.3800 26.7770 0.6891
80.4000 26.7836 0.6833
80.4200 26.7902 0.6885
80.4400 26.7968 0.6885
80.4600 26.8035 0.6917
80.4800 26.8102 0.6920
80.5000 26.8170 0.6801
80.5200 26.8237 0.6963
80.5400 26.8304 0.6999
80.5600 26.8370 0.6789
80.5800 26.8436 0.6907
80.6000 26.8502 0.7023
80.6200 26.8568 0.6860
80.6400 26.8635 0.6862
80.6600 26.8702 0.7004
80.6800 26.8769 0.6861
80.7000 26.8836 0.6986
80.7200 26.8903 0.6901
80.7400 26.8969 0.6836
80.7600 26.9036 0.6988
80.7800 26.9102 0.7014
80.8000 26.9168 0.6790
80.8200 26.9235 0.6948
80.8400 26.9302 0.7033
80.8600 26.9369 0.6916
80.8800 26.9436 0.6882
80.9000 26.9502 0.6955
80.9200 26.9569 0.6964
80.9400 26.9636 0.6906
80.9600 26.9702 0.6914
80.9800 26.9769 0.6997
81.0000 26.9835 0.6956
81.0200 26.9902 0.6914
81.0400 26.9969 0.6945
81.0600 27.0036 0.6961
81.0800 27.0103 0.7016
81.1000 27.0170 0.6941
81.1200 27.0236 0.6869
81.1400 27.0302 0.6987
81.1600 27.0368 0.7033
81.1800 27.0435 0.6887
81.2000 27.0503 0.7003
81.2200 27.0570 0.6950
81.2400 27.0637 0.6953
81.2600 27.0703 0.7018
81.2800 27.0770 0.6986
81.3000 27.0836 0.6894
81.3200 27.0902 0.7007
81.3400 27.0969 0.6947
81.3600 27.1035 0.6953
81.3800 27.1102 0.7093
81.4000 27.1169 0.6928
81.4200 27.1236 0.6905
81.4400 27.1303 0.7118
81.4600 27.1370 0.6974
81.4800 27.1436 0.6961
81.5000 27.1502 0.7032
81.5200 27.1568 0.6911
81.5400 27.1635 0.7019
81.5600 27.1702 0.7053
81.5800 27.1769 0.6957
81.6000 27.1836 0.6994
81.6200 27.1902 0.7039
81.6400 27.1969 0.6937
81.6600 27.2035 0.7030
81.6800 27.2102 0.7027
81.7000 27.2168 0.6978
81.7200 27.2235 0.6989
81.7400 27.2302 0.7062
81.7600 27.2369 0.6976
81.7800 27.2436 0.7011
81.8000 27.2503 0.7055
81.8200 27.2570 0.6968
81.8400 27.2637 0.6982
81.8600 27.2703 0.7096
81.8800 27.2769 0.6992
81.9000 27.2836 0.7028
81.9200 27.2903 0.7074
81.9400 27.2970 0.6966
81.9600 27.3036 0.7035
81.9800 27.3103 0.7074
82.0000 27.3170 0.6985
82.0200 27.3236 0.7057
82.0400 27.3302 0.7083
82.0600 27.3368 0.6985
82.0800 27.3435 0.7059
82.1000 27.3502 0.7098
82.1200 27.3569 0.6990
82.1400 27.3636 0.7043
82.1600 27.3703 0.7073
82.1800 27.3770 0.6986
82.2000 27.3836 0.7116
82.2200 27.3902 0.7016
82.2400 27.3968 0.7061
82.2600 27.4035 0.7099
82.2800 27.4102 0.7050
82.3000 27.4169 0.7022
82.3200 27.4236 0.7050
82.3400 27.4303 0.7057
82.3600 27.4369 0.7080
82.3800 27.4436 0.7048
82.4000 27.4502 0.7052
82.4200 27.4569 0.7133
82.4400 27.4635 0.7078
82.4600 27.4702 0.7012
82.4800 27.4769 0.7107
82.5000 27.4836 0.7106
82.5200 27.4903 0.7052
82.5400 27.4970 0.7089
82.5600 27.5037 0.7051
82.5800 27.5103 0.7094
82.6000 27.5168 0.7112
82.6200 27.5235 0.7052
82.6400 27.5302 0.7111
82.6600 27.5370 0.7133
82.6800 27.5436 0.7020
82.7000 27.5503 0.7125
82.7200 27.5570 0.7139
82.7400 27.5636 0.7067
82.7600 27.5702 0.7122
82.7800 27.5768 0.7133
82.8000 27.5835 0.7060
82.8200 27.5902 0.7162
82.8400 27.5969 0.7120
82.8600 27.6036 0.7079
82.8800 27.6103 0.7141
82.9000 27.6169 0.7154
82.9200 27.6236 0.7082
82.9400 27.6302 0.7135
82.9600 27.6369 0.7118
82.9800 27.6435 0.7135
83.0000 27.6502 0.7137
83.0200 27.6569 0.7114
83.0400 27.6635 0.7127
83.0600 27.6702 0.7133
83.0800 27.6769 0.7100
83.1000 27.6836 0.7125
83.1200 27.6903 0.7171
83.1400 27.6969 0.7107
83.1600 27.7035 0.7149
83.1800 27.7102 0.7121
83.2000 27.7170 0.7156
83.2200 27.7237 0.7145
83.2400 27.7303 0.7168
83.2600 27.7370 0.7171
83.2800 27.7436 0.7123
83.3000 27.7502 0.7091
83.3200 27.7569 0.7221
83.3400 27.7635 0.7168
83.3600 27.7702 0.7120
83.3800 27.7769 0.7162
83.4000 27.7836 0.7148
83.4200 27.7903 0.7145
83.4400 27.7970 0.7189
83.4600 27.8037 0.7195
83.4800 27.8103 0.7147
83.5000 27.8169 0.7157
83.5200 27.8235 0.7270
83.5400 27.8302 0.7177
83.5600 27.8369 0.7089
83.5800 27.8436 0.7251
83.6000 27.8503 0.7223
83.6200 27.8570 0.7077
83.6400 27.8636 0.7239
83.6600 27.8702 0.7264
83.6800 27.8768 0.7075
83.7000 27.8834 0.7264
83.7200 27.8901 0.7235
83.7400 27.8969 0.7140
83.7600 27.9036 0.7267
83.7800 27.9102 0.7202
83.8000 27.9169 0.7087
83.8200 27.9236 0.7298
83.8400 27.9302 0.7205
83.8600 27.9369 0.7151
83.8800 27.9435 0.7312
83.9000 27.9502 0.7178
83.9200 27.9569 0.7135
83.9400 27.9636 0.7352
83.9600 27.9703 0.7143
83.9800 27.9770 0.7119
84.0000 27.9837 0.7373
84.0200 27.9903 0.7114
84.0400 27.9969 0.7167
84.0600 28.0035 0.7402
84.0800 28.0102 0.7110
84.1000 28.0169 0.7183
84.1200 28.0236 0.7355
84.1400 28.0303 0.7094
84.1600 28.0370 0.7251
84.1800 28.0436 0.7300
84.2000 28.0502 0.7155
84.2200 28.0568 0.7287
84.2400 28.0635 0.7288
84.2600 28.0702 0.7149
84.2800 28.0769 0.7280
84.3000 28.0836 0.7289
84.3200 28.0903 0.7216
84.3400 28.0969 0.7214
84.3600 28.1036 0.7301
84.3800 28.1102 0.7235
84.4000 28.1169 0.7233
84.4200 28.1235 0.7298
84.4400 28.1302 0.7265
84.4600 28.1369 0.7187
84.4800 28.1436 0.7327
84.5000 28.1502 0.7250
84.5200 28.1569 0.7186
84.5400 28.1636 0.7343
84.5600 28.1703 0.7224
84.5800 28.1769 0.7243
84.6000 28.1835 0.7349
84.6200 28.1902 0.7257
84.6400 28.1969 0.7198
84.6600 28.2036 0.7336
84.6800 28.2103 0.7274
84.7000 28.2170 0.7264
84.7200 28.2236 0.7248
84.7400 28.2303 0.7257
84.7600 28.2369 0.7266
84.7800 28.2435 0.7389
84.8000 28.2502 0.7261
84.8200 28.2569 0.7252
84.8400 28.2636 0.7338
84.8600 28.2703 0.7301
84.8800 28.2770 0.7243
84.9000 28.2837 0.7371
84.9200 28.2903 0.7351
84.9400 28.2969 0.7268
84.9600 28.3035 0.7325
84.9800 28.3102 0.7344
85.0000 28.3169 0.7293
85.0200 28.3236 0.7351
85.0400 28.3303 0.7302
85.0600 28.3369 0.7248
85.0800 28.3436 0.7380
85.1000 28.3503 0.7292
85.1200 28.3569 0.7252
85.1400 28.3635 0.7393
85.1600 28.3701 0.7303
85.1800 28.3769 0.7297
85.2000 28.3836 0.7434
85.2200 28.3903 0.7255
85.2400 28.3969 0.7310
85.2600 28.4036 0.7404
85.2800 28.4103 0.7261
85.3000 28.4169 0.7331
85.3200 28.4235 0.7433
85.3400 28.4302 0.7268
85.3600 28.4369 0.7401
85.3800 28.4436 0.7386
85.4000 28.4503 0.7254
85.4200 28.4570 0.7425
85.4400 28.4637 0.7341
85.4600 28.4703 0.7275
85.4800 28.4769 0.7458
85.5000 28.4835 0.7374
85.5200 28.4902 0.7345
85.5400 28.4969 0.7401
85.5600 28.5036 0.7339
85.5800 28.5103 0.7387
85.6000 28.5170 0.7376
85.6200 28.5237 0.7348
85.6400 28.5303 0.7382
85.6600 28.5369 0.7355
85.6800 28.5435 0.7364
85.7000 28.5501 0.7393
85.7200 28.5569 0.7347
85.7400 28.5636 0.7450
85.7600 28.5703 0.7337
85.7800 28.5770 0.7340
85.8000 28.5837 0.7445
85.8200 28.5903 0.7384
85.8400 28.5969 0.7332
85.8600 28.6035 0.7486
85.8800 28.6101 0.7366
85.9000 28.6169 0.7364
85.9200 28.6236 0.7426
85.9400 28.6302 0.7381
85.9600 28.6369 0.7405
85.9800 28.6436 0.7461
86.0000 28.6503 0.7337
86.0200 28.6569 0.7389
86.0400 28.6635 0.7495
86.0600 28.6702 0.7348
86.0800 28.6769 0.7403
86.1000 28.6836 0.7462
86.1200 28.6903 0.7389
86.1400 28.6970 0.7389
86.1600 28.7037 0.7489
86.1800 28.7103 0.7385
86.2000 28.7169 0.7452
86.2200 28.7235 0.7451
86.2400 28.7302 0.7383
86.2600 28.7369 0.7465
86.2800 28.7436 0.7465
86.3000 28.7503 0.7346
86.3200 28.7570 0.7444
86.3400 28.7636 0.7472
86.3600 28.7703 0.7427
86.3800 28.7769 0.7437
86.4000 28.7835 0.7450
86.4200 28.7902 0.7400
86.4400 28.7969 0.7520
86.4600 28.8036 0.7449
86.4800 28.8103 0.7387
86.5000 28.8169 0.7480
86.5200 28.8236 0.7467
86.5400 28.8302 0.7405
86.5600 28.8369 0.7497
86.5800 28.8435 0.7484
86.6000 28.8501 0.7434
86.6200 28.8569 0.7485
86.6400 28.8636 0.7474
86.6600 28.8703 0.7498
86.6800 28.8770 0.7476
86.7000 28.8837 0.7492
86.7200 28.8903 0.7437
86.7400 28.8969 0.7476
86.7600 28.9035 0.7522
86.7800 28.9102 0.7434
86.8000 28.9169 0.7506
86.8200 28.9236 0.7519
86.8400 28.9303 0.7416
86.8600 28.9370 0.7531
86.8800 28.9437 0.7529
86.9000 28.9503 0.7446
86.9200 28.9569 0.7506
86.9400 28.9635 0.7602
86.9600 28.9702 0.7401
86.9800 28.9769 0.7504
87.0000 28.9836 0.7586
87.0200 28.9903 0.7441
87.0400 28.9970 0.7544
87.0600 29.0036 0.7509
87.0800 29.0103 0.7450
87.1000 29.0169 0.7528
87.1200 29.0236 0.7543
87.1400 29.0302 0.7460
87.1600 29.0369 0.7555
87.1800 29.0436 0.7537
87.2000 29.0503 0.7413
87.2200 29.0570 0.7558
87.2400 29.0637 0.7600
87.2600 29.0703 0.7455
87.2800 29.0769 0.7566
87.3000 29.0835 0.7515
87.3200 29.0901 0.7502
87.3400 29.0968 0.7554
87.3600 29.1036 0.7556
87.3800 29.1103 0.7456
87.4000 29.1169 0.7590
87.4200 29.1236 0.7552
87.4400 29.1303 0.7454
87.4600 29.1369 0.7591
87.4800 29.1435 0.7609
87.5000 29.1502 0.7495
87.5200 29.1569 0.7594
87.5400 29.1636 0.7563
87.5600 29.1703 0.7520
87.5800 29.1770 0.7628
87.6000 29.1836 0.7534
87.6200 29.1903 0.7485
87.6400 29.1969 0.7647
87.6600 29.2036 0.7551
87.6800 29.2102 0.7459
87.7000 29.2169 0.7652
87.7200 29.2236 0.7591
87.7400 29.2303 0.7478
87.7600 29.2370 0.7595
87.7800 29.2437 0.7624
87.8000 29.2503 0.7522
87.8200 29.2569 0.7589
87.8400 29.2635 0.7599
87.8600 29.2701 0.7634
87.8800 29.2769 0.7611
87.9000 29.2836 0.7537
87.9200 29.2903 0.7591
87.9400 29.2970 0.7629
87.9600 29.3036 0.7558
87.9800 29.3103 0.7626
88.0000 29.3169 0.7616
88.0200 29.3235 0.7607
88.0400 29.3302 0.7643
88.0600 29.3369 0.7606
88.0800 29.3436 0.7611
88.1000 29.3502 0.7638
88.1200 29.3569 0.7589
88.1400 29.3636 0.7601
88.1600 29.3703 0.7661
88.1800 29.3769 0.7612
88.2000 29.3835 0.7588
88.2200 29.3902 0.7670
88.2400 29.3969 0.7623
88.2600 29.4036 0.7578
88.2800 29.4103 0.7673
88.3000 29.4170 0.7601
88.3200 29.4237 0.7631
88.3400 29.4303 0.7677
88.3600 29.4369 0.7624
88.3800 29.4435 0.7612
88.4000 29.4502 0.7674
88.4200 29.4569 0.7644
88.4400 29.4636 0.7633
88.4600 29.4703 0.7640
88.4800 29.4770 0.7679
88.5000 29.4836 0.7604
88.5200 29.4903 0.7671
88.5400 29.4969 0.7715
88.5600 29.5035 0.7630
88.5800 29.5102 0.7667
88.6000 29.5169 0.7719
88.6200 29.5236 0.7660
88.6400 29.5302 0.7608
88.6600 29.5369 0.7735
88.6800 29.5436 0.7648
88.7000 29.5503 0.7652
88.7200 29.5569 0.7702
88.7400 29.5635 0.7666
88.7600 29.5701 0.7692
88.7800 29.5768 0.7719
88.8000 29.5835 0.7634
88.8200 29.5903 0.7722
88.8400 29.5970 0.7690
88.8600 29.6036 0.7701
88.8800 29.6103 0.7677
88.9000 29.6169 0.7697
88.9200 29.6235 0.7644
88.9400 29.6302 0.7750
88.9600 29.6369 0.7712
88.9800 29.6436 0.7680
89.0000 29.6503 0.7755
89.0200 29.6570 0.7661
89.0400 29.6636 0.7662
89.0600 29.6703 0.7774
89.0800 29.6769 0.7704
89.1000 29.6835 0.7646
89.1200 29.6902 0.7766
89.1400 29.6969 0.7719
89.1600 29.7036 0.7669
89.1800 29.7103 0.7776
89.2000 29.7170 0.7711
89.2200 29.7237 0.7677
89.2400 29.7303 0.7775
89.2600 29.7370 0.7692
89.2800 29.7436 0.7704
89.3000 29.7502 0.7779
89.3200 29.7568 0.7743
89.3400 29.7635 0.7703
89.3600 29.7703 0.7809
89.3800 29.7769 0.7703
89.4000 29.7836 0.7722
89.4200 29.7903 0.7788
89.4400 29.7969 0.7722
89.4600 29.8035 0.7750
89.4800 29.8101 0.7813
89.5000 29.8168 0.7755
89.5200 29.8235 0.7755
89.5400 29.8302 0.7776
89.5600 29.8369 0.7794
89.5800 29.8436 0.7742
89.6000 29.8503 0.7813
89.6200 29.8569 0.7754
89.6400 29.8636 0.7689
89.6600 29.8702 0.7837
89.6800 29.8769 0.7792
89.7000 29.8836 0.7726
89.7200 29.8903 0.7829
89.7400 29.8970 0.7816
89.7600 29.9037 0.7773
89.7800 29.9104 0.7853
89.8000 29.9170 0.7746
89.8200 29.9236 0.7780
89.8400 29.9302 0.7892
89.8600 29.9368 0.7758
89.8800 29.9436 0.7794
89.9000 29.9503 0.7880
89.9200 29.9570 0.7671
89.9400 29.9636 0.7814
89.9600 29.9703 0.7863
89.9800 29.9770 0.7724
90.0000 29.9836 0.7888
90.0200 29.9902 0.7831
90.0400 29.9968 0.7726
90.0600 30.0036 0.7916
90.0800 30.0103 0.7850
90.1000 30.0169 0.7738
90.1200 30.0236 0.7912
90.1400 30.0303 0.7817
90.1600 30.0370 0.7772
90.1800 30.0436 0.7940
90.2000 30.0502 0.7807
90.2200 30.0568 0.7770
90.2400 30.0635 0.7914
90.2600 30.0702 0.7814
90.2800 30.0769 0.7807
90.3000 30.0836 0.7890
90.3200 30.0902 0.7834
90.3400 30.0969 0.7821
90.3600 30.1035 0.7894
90.3800 30.1102 0.7857
90.4000 30.1168 0.7830
90.4200 30.1236 0.7900
90.4400 30.1303 0.7889
90.4600 30.1370 0.7826
90.4800 30.1437 0.7861
90.5000 30.1503 0.7888
90.5200 30.1570 0.7883
90.5400 30.1636 0.7796
90.5600 30.1702 0.7856
90.5800 30.1769 0.7990
90.6000 30.1836 0.7831
90.6200 30.1903 0.7795
90.6400 30.1970 0.7933
90.6600 30.2036 0.7883
90.6800 30.2103 0.7835
90.7000 30.2169 0.7969
90.7200 30.2236 0.7846
90.7400 30.2302 0.7940
90.7600 30.2368 0.7928
90.7800 30.2435 0.7776
90.8000 30.2502 0.7914
90.8200 30.2569 0.8024
90.8400 30.2636 0.7831
90.8600 30.2703 0.7864
90.8800 30.2769 0.7972
90.9000 30.2835 0.7850
90.9200 30.2901 0.7933
90.9400 30.2968 0.8005
90.9600 30.3035 0.7894
90.9800 30.3103 0.7908
91.0000 30.3169 0.7951
91.0200 30.3236 0.7956
91.0400 30.3303 0.7881
91.0600 30.3369 0.8017
91.0800 30.3436 0.7884
91.1000 30.3502 0.7869
91.1200 30.3569 0.8042
91.1400 30.3636 0.7886
91.1600 30.3703 0.7948
91.1800 30.3769 0.8054
91.2000 30.3836 0.7817
91.2200 30.3903 0.7885
91.2400 30.3970 0.8040
91.2600 30.4036 0.7850
91.2800 30.4102 0.8036
91.3000 30.4168 0.7987
91.3200 30.4235 0.7828
91.3400 30.4302 0.8067
91.3600 30.4369 0.7995
91.3800 30.4436 0.7849
91.4000 30.4503 0.8076
91.4200 30.4570 0.7967
91.4400 30.4636 0.7864
91.4600 30.4702 0.8078
91.4800 30.4768 0.8003
91.5000 30.4835 0.7890
91.5200 30.4903 0.8094
91.5400 30.4970 0.7945
91.5600 30.5036 0.7934
91.5800 30.5103 0.8083
91.6000 30.5169 0.7936
91.6200 30.5236 0.7987
91.6400 30.5302 0.8059
91.6600 30.5368 0.7956
91.6800 30.5435 0.8003
91.7000 30.5502 0.8038
91.7200 30.5569 0.7960
91.7400 30.5636 0.8000
91.7600 30.5702 0.8022
91.7800 30.5769 0.7993
91.8000 30.5836 0.8024
91.8200 30.5902 0.8054
91.8400 30.5968 0.7948
91.8600 30.6035 0.8081
91.8800 30.6103 0.7994
91.9000 30.6170 0.7986
91.9200 30.6237 0.8072
91.9400 30.6304 0.8047
91.9600 30.6370 0.7966
91.9800 30.6436 0.8079
92.0000 30.6502 0.8053
92.0200 30.6568 0.7977
92.0400 30.6636 0.8094
92.0600 30.6703 0.8010
92.0800 30.6770 0.7995
92.1000 30.6837 0.8115
92.1200 30.6903 0.7998
92.1400 30.6970 0.8027
92.1600 30.7036 0.8091
92.1800 30.7102 0.8028
92.2000 30.7168 0.8050
92.2200 30.7235 0.8110
92.2400 30.7302 0.8034
92.2600 30.7369 0.8054
92.2800 30.7436 0.8122
92.3000 30.7503 0.8064
92.3200 30.7570 0.8069
92.3400 30.7636 0.8033
92.3600 30.7702 0.8122
92.3800 30.7768 0.8080
92.4000 30.7835 0.8056
92.4200 30.7902 0.8073
92.4400 30.7969 0.8092
92.4600 30.8036 0.8038
92.4800 30.8103 0.8083
92.5000 30.8169 0.8107
92.5200 30.8235 0.8030
92.5400 30.8302 0.8084
92.5600 30.8368 0.8186
92.5800 30.8435 0.8027
92.6000 30.8503 0.8095
92.6200 30.8570 0.8144
92.6400 30.8636 0.8030
92.6600 30.8703 0.8111
92.6800 30.8770 0.8196
92.7000 30.8836 0.8070
92.7200 30.8902 0.8057
92.7400 30.8969 0.8178
92.7600 30.9036 0.8058
92.7800 30.9103 0.8096
92.8000 30.9170 0.8166
92.8200 30.9236 0.8073
92.8400 30.9303 0.8122
92.8600 30.9370 0.8194
92.8800 30.9436 0.8025
92.9000 30.9502 0.8145
92.9200 30.9568 0.8230
92.9400 30.9635 0.8114
92.9600 30.9702 0.8071
92.9800 30.9769 0.8190
93.0000 30.9836 0.8114
93.0200 30.9903 0.8127
93.0400 30.9970 0.8167
93.0600 31.0036 0.8155
93.0800 31.0102 0.8125
93.1000 31.0168 0.8200
93.1200 31.0235 0.8130
93.1400 31.0302 0.8142
93.1600 31.0369 0.8182
93.1800 31.0436 0.8160
93.2000 31.0503 0.8176
93.2200 31.0569 0.8166
93.2400 31.0636 0.8155
93.2600 31.0702 0.8165
93.2800 31.0768 0.8171
93.3000 31.0835 0.8175
93.3200 31.0902 0.8209
93.3400 31.0969 0.8151
93.3600 31.1036 0.8162
93.3800 31.1103 0.8223
93.4000 31.1170 0.8185
93.4200 31.1236 0.8141
93.4400 31.1302 0.8220
93.4600 31.1368 0.8235
93.4800 31.1435 0.8204
93.5000 31.1502 0.8199
93.5200 31.1569 0.8184
93.5400 31.1636 0.8157
93.5600 31.1703 0.8265
93.5800 31.1770 0.8195
93.6000 31.1836 0.8171
93.6200 31.1902 0.8283
93.6400 31.1968 0.8266
93.6600 31.2035 0.8189
93.6800 31.2102 0.8237
93.7000 31.2169 0.8273
93.7200 31.2236 0.8192
93.7400 31.2303 0.8282
93.7600 31.2369 0.8203
93.7800 31.2436 0.8219
93.8000 31.2502 0.8277
93.8200 31.2568 0.8198
93.8400 31.2635 0.8241
93.8600 31.2702 0.8273
93.8800 31.2769 0.8234
93.9000 31.2836 0.8253
93.9200 31.2903 0.8247
93.9400 31.2970 0.8280
93.9600 31.3036 0.8250
93.9800 31.3102 0.8253
94.0000 31.3168 0.8229
94.0200 31.3235 0.8322
94.0400 31.3302 0.8231
94.0600 31.3370 0.8263
94.0800 31.3437 0.8275
94.1000 31.3503 0.8240
94.1200 31.3570 0.8329
94.1400 31.3636 0.8268
94.1600 31.3702 0.8239
94.1800 31.3769 0.8371
94.2000 31.3835 0.8326
94.2200 31.3903 0.8237
94.2400 31.3970 0.8302
94.2600 31.4036 0.8313
94.2800 31.4103 0.8284
94.3000 31.4170 0.8308
94.3200 31.4236 0.8322
94.3400 31.4302 0.8273
94.3600 31.4368 0.8339
94.3800 31.4435 0.8260
94.4000 31.4502 0.8304
94.4200 31.4569 0.8365
94.4400 31.4635 0.8287
94.4600 31.4702 0.8275
94.4800 31.4770 0.8345
94.5000 31.4836 0.8320
94.5200 31.4902 0.8317
94.5400 31.4968 0.8334
94.5600 31.5035 0.8340
94.5800 31.5102 0.8322
94.6000 31.5169 0.8377
94.6200 31.5236 0.8290
94.6400 31.5303 0.8369
94.6600 31.5369 0.8371
94.6800 31.5436 0.8317
94.7000 31.5502 0.8320
94.7200 31.5568 0.8362
94.7400 31.5635 0.8411
94.7600 31.5702 0.8300
94.7800 31.5770 0.8328
94.8000 31.5836 0.8403
94.8200 31.5903 0.8336
94.8400 31.5970 0.8359
94.8600 31.6037 0.8400
94.8800 31.6103 0.8373
94.9000 31.6169 0.8365
94.9200 31.6235 0.8356
94.9400 31.6302 0.8389
94.9600 31.6369 0.8362
94.9800 31.6436 0.8394
95.0000 31.6503 0.8355
95.0200 31.6570 0.8326
95.0400 31.6637 0.8410
95.0600 31.6702 0.8413
95.0800 31.6768 0.8354
95.1000 31.6835 0.8418
95.1200 31.6902 0.8410
95.1400 31.6969 0.8385
95.1600 31.7036 0.8431
95.1800 31.7102 0.8430
95.2000 31.7169 0.8357
95.2200 31.7236 0.8391
95.2400 31.7302 0.8409
95.2600 31.7368 0.8363
95.2800 31.7435 0.8429
95.3000 31.7502 0.8421
95.3200 31.7569 0.8390
95.3400 31.7636 0.8432
95.3600 31.7702 0.8438
95.3800 31.7769 0.8350
95.4000 31.7836 0.8500
95.4200 31.7902 0.8402
95.4400 31.7969 0.8400
95.4600 31.8035 0.8490
95.4800 31.8102 0.8385
95.5000 31.8169 0.8394
95.5200 31.8236 0.8537
95.5400 31.8303 0.8407
95.5600 31.8370 0.8448
95.5800 31.8437 0.8488
95.6000 31.8502 0.8414
95.6200 31.8568 0.8441
95.6400 31.8635 0.8511
95.6600 31.8702 0.8414
95.6800 31.8769 0.8463
95.7000 31.8836 0.8535
95.7200 31.8903 0.8397
95.7400 31.8970 0.8462
95.7600 31.9036 0.8487
95.7800 31.9102 0.8497
95.8000 31.9169 0.8515
95.8200 31.9235 0.8468
95.8400 31.9302 0.8482
95.8600 31.9369 0.8512
95.8800 31.9436 0.8468
95.9000 31.9503 0.8525
95.9200 31.9570 0.8507
95.9400 31.9636 0.8513
95.9600 31.9702 0.8436
95.9800 31.9768 0.8521
96.0000 31.9835 0.8552
96.0200 31.9902 0.8538
96.0400 31.9969 0.8440
96.0600 32.0036 0.8498
96.0800 32.0102 0.8551
96.1000 32.0169 0.8465
96.1200 32.0236 0.8537
96.1400 32.0302 0.8576
96.1600 32.0368 0.8452
96.1800 32.0435 0.8597
96.2000 32.0502 0.8551
96.2200 32.0569 0.8408
96.2400 32.0637 0.8624
96.2600 32.0703 0.8579
96.2800 32.0770 0.8442
96.3000 32.0837 0.8562
96.3200 32.0903 0.8566
96.3400 32.0969 0.8444
96.3600 32.1036 0.8590
96.3800 32.1103 0.8590
96.4000 32.1170 0.8490
96.4200 32.1236 0.8582
96.4400 32.1303 0.8562
96.4600 32.1370 0.8505
96.4800 32.1436 0.8641
96.5000 32.1502 0.8527
96.5200 32.1568 0.8524
96.5400 32.1635 0.8654
96.5600 32.1702 0.8575
96.5800 32.1769 0.8502
96.6000 32.1836 0.8662
96.6200 32.1903 0.8555
96.6400 32.1969 0.8559
96.6600 32.2036 0.8603
96.6800 32.2102 0.8547
96.7000 32.2168 0.8596
96.7200 32.2235 0.8669
96.7400 32.2302 0.8549
96.7600 32.2369 0.8568
96.7800 32.2436 0.8653
96.8000 32.2503 0.8584
96.8200 32.2569 0.8634
96.8400 32.2636 0.8610
96.8600 32.2703 0.8573
96.8800 32.2769 0.8627
96.9000 32.2835 0.8647
96.9200 32.2902 0.8577
96.9400 32.2969 0.8656
96.9600 32.3036 0.8573
96.9800 32.3103 0.8628
97.0000 32.3170 0.8623
97.0200 32.3237 0.8643
97.0400 32.3303 0.8620
97.0600 32.3369 0.8620
97.0800 32.3435 0.8652
97.1000 32.3502 0.8670
97.1200 32.3569 0.8628
97.1400 32.3636 0.8640
97.1600 32.3703 0.8639
97.1800 32.3770 0.8649
97.2000 32.3836 0.8637
97.2200 32.3902 0.8648
97.2400 32.3969 0.8664
97.2600 32.4035 0.8686
97.2800 32.4102 0.8674
97.3000 32.4169 0.8630
97.3200 32.4236 0.8670
97.3400 32.4302 0.8689
97.3600 32.4369 0.8737
97.3800 32.4436 0.8595
97.4000 32.4502 0.8643
97.4200 32.4569 0.8771
97.4400 32.4635 0.8640
97.4600 32.4702 0.8648
97.4800 32.4769 0.8746
97.5000 32.4836 0.8621
97.5200 32.4903 0.8698
97.5400 32.4970 0.8724
97.5600 32.5037 0.8692
97.5800 32.5103 0.8678
97.6000 32.5169 0.8747
97.6200 32.5235 0.8666
97.6400 32.5302 0.8764
97.6600 32.5369 0.8729
97.6800 32.5436 0.8661
97.7000 32.5503 0.8718
97.7200 32.5570 0.8696
97.7400 32.5636 0.8733
97.7600 32.5703 0.8700
97.7800 32.5769 0.8738
97.8000 32.5835 0.8761
97.8200 32.5902 0.8716
97.8400 32.5969 0.8742
97.8600 32.6036 0.8737
97.8800 32.6103 0.8751
97.9000 32.6170 0.8758
97.9200 32.6237 0.8742
97.9400 32.6303 0.8708
97.9600 32.6369 0.8719
97.9800 32.6435 0.8796
98.0000 32.6502 0.8707
98.0200 32.6569 0.8776
98.0400 32.6636 0.8770
98.0600 32.6703 0.8734
98.0800 32.6769 0.8812
98.1000 32.6836 0.8757
98.1200 32.6902 0.8724
98.1400 32.6968 0.8809
98.1600 32.7034 0.8800
98.1800 32.7101 0.8772
98.2000 32.7169 0.8801
98.2200 32.7236 0.8819
98.2400 32.7302 0.8748
98.2600 32.7369 0.8817
98.2800 32.7436 0.8785
98.3000 32.7503 0.8779
98.3200 32.7569 0.8856
98.3400 32.7635 0.8762
98.3600 32.7702 0.8867
98.3800 32.7769 0.8835
98.4000 32.7836 0.8752
98.4200 32.7903 0.8863
98.4400 32.7970 0.8866
98.4600 32.8037 0.8744
98.4800 32.8103 0.8839
98.5000 32.8169 0.8858
98.5200 32.8235 0.8733
98.5400 32.8302 0.8826
98.5600 32.8369 0.8909
98.5800 32.8436 0.8705
98.6000 32.8503 0.8861
98.6200 32.8570 0.8855
98.6400 32.8636 0.8766
98.6600 32.8703 0.8875
98.6800 32.8769 0.8880
98.7000 32.8835 0.8754
98.7200 32.8902 0.8887
98.7400 32.8969 0.8879
98.7600 32.9036 0.8775
98.7800 32.9103 0.8909
98.8000 32.9169 0.8869
98.8200 32.9236 0.8782
98.8400 32.9303 0.8926
98.8600 32.9369 0.8894
98.8800 32.9435 0.8803
98.9000 32.9502 0.8927
98.9200 32.9569 0.8882
98.9400 32.9636 0.8789
98.9600 32.9702 0.8888
98.9800 32.9769 0.8973
99.0000 32.9836 0.8801
99.0200 32.9903 0.8910
99.0400 32.9969 0.8933
99.0600 33.0035 0.8842
99.0800 33.0102 0.8968
99.1000 33.0169 0.8912
99.1200 33.0236 0.8779
99.1400 33.0303 0.8967
99.1600 33.0370 0.8946
99.1800 33.0437 0.8804
99.2000 33.0503 0.8939
99.2200 33.0569 0.8952
99.2400 33.0635 0.8859
99.2600 33.0702 0.8981
99.2800 33.0769 0.8961
99.3000 33.0836 0.8811
99.3200 33.0903 0.8987
99.3400 33.0970 0.8988
99.3600 33.1037 0.8838
99.3800 33.1103 0.8921
99.4000 33.1169 0.8975
99.4200 33.1235 0.8868
99.4400 33.1302 0.8980
99.4600 33.1369 0.8998
99.4800 33.1436 0.8900
99.5000 33.1502 0.8977
99.5200 33.1569 0.9020
99.5400 33.1636 0.8835
99.5600 33.1703 0.8972
99.5800 33.1769 0.9022
99.6000 33.1835 0.8893
99.6200 33.1901 0.9000
99.6400 33.1968 0.9029
99.6600 33.2036 0.8892
99.6800 33.2103 0.8959
99.7000 33.2169 0.8995
99.7200 33.2236 0.8956
99.7400 33.2303 0.9012
99.7600 33.2369 0.9027
99.7800 33.2435 0.8936
99.8000 33.2502 0.8986
99.8200 33.2569 0.9015
99.8400 33.2636 0.8942
99.8600 33.2703 0.9047
99.8800 33.2770 0.9000
99.9000 33.2837 0.8962
99.9200 33.2903 0.9026
99.9400 33.2969 0.9036
99.9600 33.3035 0.9024
99.9800 33.3102 0.8956
100.0000 33.3169 0.9044
100.0200 33.3236 0.9028
100.0400 33.3303 0.8952
100.0600 33.3370 0.9101
100.0800 33.3437 0.9005
100.1000 33.3503 0.8996
100.1200 33.3569 0.9139
100.1400 33.3635 0.9041
100.1600 33.3702 0.8960
100.1800 33.3769 0.9161
100.2000 33.3836 0.9002
100.2200 33.3903 0.8963
100.2400 33.3969 0.9139
100.2600 33.4036 0.8979
100.2800 33.4103 0.9002
100.3000 33.4169 0.9183
100.3200 33.4235 0.9042
100.3400 33.4301 0.8989
100.3600 33.4368 0.9142
100.3800 33.4436 0.9057
100.4000 33.4503 0.9068
100.4200 33.4569 0.9176
100.4400 33.4636 0.8959
100.4600 33.4703 0.9062
100.4800 33.4769 0.9211
100.5000 33.4835 0.8989
100.5200 33.4902 0.9159
100.5400 33.4969 0.9130
100.5600 33.5036 0.9005
100.5800 33.5103 0.9118
100.6000 33.5170 0.9172
100.6200 33.5237 0.9044
100.6400 33.5303 0.9142
100.6600 33.5369 0.9129
100.6800 33.5435 0.9060
100.7000 33.5502 0.9180
100.7200 33.5569 0.9108
100.7400 33.5636 0.9034
100.7600 33.5703 0.9242
100.7800 33.5770 0.9081
100.8000 33.5836 0.9097
100.8200 33.5903 0.9201
100.8400 33.5969 0.9032
100.8600 33.6035 0.9157
100.8800 33.6102 0.9214
100.9000 33.6169 0.9083
100.9200 33.6236 0.9102
100.9400 33.6302 0.9219
100.9600 33.6369 0.9146
100.9800 33.6436 0.9178
101.0000 33.6503 0.9138
101.0200 33.6569 0.9146
101.0400 33.6635 0.9210
101.0600 33.6702 0.9123
101.0800 33.6768 0.9160
101.1000 33.6836 0.9287
101.1200 33.6902 0.9086
101.1400 33.6969 0.9185
101.1600 33.7036 0.9239
101.1800 33.7103 0.9094
101.2000 33.7169 0.9187
101.2200 33.7235 0.9233
101.2400 33.7302 0.9102
101.2600 33.7369 0.9206
101.2800 33.7436 0.9259
101.3000 33.7503 0.9124
101.3200 33.7570 0.9238
101.3400 33.7637 0.9255
101.3600 33.7703 0.9159
101.3800 33.7769 0.9270
101.4000 33.7835 0.9229
101.4200 33.7902 0.9188
101.4400 33.7969 0.9276
101.4600 33.8036 0.9201
101.4800 33.8103 0.9224
101.5000 33.8169 0.9260
101.5200 33.8236 0.9203
101.5400 33.8303 0.9198
101.5600 33.8370 0.9280
101.5800 33.8436 0.9218
101.6000 33.8502 0.9244
101.6200 33.8569 0.9237
101.6400 33.8636 0.9272
101.6600 33.8703 0.9285
101.6800 33.8769 0.9229
101.7000 33.8836 0.9284
101.7200 33.8903 0.9255
101.7400 33.8969 0.9214
101.7600 33.9035 0.9360
101.7800 33.9101 0.9257
101.8000 33.9168 0.9261
101.8200 33.9236 0.9331
101.8400 33.9303 0.9235
101.8600 33.9369 0.9296
101.8800 33.9436 0.9314
101.9000 33.9503 0.9262
101.9200 33.9569 0.9322
101.9400 33.9635 0.9329
101.9600 33.9702 0.9209
101.9800 33.9769 0.9395
102.0000 33.9836 0.9318
102.0200 33.9903 0.9177
102.0400 33.9969 0.9400
102.0600 34.0036 0.9381
102.0800 34.0103 0.9154
102.1000 34.0170 0.9401
102.1200 34.0236 0.9379
102.1400 34.0302 0.9218
102.1600 34.0369 0.9374
102.1800 34.0436 0.9363
102.2000 34.0503 0.9198
102.2200 34.0570 0.9424
102.2400 34.0637 0.9335
102.2600 34.0703 0.9260
102.2800 34.0770 0.9439
102.3000 34.0835 0.9306
102.3200 34.0902 0.9343
102.3400 34.0969 0.9436
102.3600 34.1036 0.9288
102.3800 34.1103 0.9345
102.4000 34.1170 0.9446
102.4200 34.1236 0.9310
102.4400 34.1303 0.9358
102.4600 34.1369 0.9421
102.4800 34.1435 0.9364
102.5000 34.1502 0.9368
102.5200 34.1568 0.9364
102.5400 34.1635 0.9357
102.5600 34.1702 0.9436
102.5800 34.1769 0.9363
102.6000 34.1836 0.9426
102.6200 34.1903 0.9408
102.6400 34.1969 0.9349
102.6600 34.2035 0.9424
102.6800 34.2102 0.9475
102.7000 34.2169 0.9365
102.7200 34.2236 0.9467
102.7400 34.2303 0.9386
102.7600 34.2370 0.9351
102.7800 34.2437 0.9531
102.8000 34.2503 0.9414
102.8200 34.2570 0.9344
102.8400 34.2635 0.9514
102.8600 34.2702 0.9483
102.8800 34.2769 0.9361
102.9000 34.2836 0.9526
102.9200 34.2903 0.9415
102.9400 34.2970 0.9373
102.9600 34.3036 0.9555
102.9800 34.3103 0.9378
103.0000 34.3169 0.9379
103.0200 34.3235 0.9600
103.0400 34.3302 0.9360
103.0600 34.3368 0.9491
103.0800 34.3435 0.9560
103.1000 34.3502 0.9372
103.1200 34.3569 0.9506
103.1400 34.3636 0.9567
103.1600 34.3703 0.9383
103.1800 34.3769 0.9517
103.2000 34.3835 0.9532
103.2200 34.3901 0.9398
103.2400 34.3968 0.9565
103.2600 34.4035 0.9533
103.2800 34.4103 0.9447
103.3000 34.4170 0.9474
103.3200 34.4236 0.9485
103.3400 34.4303 0.9504
103.3600 34.4369 0.9526
103.3800 34.4435 0.9467
103.4000 34.4502 0.9551
103.4200 34.4568 0.9519
103.4400 34.4636 0.9525
103.4600 34.4703 0.9531
103.4800 34.4769 0.9471
103.5000 34.4836 0.9546
103.5200 34.4903 0.9609
103.5400 34.4970 0.9421
103.5600 34.5036 0.9606
103.5800 34.5102 0.9589
103.6000 34.5169 0.9399
103.6200 34.5236 0.9634
103.6400 34.5303 0.9567
103.6600 34.5370 0.9421
103.6800 34.5436 0.9682
103.7000 34.5503 0.9520
103.7200 34.5570 0.9436
103.7400 34.5636 0.9691
103.7600 34.5702 0.9604
103.7800 34.5768 0.9439
103.8000 34.5835 0.9743
103.8200 34.5903 0.9536
103.8400 34.5969 0.9483
103.8600 34.6036 0.9746
103.8800 34.6103 0.9490
103.9000 34.6169 0.9531
103.9200 34.6235 0.9718
103.9400 34.6301 0.9548
103.9600 34.6368 0.9554
103.9800 34.6435 0.9706
104.0000 34.6502 0.9538
104.0200 34.6569 0.9572
104.0400 34.6636 0.9685
104.0600 34.6702 0.9602
104.0800 34.6769 0.9562
104.1000 34.6836 0.9682
104.1200 34.6902 0.9617
104.1400 34.6968 0.9619
104.1600 34.7036 0.9635
104.1800 34.7103 0.9608
104.2000 34.7170 0.9616
104.2200 34.7236 0.9692
104.2400 34.7303 0.9621
104.2600 34.7370 0.9540
104.2800 34.7436 0.9670
104.3000 34.7502 0.9688
104.3200 34.7568 0.9629
104.3400 34.7635 0.9679
104.3600 34.7703 0.9646
104.3800 34.7770 0.9612
104.4000 34.7836 0.9733
104.4200 34.7903 0.9678
104.4400 34.7970 0.9593
104.4600 34.8036 0.9685
104.4800 34.8102 0.9733
104.5000 34.8168 0.9609
104.5200 34.8235 0.9717
104.5400 34.8302 0.9720
104.5600 34.8369 0.9602
104.5800 34.8436 0.9721
104.6000 34.8503 0.9806
104.6200 34.8569 0.9597
104.6400 34.8636 0.9707
104.6600 34.8702 0.9767
104.6800 34.8769 0.9644
104.7000 34.8835 0.9758
104.7200 34.8902 0.9798
104.7400 34.8969 0.9589
104.7600 34.9036 0.9728
104.7800 34.9102 0.9823
104.8000 34.9169 0.9641
104.8200 34.9235 0.9729
104.8400 34.9302 0.9798
104.8600 34.9368 0.9677
104.8800 34.9436 0.9778
104.9000 34.9503 0.9794
104.9200 34.9570 0.9647
104.9400 34.9637 0.9806
104.9600 34.9703 0.9769
104.9800 34.9770 0.9693
105.0000 34.9836 0.9858
105.0200 34.9902 0.9772
105.0400 34.9969 0.9662
105.0600 35.0036 0.9895
105.0800 35.0103 0.9793
105.1000 35.0170 0.9686
105.1200 35.0237 0.9800
105.1400 35.0303 0.9794
105.1600 35.0370 0.9724
105.1800 35.0436 0.9859
105.2000 35.0502 0.9801
105.2200 35.0568 0.9755
105.2400 35.0635 0.9788
105.2600 35.0702 0.9805
105.2800 35.0769 0.9854
105.3000 35.0836 0.9809
105.3200 35.0902 0.9798
105.3400 35.0969 0.9808
105.3600 35.1035 0.9793
105.3800 35.1101 0.9862
105.4000 35.1168 0.9877
105.4200 35.1235 0.9749
105.4400 35.1302 0.9856
105.4600 35.1369 0.9883
105.4800 35.1436 0.9763
105.5000 35.1503 0.9864
105.5200 35.1569 0.9881
105.5400 35.1636 0.9779
105.5600 35.1702 0.9910
105.5800 35.1769 0.9845
105.6000 35.1836 0.9806
105.6200 35.1903 0.9924
105.6400 35.1969 0.9860
105.6600 35.2036 0.9808
105.6800 35.2103 0.9958
105.7000 35.2170 0.9835
105.7200 35.2236 0.9819
105.7400 35.2302 0.9955
105.7600 35.2368 0.9839
105.7800 35.2435 0.9853
105.8000 35.2502 0.9963
105.8200 35.2570 0.9814
105.8400 35.2636 0.9837
105.8600 35.2703 0.9964
105.8800 35.2770 0.9865
105.9000 35.2836 0.9883
105.9200 35.2902 0.9944
105.9400 35.2968 0.9928
105.9600 35.3036 0.9918
105.9800 35.3103 0.9912
106.0000 35.3170 0.9895
106.0200 35.3236 0.9954
106.0400 35.3303 0.9896
106.0600 35.3369 0.9912
106.0800 35.3436 0.9917
106.1000 35.3502 0.9976
106.1200 35.3568 0.9927
106.1400 35.3635 0.9938
106.1600 35.3702 0.9939
106.1800 35.3769 1.0002
106.2000 35.3836 0.9937
106.2200 35.3902 0.9914
106.2400 35.3969 1.0000
106.2600 35.4036 0.9965
106.2800 35.4102 0.9879
106.3000 35.4168 1.0049
106.3200 35.4235 0.9992
106.3400 35.4302 0.9939
106.3600 35.4370 1.0008
106.3800 35.4437 0.9982
106.4000 35.4504 1.0005
106.4200 35.4570 0.9976
106.4400 35.4636 0.9991
106.4600 35.4702 1.0033
106.4800 35.4768 1.0018
106.5000 35.4835 0.9936
106.5200 35.4903 1.0052
106.5400 35.4970 1.0029
106.5600 35.5037 0.9959
106.5800 35.5103 1.0019
106.6000 35.5170 1.0084
106.6200 35.5236 0.9960
106.6400 35.5302 0.9989
106.6600 35.5368 1.0149
106.6800 35.5435 1.0037
106.7000 35.5502 0.9883
106.7200 35.5569 1.0174
106.7400 35.5636 1.0096
106.7600 35.5703 0.9926
106.7800 35.5769 1.0138
106.8000 35.5836 1.0125
106.8200 35.5902 0.9961
106.8400 35.5968 1.0189
106.8600 35.6035 1.0032
106.8800 35.6102 0.9946
106.9000 35.6169 1.0250
106.9200 35.6236 1.0000
106.9400 35.6303 0.9941
106.9600 35.6369 1.0279
106.9800 35.6436 0.9967
107.0000 35.6502 0.9983
107.0200 35.6568 1.0370
107.0400 35.6635 0.9977
107.0600 35.6703 1.0017
107.0800 35.6770 1.0315
107.1000 35.6836 0.9966
107.1200 35.6903 1.0067
107.1400 35.6970 1.0327
107.1600 35.7036 0.9933
107.1800 35.7102 1.0111
107.2000 35.7169 1.0318
107.2200 35.7236 0.9991
107.2400 35.7303 1.0093
107.2600 35.7370 1.0266
107.2800 35.7436 1.0035
107.3000 35.7503 1.0140
107.3200 35.7570 1.0202
107.3400 35.7636 1.0083
107.3600 35.7702 1.0172
107.3800 35.7768 1.0257
107.4000 35.7835 1.0085
107.4200 35.7902 1.0174
107.4400 35.7969 1.0259
107.4600 35.8036 1.0080
107.4800 35.8103 1.0168
107.5000 35.8170 1.0295
107.5200 35.8236 1.0137
107.5400 35.8302 1.0121
107.5600 35.8368 1.0278
107.5800 35.8435 1.0170
107.6000 35.8502 1.0127
107.6200 35.8569 1.0288
107.6400 35.8636 1.0190
107.6600 35.8702 1.0133
107.6800 35.8769 1.0381
107.7000 35.8836 1.0060
107.7200 35.8902 1.0138
107.7400 35.8969 1.0418
107.7600 35.9035 1.0088
107.7800 35.9102 1.0186
107.8000 35.9169 1.0427
107.8200 35.9236 1.0118
107.8400 35.9303 1.0203
107.8600 35.9370 1.0363
107.8800 35.9436 1.0142
107.9000 35.9502 1.0219
107.9200 35.9568 1.0365
107.9400 35.9635 1.0169
107.9600 35.9702 1.0207
107.9800 35.9770 1.0359
108.0000 35.9836 1.0177
108.0200 35.9903 1.0278
108.0400 35.9970 1.0317
108.0600 36.0036 1.0227
108.0800 36.0102 1.0276
108.1000 36.0169 1.0343
108.1200 36.0235 1.0248
108.1400 36.0302 1.0301
108.1600 36.0369 1.0291
108.1800 36.0436 1.0274
108.2000 36.0503 1.0328
108.2200 36.0570 1.0366
108.2400 36.0636 1.0262
108.2600 36.0702 1.0356
108.2800 36.0768 1.0290
108.3000 36.0835 1.0340
108.3200 36.0902 1.0335
108.3400 36.0969 1.0277
108.3600 36.1036 1.0366
108.3800 36.1103 1.0336
108.4000 36.1170 1.0326
108.4200 36.1236 1.0291
108.4400 36.1302 1.0431
108.4600 36.1368 1.0296
108.4800 36.1435 1.0284
108.5000 36.1502 1.0392
108.5200 36.1570 1.0446
108.5400 36.1637 1.0292
108.5600 36.1703 1.0264
108.5800 36.1770 1.0516
108.6000 36.1836 1.0356
108.6200 36.1902 1.0229
108.6400 36.1969 1.0558
108.6600 36.2036 1.0396
108.6800 36.2103 1.0259
108.7000 36.2169 1.0427
108.7200 36.2236 1.0462
108.7400 36.2303 1.0274
108.7600 36.2370 1.0502
108.7800 36.2436 1.0462
108.8000 36.2502 1.0214
108.8200 36.2568 1.0512
108.8400 36.2635 1.0511
108.8600 36.2702 1.0269
108.8800 36.2769 1.0428
108.9000 36.2836 1.0561
108.9200 36.2903 1.0323
108.9400 36.2970 1.0330
108.9600 36.3036 1.0578
108.9800 36.3102 1.0431
109.0000 36.3168 1.0348
109.0200 36.3235 1.0558
109.0400 36.3302 1.0400
109.0600 36.3369 1.0424
109.0800 36.3436 1.0481
109.1000 36.3503 1.0442
109.1200 36.3569 1.0387
109.1400 36.3636 1.0587
109.1600 36.3702 1.0427
109.1800 36.3768 1.0402
109.2000 36.3835 1.0594
109.2200 36.3902 1.0452
109.2400 36.3969 1.0442
109.2600 36.4036 1.0586
109.2800 36.4103 1.0423
109.3000 36.4170 1.0512
109.3200 36.4236 1.0576
109.3400 36.4303 1.0426
109.3600 36.4369 1.0521
109.3800 36.4435 1.0655
109.4000 36.4502 1.0377
109.4200 36.4569 1.0510
109.4400 36.4636 1.0674
109.4600 36.4703 1.0423
109.4800 36.4770 1.0504
109.5000 36.4837 1.0620
109.5200 36.4902 1.0436
109.5400 36.4968 1.0557
109.5600 36.5035 1.0599
109.5800 36.5102 1.0473
109.6000 36.5169 1.0647
109.6200 36.5236 1.0545
109.6400 36.5302 1.0497
109.6600 36.5369 1.0612
109.6800 36.5436 1.0558
109.7000 36.5502 1.0520
109.7200 36.5568 1.0634
109.7400 36.5635 1.0493
109.7600 36.5702 1.0640
109.7800 36.5769 1.0646
109.8000 36.5836 1.0495
109.8200 36.5902 1.0596
109.8400 36.5969 1.0658
109.8600 36.6036 1.0552
109.8800 36.6102 1.0606
109.9000 36.6169 1.0564
109.9200 36.6235 1.0654
109.9400 36.6302 1.0663
109.9600 36.6369 1.0524
109.9800 36.6436 1.0698
110.0000 36.6503 1.0646
110.0200 36.6570 1.0513
110.0400 36.6637 1.0729
110.0600 36.6702 1.0655
110.0800 36.6768 1.0506
110.1000 36.6835 1.0846
110.1200 36.6902 1.0636
110.1400 36.6969 1.0498
110.1600 36.7036 1.0849
110.1800 36.7103 1.0679
110.2000 36.7170 1.0480
110.2200 36.7236 1.0801
110.2400 36.7303 1.0632
110.2600 36.7369 1.0645
110.2800 36.7435 1.0821
110.3000 36.7502 1.0620
110.3200 36.7569 1.0591
110.3400 36.7636 1.0792
110.3600 36.7703 1.0706
110.3800 36.7769 1.0614
110.4000 36.7836 1.0763
110.4200 36.7903 1.0720
110.4400 36.7968 1.0593
110.4600 36.8035 1.0757
110.4800 36.8101 1.0803
110.5000 36.8169 1.0601
110.5200 36.8236 1.0774
110.5400 36.8302 1.0826
110.5600 36.8369 1.0579
110.5800 36.8436 1.0774
110.6000 36.8502 1.0861
110.6200 36.8568 1.0598
110.6400 36.8635 1.0844
110.6600 36.8702 1.0763
110.6800 36.8769 1.0661
110.7000 36.8836 1.0870
110.7200 36.8903 1.0766
110.7400 36.8970 1.0624
110.7600 36.9037 1.0899
110.7800 36.9103 1.0812
110.8000 36.9169 1.0680
110.8200 36.9236 1.0891
110.8400 36.9303 1.0813
110.8600 36.9370 1.0638
110.8800 36.9436 1.0957
110.9000 36.9503 1.0827
110.9200 36.9570 1.0666
110.9400 36.9637 1.0881
110.9600 36.9703 1.0878
110.9800 36.9769 1.0714
111.0000 36.9835 1.0878
111.0200 36.9902 1.0934
111.0400 36.9969 1.0675
111.0600 37.0036 1.0894
111.0800 37.0103 1.0914
111.1000 37.0169 1.0703
111.1200 37.0236 1.0927
111.1400 37.0302 1.0944
111.1600 37.0368 1.0707
111.1800 37.0435 1.0953
111.2000 37.0502 1.0931
111.2200 37.0569 1.0722
111.2400 37.0636 1.0952
111.2600 37.0703 1.0962
111.2800 37.0769 1.0713
111.3000 37.0836 1.0980
111.3200 37.0903 1.0913
111.3400 37.0969 1.0817
111.3600 37.1035 1.0989
111.3800 37.1102 1.0896
111.4000 37.1169 1.0811
111.4200 37.1236 1.1036
111.4400 37.1303 1.0905
111.4600 37.1370 1.0820
111.4800 37.1437 1.1018
111.5000 37.1503 1.0933
111.5200 37.1569 1.0859
111.5400 37.1635 1.0977
111.5600 37.1702 1.0986
111.5800 37.1769 1.0879
111.6000 37.1836 1.0951
111.6200 37.1903 1.0952
111.6400 37.1970 1.0927
111.6600 37.2036 1.0957
111.6800 37.2102 1.0974
111.7000 37.2168 1.0950
111.7200 37.2235 1.1012
111.7400 37.2302 1.0966
111.7600 37.2369 1.0933
111.7800 37.2436 1.1018
111.8000 37.2503 1.1046
111.8200 37.2569 1.0925
111.8400 37.2636 1.0987
111.8600 37.2703 1.1011
111.8800 37.2769 1.0976
111.9000 37.2835 1.1050
111.9200 37.2902 1.1049
111.9400 37.2969 1.0953
111.9600 37.3036 1.1032
111.9800 37.3102 1.1017
112.0000 37.3169 1.0978
112.0200 37.3236 1.1094
112.0400 37.3303 1.0976
112.0600 37.3369 1.1018
112.0800 37.3435 1.1104
112.1000 37.3502 1.1045
112.1200 37.3569 1.0967
112.1400 37.3636 1.1132
112.1600 37.3703 1.1036
112.1800 37.3770 1.0981
112.2000 37.3836 1.1122
112.2200 37.3903 1.1097
112.2400 37.3969 1.1054
112.2600 37.4035 1.1095
112.2800 37.4102 1.1046
112.3000 37.4169 1.1118
112.3200 37.4236 1.1093
112.3400 37.4303 1.1080
112.3600 37.4370 1.1098
112.3800 37.4436 1.1034
112.4000 37.4503 1.1105
112.4200 37.4569 1.1190
112.4400 37.4635 1.1064
112.4600 37.4702 1.1122
112.4800 37.4769 1.1155
112.5000 37.4836 1.1035
112.5200 37.4903 1.1208
112.5400 37.4970 1.1157
112.5600 37.5036 1.0988
112.5800 37.5103 1.1247
112.6000 37.5168 1.1226
112.6200 37.5234 1.0928
112.6400 37.5301 1.1329
112.6600 37.5368 1.1199
112.6800 37.5436 1.0928
112.7000 37.5503 1.1306
112.7200 37.5569 1.1218
112.7400 37.5636 1.0991
112.7600 37.5703 1.1342
112.7800 37.5769 1.1175
112.8000 37.5835 1.1058
112.8200 37.5902 1.1356
112.8400 37.5969 1.1152
112.8600 37.6036 1.1069
112.8800 37.6103 1.1380
112.9000 37.6170 1.1141
112.9200 37.6237 1.1104
112.9400 37.6303 1.1330
112.9600 37.6369 1.1187
112.9800 37.6436 1.1187
113.0000 37.6502 1.1358
113.0200 37.6569 1.1191
113.0400 37.6636 1.1240
113.0600 37.6703 1.1365
113.0800 37.6770 1.1204
113.1000 37.6837 1.1246
113.1200 37.6903 1.1279
113.1400 37.6969 1.1271
113.1600 37.7035 1.1255
113.1800 37.7102 1.1302
113.2000 37.7169 1.1268
113.2200 37.7236 1.1227
113.2400 37.7303 1.1289
113.2600 37.7369 1.1344
113.2800 37.7436 1.1188
113.3000 37.7503 1.1304
113.3200 37.7569 1.1381
113.3400 37.7635 1.1274
113.3600 37.7702 1.1316
113.3800 37.7769 1.1376
113.4000 37.7836 1.1227
113.4200 37.7903 1.1339
113.4400 37.7969 1.1424
113.4600 37.8036 1.1247
113.4800 37.8103 1.1320
113.5000 37.8169 1.1375
113.5200 37.8235 1.1277
113.5400 37.8302 1.1347
113.5600 37.8369 1.1373
113.5800 37.8436 1.1291
113.6000 37.8503 1.1381
113.6200 37.8570 1.1351
113.6400 37.8637 1.1318
113.6600 37.8703 1.1385
113.6800 37.8769 1.1426
113.7000 37.8835 1.1307
113.7200 37.8902 1.1401
113.7400 37.8969 1.1445
113.7600 37.9036 1.1361
113.7800 37.9103 1.1393
113.8000 37.9170 1.1476
113.8200 37.9237 1.1378
113.8400 37.9303 1.1396
113.8600 37.9369 1.1478
113.8800 37.9435 1.1411
113.9000 37.9502 1.1358
113.9200 37.9569 1.1519
113.9400 37.9636 1.1370
113.9600 37.9702 1.1411
113.9800 37.9769 1.1548
114.0000 37.9836 1.1368
114.0200 37.9903 1.1467
114.0400 37.9969 1.1535
114.0600 38.0035 1.1402
114.0800 38.0102 1.1464
114.1000 38.0168 1.1554
114.1200 38.0236 1.1382
114.1400 38.0302 1.1485
114.1600 38.0369 1.1579
114.1800 38.0436 1.1403
114.2000 38.0502 1.1456
114.2200 38.0569 1.1581
114.2400 38.0635 1.1430
114.2600 38.0702 1.1488
114.2800 38.0769 1.1617
114.3000 38.0836 1.1447
114.3200 38.0903 1.1472
114.3400 38.0970 1.1600
114.3600 38.1037 1.1480
114.3800 38.1103 1.1519
114.4000 38.1169 1.1610
114.4200 38.1235 1.1479
114.4400 38.1302 1.1493
114.4600 38.1369 1.1664
114.4800 38.1436 1.1481
114.5000 38.1503 1.1495
114.5200 38.1570 1.1675
114.5400 38.1637 1.1515
114.5600 38.1703 1.1474
114.5800 38.1769 1.1637
114.6000 38.1835 1.1563
114.6200 38.1901 1.1554
114.6400 38.1968 1.1639
114.6600 38.2035 1.1531
114.6800 38.2102 1.1599
114.7000 38.2169 1.1704
114.7200 38.2236 1.1550
114.7400 38.2303 1.1507
114.7600 38.2369 1.1741
114.7800 38.2435 1.1568
114.8000 38.2501 1.1545
114.8200 38.2568 1.1747
114.8400 38.2636 1.1616
114.8600 38.2702 1.1490
114.8800 38.2769 1.1731
114.9000 38.2836 1.1642
114.9200 38.2902 1.1553
114.9400 38.2969 1.1738
114.9600 38.3035 1.1612
114.9800 38.3102 1.1578
115.0000 38.3169 1.1812
115.0200 38.3236 1.1630
115.0400 38.3303 1.1581
115.0600 38.3370 1.1821
115.0800 38.3437 1.1568
115.1000 38.3503 1.1638
115.1200 38.3570 1.1804
115.1400 38.3635 1.1621
115.1600 38.3702 1.1656
115.1800 38.3769 1.1831
115.2000 38.3836 1.1625
115.2200 38.3903 1.1712
115.2400 38.3970 1.1797
115.2600 38.4037 1.1695
115.2800 38.4103 1.1688
115.3000 38.4169 1.1801
115.3200 38.4235 1.1694
115.3400 38.4301 1.1771
115.3600 38.4368 1.1793
115.3800 38.4436 1.1713
115.4000 38.4502 1.1746
115.4200 38.4569 1.1807
115.4400 38.4636 1.1747
115.4600 38.4703 1.1704
115.4800 38.4769 1.1793
115.5000 38.4835 1.1810
115.5200 38.4901 1.1741
115.5400 38.4968 1.1826
115.5600 38.5036 1.1803
115.5800 38.5103 1.1755
115.6000 38.5169 1.1855
115.6200 38.5236 1.1803
115.6400 38.5303 1.1772
115.6600 38.5370 1.1834
115.6800 38.5436 1.1834
115.7000 38.5502 1.1766
115.7200 38.5569 1.1911
115.7400 38.5636 1.1839
115.7600 38.5703 1.1780
115.7800 38.5770 1.1887
115.8000 38.5837 1.1885
115.8200 38.5903 1.1819
115.8400 38.5969 1.1908
115.8600 38.6035 1.1865
115.8800 38.6102 1.1863
115.9000 38.6169 1.1898
115.9200 38.6236 1.1905
115.9400 38.6303 1.1837
115.9600 38.6370 1.1905
115.9800 38.6436 1.1863
116.0000 38.6503 1.1866
116.0200 38.6570 1.1910
116.0400 38.6636 1.1940
116.0600 38.6702 1.1899
116.0800 38.6769 1.1886
116.1000 38.6836 1.1992
116.1200 38.6902 1.1894
116.1400 38.6969 1.1934
116.1600 38.7036 1.1989
116.1800 38.7103 1.1887
116.2000 38.7169 1.1971
116.2200 38.7235 1.1966
116.2400 38.7301 1.1894
116.2600 38.7368 1.2028
116.2800 38.7435 1.1940
116.3000 38.7503 1.1933
116.3200 38.7569 1.2020
116.3400 38.7636 1.2025
116.3600 38.7703 1.1926
116.3800 38.7769 1.2010
116.4000 38.7835 1.1972
116.4200 38.7902 1.1983
116.4400 38.7969 1.2066
116.4600 38.8036 1.1972
116.4800 38.8102 1.1998
116.5000 38.8169 1.2041
116.5200 38.8236 1.2000
116.5400 38.8303 1.2033
116.5600 38.8370 1.2026
116.5800 38.8436 1.2032
116.6000 38.8502 1.2045
116.6200 38.8569 1.2030
116.6400 38.8636 1.2027
116.6600 38.8703 1.2061
116.6800 38.8770 1.2077
116.7000 38.8837 1.2045
116.7200 38.8903 1.2088
116.7400 38.8970 1.2021
116.7600 38.9035 1.2139
116.7800 38.9101 1.2110
116.8000 38.9168 1.2039
116.8200 38.9236 1.2141
116.8400 38.9303 1.2104
116.8600 38.9370 1.2002
116.8800 38.9436 1.2177
116.9000 38.9503 1.2135
116.9200 38.9569 1.2056
116.9400 38.9635 1.2128
116.9600 38.9701 1.2173
116.9800 38.9768 1.2053
117.0000 38.9835 1.2185
117.0200 38.9902 1.2166
117.0400 38.9969 1.2037
117.0600 39.0036 1.2266
117.0800 39.0103 1.2183
117.1000 39.0169 1.2047
117.1200 39.0236 1.2259
117.1400 39.0302 1.2179
117.1600 39.0369 1.2085
117.1800 39.0436 1.2265
117.2000 39.0503 1.2167
117.2200 39.0570 1.2131
117.2400 39.0637 1.2266
117.2600 39.0703 1.2194
117.2800 39.0770 1.2113
117.3000 39.0836 1.2278
117.3200 39.0902 1.2175
117.3400 39.0969 1.2189
117.3600 39.1036 1.2290
117.3800 39.1103 1.2167
117.4000 39.1170 1.2213
117.4200 39.1236 1.2292
117.4400 39.1303 1.2190
117.4600 39.1369 1.2189
117.4800 39.1435 1.2308
117.5000 39.1502 1.2260
117.5200 39.1568 1.2169
117.5400 39.1635 1.2360
117.5600 39.1702 1.2271
117.5800 39.1769 1.2191
117.6000 39.1836 1.2357
117.6200 39.1903 1.2308
117.6400 39.1969 1.2243
117.6600 39.2035 1.2348
117.6800 39.2101 1.2315
117.7000 39.2168 1.2214
117.7200 39.2235 1.2397
117.7400 39.2302 1.2292
117.7600 39.2369 1.2248
117.7800 39.2436 1.2403
117.8000 39.2503 1.2312
117.8200 39.2570 1.2245
117.8400 39.2636 1.2483
117.8600 39.2702 1.2283
117.8800 39.2768 1.2277
117.9000 39.2836 1.2471
117.9200 39.2903 1.2347
117.9400 39.2970 1.2278
117.9600 39.3036 1.2512
117.9800 39.3103 1.2358
118.0000 39.3170 1.2303
118.0200 39.3236 1.2470
118.0400 39.3302 1.2326
118.0600 39.3369 1.2390
118.0800 39.3436 1.2513
118.1000 39.3503 1.2347
118.1200 39.3569 1.2394
118.1400 39.3636 1.2467
118.1600 39.3703 1.2393
118.1800 39.3770 1.2419
118.2000 39.3836 1.2454
118.2200 39.3902 1.2438
118.2400 39.3968 1.2443
118.2600 39.4035 1.2467
118.2800 39.4102 1.2448
118.3000 39.4169 1.2465
118.3200 39.4236 1.2446
118.3400 39.4303 1.2540
118.3600 39.4369 1.2403
118.3800 39.4435 1.2451
118.4000 39.4501 1.2585
118.4200 39.4568 1.2424
118.4400 39.4635 1.2467
118.4600 39.4702 1.2636
118.4800 39.4769 1.2399
118.5000 39.4836 1.2510
118.5200 39.4902 1.2631
118.5400 39.4969 1.2401
118.5600 39.5035 1.2572
118.5800 39.5102 1.2647
118.6000 39.5168 1.2388
118.6200 39.5236 1.2595
118.6400 39.5303 1.2659
118.6600 39.5370 1.2381
118.6800 39.5437 1.2650
118.7000 39.5503 1.2637
118.7200 39.5570 1.2401
118.7400 39.5636 1.2696
118.7600 39.5702 1.2649
118.7800 39.5768 1.2417
118.8000 39.5835 1.2769
118.8200 39.5903 1.2594
118.8400 39.5970 1.2467
118.8600 39.6036 1.2717
118.8800 39.6103 1.2624
118.9000 39.6170 1.2498
118.9200 39.6236 1.2724
118.9400 39.6302 1.2649
118.9600 39.6368 1.2577
118.9800 39.6436 1.2724
119.0000 39.6503 1.2612
119.0200 39.6569 1.2592
119.0400 39.6636 1.2746
119.0600 39.6703 1.2626
119.0800 39.6769 1.2657
119.1000 39.6836 1.2701
119.1200 39.6902 1.2622
119.1400 39.6968 1.2728
119.1600 39.7035 1.2649
119.1800 39.7102 1.2684
119.2000 39.7169 1.2725
119.2200 39.7236 1.2662
119.2400 39.7302 1.2704
119.2600 39.7369 1.2742
119.2800 39.7436 1.2683
119.3000 39.7502 1.2738
119.3200 39.7568 1.2764
119.3400 39.7635 1.2684
119.3600 39.7703 1.2774
119.3800 39.7770 1.2756
119.4000 39.7836 1.2674
119.4200 39.7903 1.2863
119.4400 39.7970 1.2734
119.4600 39.8036 1.2697
119.4800 39.8102 1.2863
119.5000 39.8168 1.2830
119.5200 39.8236 1.2679
119.5400 39.8303 1.2837
119.5600 39.8370 1.2802
119.5800 39.8436 1.2731
119.6000 39.8503 1.2900
119.6200 39.8570 1.2767
119.6400 39.8636 1.2750
119.6600 39.8702 1.2914
119.6800 39.8768 1.2788
119.7000 39.8835 1.2787
119.7200 39.8902 1.2954
119.7400 39.8969 1.2792
119.7600 39.9036 1.2824
119.7800 39.9103 1.2910
119.8000 39.9170 1.2814
119.8200 39.9236 1.2837
119.8400 39.9302 1.2966
119.8600 39.9368 1.2810
119.8800 39.9435 1.2875
119.9000 39.9502 1.2958
119.9200 39.9569 1.2859
119.9400 39.9636 1.2900
119.9600 39.9703 1.2966
119.9800 39.9769 1.2851
120.0000 39.9836 1.2925
120.0200 39.9902 1.2969
120.0400 39.9969 1.2908
120.0500 40.0001 1.2805
