Raw Data
Time Displacement Force
(s) (mm) (N)
0.0000 0.0000 -0.0003
0.0200 0.0000 0.0072
0.0400 0.0008 0.0260
0.0600 0.0040 0.0428
0.0800 0.0096 0.0083
0.1000 0.0154 -0.0193
0.1200 0.0213 0.0169
0.1400 0.0278 0.0231
0.1600 0.0351 -0.0178
0.1800 0.0425 0.0037
0.2000 0.0498 0.0039
0.2200 0.0567 -0.0194
0.2400 0.0634 0.0094
0.2600 0.0701 0.0046
0.2800 0.0768 -0.0184
0.3000 0.0834 0.0173
0.3200 0.0901 0.0021
0.3400 0.0968 -0.0144
0.3600 0.1034 0.0141
0.3800 0.1101 -0.0033
0.4000 0.1168 -0.0130
0.4200 0.1235 0.0141
0.4400 0.1302 -0.0024
0.4600 0.1369 -0.0126
0.4800 0.1435 0.0094
0.5000 0.1501 -0.0031
0.5200 0.1567 -0.0011
0.5400 0.1634 0.0106
0.5600 0.1701 -0.0056
0.5800 0.1768 -0.0037
0.6000 0.1835 0.0058
0.6200 0.1902 0.0002
0.6400 0.1968 0.0026
0.6600 0.2035 -0.0037
0.6800 0.2101 0.0000
0.7000 0.2167 0.0017
0.7200 0.2234 0.0014
0.7400 0.2301 -0.0058
0.7600 0.2368 -0.0011
0.7800 0.2435 0.0003
0.8000 0.2502 0.0017
0.8200 0.2569 -0.0016
0.8400 0.2635 -0.0028
0.8600 0.2702 0.0057
0.8800 0.2768 -0.0044
0.9000 0.2834 -0.0056
0.9200 0.2901 0.0121
0.9400 0.2968 -0.0027
0.9600 0.3035 -0.0039
0.9800 0.3102 0.0032
1.0000 0.3169 -0.0045
1.0200 0.3235 0.0041
1.0400 0.3301 0.0045
1.0600 0.3367 -0.0096
1.0800 0.3434 0.0069
1.1000 0.3501 0.0057
1.1200 0.3568 -0.0112
1.1400 0.3635 0.0102
1.1600 0.3702 0.0061
1.1800 0.3769 -0.0095
1.2000 0.3835 0.0089
1.2200 0.3901 0.0040
1.2400 0.3967 -0.0099
1.2600 0.4034 0.0160
1.2800 0.4101 -0.0004
1.3000 0.4168 -0.0117
1.3200 0.4234 0.0132
1.3400 0.4301 0.0017
1.3600 0.4368 -0.0094
1.3800 0.4435 0.0086
1.4000 0.4502 0.0006
1.4200 0.4568 -0.0029
1.4400 0.4634 0.0089
1.4600 0.4701 0.0002
1.4800 0.4768 -0.0028
1.5000 0.4835 0.0081
1.5200 0.4902 0.0005
1.5400 0.4969 0.0022
1.5600 0.5036 -0.0003
1.5800 0.5102 0.0028
1.6000 0.5168 0.0053
1.6200 0.5234 0.0006
1.6400 0.5301 0.0018
1.6600 0.5369 0.0021
1.6800 0.5435 0.0033
1.7000 0.5502 0.0032
1.7200 0.5569 0.0026
1.7400 0.5635 -0.0042
1.7600 0.5701 0.0087
1.7800 0.5768 0.0033
1.8000 0.5834 0.0003
1.8200 0.5901 0.0096
1.8400 0.5968 -0.0020
1.8600 0.6035 -0.0048
1.8800 0.6101 0.0183
1.9000 0.6168 -0.0019
1.9200 0.6235 -0.0040
1.9400 0.6301 0.0104
1.9600 0.6367 -0.0021
1.9800 0.6434 0.0053
2.0000 0.6501 0.0161
2.0200 0.6568 -0.0045
2.0400 0.6635 -0.0018
2.0600 0.6702 0.0178
2.0800 0.6769 0.0013
2.1000 0.6835 0.0025
2.1200 0.6901 0.0177
2.1400 0.6967 0.0000
2.1600 0.7034 0.0030
2.1800 0.7101 0.0165
2.2000 0.7168 0.0004
2.2200 0.7235 0.0092
2.2400 0.7302 0.0138
2.2600 0.7369 0.0003
2.2800 0.7436 0.0069
2.3000 0.7502 0.0238
2.3200 0.7568 -0.0008
2.3400 0.7634 0.0099
2.3600 0.7701 0.0245
2.3800 0.7768 0.0020
2.4000 0.7835 0.0056
2.4200 0.7902 0.0294
2.4400 0.7969 0.0023
2.4600 0.8036 0.0067
2.4800 0.8102 0.0266
2.5000 0.8168 0.0067
2.5200 0.8234 0.0079
2.5400 0.8301 0.0294
2.5600 0.8368 0.0061
2.5800 0.8435 0.0091
2.6000 0.8502 0.0285
2.6200 0.8569 0.0145
2.6400 0.8635 0.0118
2.6600 0.8701 0.0175
2.6800 0.8767 0.0148
2.7000 0.8834 0.0215
2.7200 0.8901 0.0217
2.7400 0.8968 0.0125
2.7600 0.9034 0.0173
2.7800 0.9101 0.0281
2.8000 0.9168 0.0198
2.8200 0.9235 0.0153
2.8400 0.9301 0.0311
2.8600 0.9368 0.0143
2.8800 0.9434 0.0182
2.9000 0.9501 0.0330
2.9200 0.9568 0.0229
2.9400 0.9635 0.0149
2.9600 0.9702 0.0288
2.9800 0.9769 0.0270
3.0000 0.9836 0.0180
3.0200 0.9902 0.0374
3.0400 0.9968 0.0242
3.0600 1.0034 0.0160
3.0800 1.0101 0.0382
3.1000 1.0168 0.0260
3.1200 1.0235 0.0259
3.1400 1.0302 0.0448
3.1600 1.0369 0.0257
3.1800 1.0436 0.0226
3.2000 1.0502 0.0404
3.2200 1.0568 0.0348
3.2400 1.0634 0.0312
3.2600 1.0701 0.0426
3.2800 1.0768 0.0270
3.3000 1.0835 0.0324
3.3200 1.0902 0.0387
3.3400 1.0969 0.0338
3.3600 1.1035 0.0351
3.3800 1.1102 0.0404
3.4000 1.1168 0.0346
3.4200 1.1234 0.0402
3.4400 1.1301 0.0431
3.4600 1.1368 0.0406
3.4800 1.1435 0.0353
3.5000 1.1501 0.0435
3.5200 1.1568 0.0388
3.5400 1.1635 0.0413
3.5600 1.1701 0.0438
3.5800 1.1768 0.0421
3.6000 1.1834 0.0434
3.6200 1.1901 0.0508
3.6400 1.1968 0.0425
3.6600 1.2035 0.0443
3.6800 1.2102 0.0520
3.7000 1.2169 0.0428
3.7200 1.2236 0.0461
3.7400 1.2302 0.0516
3.7600 1.2368 0.0486
3.7800 1.2434 0.0495
3.8000 1.2501 0.0488
3.8200 1.2568 0.0439
3.8400 1.2636 0.0560
3.8600 1.2702 0.0492
3.8800 1.2769 0.0489
3.9000 1.2836 0.0541
3.9200 1.2902 0.0488
3.9400 1.2968 0.0504
3.9600 1.3034 0.0586
3.9800 1.3101 0.0508
4.0000 1.3168 0.0595
4.0200 1.3235 0.0538
4.0400 1.3301 0.0503
4.0600 1.3368 0.0621
4.0800 1.3435 0.0585
4.1000 1.3502 0.0471
4.1200 1.3568 0.0649
4.1400 1.3634 0.0545
4.1600 1.3701 0.0585
4.1800 1.3768 0.0675
4.2000 1.3835 0.0545
4.2200 1.3902 0.0569
4.2400 1.3968 0.0668
4.2600 1.4035 0.0558
4.2800 1.4102 0.0620
4.3000 1.4168 0.0684
4.3200 1.4234 0.0581
4.3400 1.4301 0.0583
4.3600 1.4368 0.0644
4.3800 1.4435 0.0673
4.4000 1.4502 0.0595
4.4200 1.4569 0.0669
4.4400 1.4636 0.0677
4.4600 1.4702 0.0664
4.4800 1.4768 0.0666
4.5000 1.4834 0.0699
4.5200 1.4901 0.0676
4.5400 1.4968 0.0668
4.5600 1.5035 0.0664
4.5800 1.5102 0.0652
4.6000 1.5169 0.0722
4.6200 1.5236 0.0745
4.6400 1.5302 0.0669
4.6600 1.5368 0.0767
4.6800 1.5434 0.0725
4.7000 1.5501 0.0655
4.7200 1.5568 0.0777
4.7400 1.5635 0.0743
4.7600 1.5702 0.0702
4.7800 1.5769 0.0756
4.8000 1.5835 0.0785
4.8200 1.5902 0.0713
4.8400 1.5968 0.0748
4.8600 1.6034 0.0804
4.8800 1.6101 0.0742
4.9000 1.6168 0.0780
4.9200 1.6234 0.0850
4.9400 1.6301 0.0761
4.9600 1.6368 0.0759
4.9800 1.6435 0.0796
5.0000 1.6502 0.0772
5.0200 1.6568 0.0786
5.0400 1.6634 0.0856
5.0600 1.6701 0.0775
5.0800 1.6768 0.0809
5.1000 1.6835 0.0863
5.1200 1.6902 0.0789
5.1400 1.6969 0.0865
5.1600 1.7036 0.0916
5.1800 1.7103 0.0722
5.2000 1.7168 0.0854
5.2200 1.7235 0.0912
5.2400 1.7301 0.0755
5.2600 1.7368 0.0877
5.2800 1.7435 0.0917
5.3000 1.7502 0.0768
5.3200 1.7569 0.0872
5.3400 1.7636 0.0934
5.3600 1.7702 0.0793
5.3800 1.7768 0.0896
5.4000 1.7834 0.0962
5.4200 1.7901 0.0783
5.4400 1.7968 0.0936
5.4600 1.8035 0.1015
5.4800 1.8101 0.0753
5.5000 1.8168 0.0975
5.5200 1.8235 0.0954
5.5400 1.8302 0.0814
5.5600 1.8368 0.0987
5.5800 1.8434 0.0974
5.6000 1.8500 0.0816
5.6200 1.8567 0.0964
5.6400 1.8634 0.0981
5.6600 1.8701 0.0889
5.6800 1.8768 0.1002
5.7000 1.8835 0.0964
5.7200 1.8902 0.0876
5.7400 1.8968 0.1024
5.7600 1.9034 0.1030
5.7800 1.9101 0.0867
5.8000 1.9168 0.0973
5.8200 1.9235 0.1073
5.8400 1.9302 0.0895
5.8600 1.9369 0.0989
5.8800 1.9436 0.1067
5.9000 1.9502 0.0906
5.9200 1.9569 0.0948
5.9400 1.9635 0.1091
5.9600 1.9701 0.0963
5.9800 1.9768 0.1009
6.0000 1.9835 0.1120
6.0200 1.9902 0.0961
6.0400 1.9969 0.0983
6.0600 2.0036 0.1108
6.0800 2.0102 0.1002
6.1000 2.0168 0.0993
6.1200 2.0234 0.1112
6.1400 2.0301 0.1031
6.1600 2.0368 0.1030
6.1800 2.0435 0.1080
6.2000 2.0502 0.1054
6.2200 2.0568 0.1025
6.2400 2.0635 0.1150
6.2600 2.0702 0.1004
6.2800 2.0768 0.1086
6.3000 2.0834 0.1160
6.3200 2.0901 0.1033
6.3400 2.0968 0.1067
6.3600 2.1035 0.1134
6.3800 2.1102 0.1057
6.4000 2.1168 0.1073
6.4200 2.1235 0.1198
6.4400 2.1302 0.1092
6.4600 2.1368 0.1043
6.4800 2.1435 0.1193
6.5000 2.1501 0.1098
6.5200 2.1568 0.1109
6.5400 2.1635 0.1204
6.5600 2.1702 0.1056
6.5800 2.1769 0.1137
6.6000 2.1836 0.1191
6.6200 2.1903 0.1104
6.6400 2.1969 0.1117
6.6600 2.2034 0.1265
6.6800 2.2101 0.1091
6.7000 2.2168 0.1144
6.7200 2.2235 0.1256
6.7400 2.2302 0.1100
6.7600 2.2369 0.1120
6.7800 2.2436 0.1263
6.8000 2.2502 0.1123
6.8200 2.2568 0.1185
6.8400 2.2635 0.1261
6.8600 2.2701 0.1128
6.8800 2.2768 0.1194
6.9000 2.2835 0.1254
6.9200 2.2902 0.1142
6.9400 2.2968 0.1269
6.9600 2.3035 0.1259
6.9800 2.3102 0.1082
7.0000 2.3168 0.1289
7.0200 2.3234 0.1318
7.0400 2.3300 0.1130
7.0600 2.3367 0.1309
7.0800 2.3434 0.1222
7.1000 2.3501 0.1154
7.1200 2.3568 0.1372
7.1400 2.3635 0.1234
7.1600 2.3702 0.1168
7.1800 2.3768 0.1331
7.2000 2.3834 0.1250
7.2200 2.3901 0.1191
7.2400 2.3968 0.1387
7.2600 2.4035 0.1222
7.2800 2.4102 0.1245
7.3000 2.4169 0.1318
7.3200 2.4236 0.1278
7.3400 2.4302 0.1310
7.3600 2.4368 0.1316
7.3800 2.4435 0.1278
7.4000 2.4501 0.1340
7.4200 2.4568 0.1275
7.4400 2.4635 0.1297
7.4600 2.4702 0.1365
7.4800 2.4768 0.1307
7.5000 2.4835 0.1280
7.5200 2.4902 0.1365
7.5400 2.4969 0.1266
7.5600 2.5035 0.1372
7.5800 2.5101 0.1392
7.6000 2.5167 0.1278
7.6200 2.5234 0.1346
7.6400 2.5301 0.1364
7.6600 2.5368 0.1310
7.6800 2.5435 0.1367
7.7000 2.5502 0.1356
7.7200 2.5568 0.1314
7.7400 2.5634 0.1391
7.7600 2.5700 0.1375
7.7800 2.5767 0.1329
7.8000 2.5835 0.1389
7.8200 2.5902 0.1382
7.8400 2.5968 0.1330
7.8600 2.6035 0.1413
7.8800 2.6102 0.1387
7.9000 2.6168 0.1317
7.9200 2.6234 0.1416
7.9400 2.6301 0.1432
7.9600 2.6368 0.1349
7.9800 2.6435 0.1436
8.0000 2.6502 0.1387
8.0200 2.6569 0.1414
8.0400 2.6636 0.1413
8.0600 2.6702 0.1438
8.0800 2.6769 0.1403
8.1000 2.6835 0.1402
8.1200 2.6901 0.1448
8.1400 2.6968 0.1455
8.1600 2.7035 0.1420
8.1800 2.7102 0.1445
8.2000 2.7169 0.1463
8.2200 2.7236 0.1418
8.2400 2.7303 0.1453
8.2600 2.7369 0.1474
8.2800 2.7435 0.1434
8.3000 2.7501 0.1507
8.3200 2.7567 0.1493
8.3400 2.7635 0.1442
8.3600 2.7701 0.1525
8.3800 2.7768 0.1459
8.4000 2.7835 0.1467
8.4200 2.7902 0.1516
8.4400 2.7968 0.1523
8.4600 2.8034 0.1435
8.4800 2.8101 0.1490
8.5000 2.8167 0.1477
8.5200 2.8235 0.1513
8.5400 2.8301 0.1493
8.5600 2.8368 0.1448
8.5800 2.8435 0.1569
8.6000 2.8502 0.1537
8.6200 2.8568 0.1452
8.6400 2.8635 0.1543
8.6600 2.8701 0.1586
8.6800 2.8768 0.1476
8.7000 2.8835 0.1534
8.7200 2.8902 0.1521
8.7400 2.8968 0.1545
8.7600 2.9036 0.1540
8.7800 2.9103 0.1526
8.8000 2.9169 0.1510
8.8200 2.9235 0.1585
8.8400 2.9301 0.1556
8.8600 2.9368 0.1564
8.8800 2.9435 0.1560
8.9000 2.9502 0.1573
8.9200 2.9569 0.1581
8.9400 2.9635 0.1563
8.9600 2.9702 0.1556
8.9800 2.9769 0.1626
9.0000 2.9835 0.1522
9.0200 2.9901 0.1589
9.0400 2.9968 0.1617
9.0600 3.0035 0.1546
9.0800 3.0102 0.1623
9.1000 3.0168 0.1650
9.1200 3.0235 0.1555
9.1400 3.0302 0.1667
9.1600 3.0369 0.1624
9.1800 3.0435 0.1526
9.2000 3.0500 0.1639
9.2200 3.0567 0.1700
9.2400 3.0634 0.1534
9.2600 3.0701 0.1650
9.2800 3.0768 0.1649
9.3000 3.0835 0.1546
9.3200 3.0902 0.1692
9.3400 3.0968 0.1665
9.3600 3.1034 0.1536
9.3800 3.1101 0.1711
9.4000 3.1168 0.1653
9.4200 3.1235 0.1538
9.4400 3.1302 0.1777
9.4600 3.1369 0.1669
9.4800 3.1436 0.1538
9.5000 3.1503 0.1728
9.5200 3.1569 0.1684
9.5400 3.1635 0.1575
9.5600 3.1701 0.1754
9.5800 3.1768 0.1697
9.6000 3.1835 0.1598
9.6200 3.1902 0.1716
9.6400 3.1969 0.1748
9.6600 3.2036 0.1596
9.6800 3.2102 0.1767
9.7000 3.2169 0.1650
9.7200 3.2235 0.1646
9.7400 3.2301 0.1792
9.7600 3.2367 0.1686
9.7800 3.2434 0.1655
9.8000 3.2501 0.1735
9.8200 3.2568 0.1700
9.8400 3.2635 0.1665
9.8600 3.2702 0.1728
9.8800 3.2768 0.1752
9.9000 3.2834 0.1683
9.9200 3.2901 0.1751
9.9400 3.2968 0.1778
9.9600 3.3035 0.1667
9.9800 3.3102 0.1734
10.0000 3.3168 0.1797
10.0200 3.3235 0.1708
10.0400 3.3302 0.1688
10.0600 3.3369 0.1820
10.0800 3.3435 0.1761
10.1000 3.3501 0.1715
10.1200 3.3568 0.1818
10.1400 3.3635 0.1738
10.1600 3.3702 0.1723
10.1800 3.3769 0.1890
10.2000 3.3835 0.1709
10.2200 3.3902 0.1699
10.2400 3.3969 0.1860
10.2600 3.4035 0.1767
10.2800 3.4101 0.1744
10.3000 3.4167 0.1862
10.3200 3.4234 0.1746
10.3400 3.4302 0.1786
10.3600 3.4369 0.1910
10.3800 3.4435 0.1668
10.4000 3.4502 0.1807
10.4200 3.4569 0.1899
10.4400 3.4635 0.1706
10.4600 3.4701 0.1825
10.4800 3.4767 0.1910
10.5000 3.4834 0.1730
10.5200 3.4902 0.1828
10.5400 3.4968 0.1891
10.5600 3.5035 0.1772
10.5800 3.5102 0.1874
10.6000 3.5168 0.1864
10.6200 3.5235 0.1777
10.6400 3.5301 0.1941
10.6600 3.5367 0.1809
10.6800 3.5434 0.1821
10.7000 3.5501 0.1903
10.7200 3.5568 0.1838
10.7400 3.5635 0.1830
10.7600 3.5702 0.1929
10.7800 3.5769 0.1841
10.8000 3.5835 0.1817
10.8200 3.5901 0.1887
10.8400 3.5967 0.1894
10.8600 3.6035 0.1851
10.8800 3.6102 0.1868
10.9000 3.6169 0.1898
10.9200 3.6236 0.1860
10.9400 3.6302 0.1872
10.9600 3.6369 0.1911
10.9800 3.6435 0.1841
11.0000 3.6501 0.1926
11.0200 3.6568 0.1974
11.0400 3.6635 0.1829
11.0600 3.6702 0.1918
11.0800 3.6769 0.1913
11.1000 3.6835 0.1883
11.1200 3.6902 0.1911
11.1400 3.6969 0.1936
11.1600 3.7035 0.1842
11.1800 3.7101 0.1942
11.2000 3.7167 0.1963
11.2200 3.7234 0.1908
11.2400 3.7301 0.1898
11.2600 3.7368 0.1970
11.2800 3.7435 0.1919
11.3000 3.7502 0.1974
11.3200 3.7569 0.1950
11.3400 3.7635 0.1926
11.3600 3.7701 0.1951
11.3800 3.7767 0.1968
11.4000 3.7834 0.1953
11.4200 3.7901 0.1970
11.4400 3.7968 0.1967
11.4600 3.8035 0.1936
11.4800 3.8102 0.1967
11.5000 3.8169 0.1968
11.5200 3.8235 0.1928
11.5400 3.8301 0.1950
11.5600 3.8368 0.1985
11.5800 3.8435 0.1924
11.6000 3.8502 0.1972
11.6200 3.8569 0.2022
11.6400 3.8635 0.1934
11.6600 3.8702 0.1951
11.6800 3.8769 0.2065
11.7000 3.8836 0.1948
11.7200 3.8902 0.2012
11.7400 3.8968 0.1999
11.7600 3.9035 0.1978
11.7800 3.9102 0.2046
11.8000 3.9169 0.2044
11.8200 3.9236 0.1950
11.8400 3.9302 0.2003
11.8600 3.9369 0.1975
11.8800 3.9435 0.2012
11.9000 3.9501 0.2025
11.9200 3.9567 0.2045
11.9400 3.9634 0.1986
11.9600 3.9702 0.2016
11.9800 3.9768 0.2049
12.0000 3.9835 0.2040
12.0200 3.9902 0.2008
12.0400 3.9968 0.2034
12.0600 4.0035 0.2006
12.0800 4.0101 0.2051
12.1000 4.0168 0.2111
12.1200 4.0234 0.2020
12.1400 4.0301 0.2023
12.1600 4.0368 0.2056
12.1800 4.0435 0.2108
12.2000 4.0502 0.1999
12.2200 4.0569 0.2096
12.2400 4.0635 0.2053
12.2600 4.0701 0.1970
12.2800 4.0768 0.2127
12.3000 4.0834 0.2124
12.3200 4.0901 0.1987
12.3400 4.0968 0.2074
12.3600 4.1035 0.2102
12.3800 4.1102 0.2046
12.4000 4.1169 0.2080
12.4200 4.1235 0.2140
12.4400 4.1301 0.1983
12.4600 4.1368 0.2157
12.4800 4.1434 0.2160
12.5000 4.1502 0.1960
12.5200 4.1569 0.2176
12.5400 4.1635 0.2113
12.5600 4.1702 0.1984
12.5800 4.1769 0.2184
12.6000 4.1835 0.2118
12.6200 4.1901 0.1998
12.6400 4.1968 0.2187
12.6600 4.2034 0.2174
12.6800 4.2101 0.1987
12.7000 4.2168 0.2161
12.7200 4.2235 0.2160
12.7400 4.2302 0.2007
12.7600 4.2369 0.2170
12.7800 4.2435 0.2177
12.8000 4.2501 0.2127
12.8200 4.2567 0.2114
12.8400 4.2634 0.2172
12.8600 4.2701 0.2078
12.8800 4.2768 0.2154
12.9000 4.2835 0.2185
12.9200 4.2902 0.2123
12.9400 4.2968 0.2192
12.9600 4.3035 0.2179
12.9800 4.3101 0.2051
13.0000 4.3167 0.2192
13.0200 4.3234 0.2228
13.0400 4.3302 0.2106
13.0600 4.3369 0.2093
13.0800 4.3436 0.2241
13.1000 4.3502 0.2108
13.1200 4.3569 0.2148
13.1400 4.3635 0.2235
13.1600 4.3701 0.2153
13.1800 4.3768 0.2171
13.2000 4.3834 0.2205
13.2200 4.3901 0.2132
13.2400 4.3968 0.2166
13.2600 4.4035 0.2275
13.2800 4.4102 0.2149
13.3000 4.4169 0.2179
13.3200 4.4235 0.2234
13.3400 4.4301 0.2138
13.3600 4.4367 0.2165
13.3800 4.4434 0.2316
13.4000 4.4501 0.2152
13.4200 4.4568 0.2169
13.4400 4.4635 0.2284
13.4600 4.4702 0.2186
13.4800 4.4769 0.2152
13.5000 4.4835 0.2289
13.5200 4.4901 0.2159
13.5400 4.4967 0.2209
13.5600 4.5034 0.2339
13.5800 4.5101 0.2165
13.6000 4.5168 0.2171
13.6200 4.5235 0.2331
13.6400 4.5301 0.2196
13.6600 4.5368 0.2235
13.6800 4.5435 0.2289
13.7000 4.5501 0.2180
13.7200 4.5568 0.2207
13.7400 4.5634 0.2322
13.7600 4.5701 0.2224
13.7800 4.5768 0.2206
13.8000 4.5835 0.2368
13.8200 4.5902 0.2171
13.8400 4.5969 0.2191
13.8600 4.6036 0.2368
13.8800 4.6102 0.2249
13.9000 4.6168 0.2182
13.9200 4.6234 0.2359
13.9400 4.6301 0.2201
13.9600 4.6369 0.2222
13.9800 4.6436 0.2403
14.0000 4.6502 0.2238
14.0200 4.6569 0.2223
14.0400 4.6635 0.2396
14.0600 4.6701 0.2244
14.0800 4.6767 0.2243
14.1000 4.6834 0.2408
14.1200 4.6901 0.2275
14.1400 4.6968 0.2217
14.1600 4.7035 0.2445
14.1800 4.7101 0.2229
14.2000 4.7168 0.2233
14.2200 4.7235 0.2386
14.2400 4.7301 0.2253
14.2600 4.7367 0.2260
14.2800 4.7434 0.2344
14.3000 4.7501 0.2314
14.3200 4.7568 0.2270
14.3400 4.7635 0.2373
14.3600 4.7702 0.2305
14.3800 4.7769 0.2267
14.4000 4.7836 0.2413
14.4200 4.7902 0.2279
14.4400 4.7968 0.2277
14.4600 4.8034 0.2432
14.4800 4.8101 0.2279
14.5000 4.8169 0.2317
14.5200 4.8236 0.2396
14.5400 4.8302 0.2350
14.5600 4.8369 0.2268
14.5800 4.8435 0.2420
14.6000 4.8501 0.2301
14.6200 4.8568 0.2354
14.6400 4.8634 0.2432
14.6600 4.8701 0.2262
14.6800 4.8768 0.2354
14.7000 4.8835 0.2417
14.7200 4.8902 0.2284
14.7400 4.8969 0.2383
14.7600 4.9035 0.2399
14.7800 4.9102 0.2332
14.8000 4.9168 0.2362
14.8200 4.9234 0.2433
14.8400 4.9301 0.2324
14.8600 4.9368 0.2349
14.8800 4.9435 0.2417
14.9000 4.9502 0.2355
14.9200 4.9569 0.2415
14.9400 4.9636 0.2355
14.9600 4.9701 0.2350
14.9800 4.9767 0.2442
15.0000 4.9834 0.2407
15.0200 4.9901 0.2338
15.0400 4.9968 0.2411
15.0600 5.0035 0.2419
15.0800 5.0102 0.2411
15.1000 5.0168 0.2398
15.1200 5.0235 0.2363
15.1400 5.0302 0.2401
15.1600 5.0368 0.2488
15.1800 5.0434 0.2352
15.2000 5.0501 0.2412
15.2200 5.0568 0.2470
15.2400 5.0635 0.2359
15.2600 5.0702 0.2449
15.2800 5.0769 0.2454
15.3000 5.0835 0.2367
15.3200 5.0902 0.2506
15.3400 5.0968 0.2435
15.3600 5.1034 0.2354
15.3800 5.1101 0.2514
15.4000 5.1168 0.2478
15.4200 5.1235 0.2361
15.4400 5.1302 0.2468
15.4600 5.1369 0.2481
15.4800 5.1436 0.2325
15.5000 5.1502 0.2524
15.5200 5.1568 0.2500
15.5400 5.1634 0.2346
15.5600 5.1701 0.2497
15.5800 5.1768 0.2518
15.6000 5.1835 0.2401
15.6200 5.1902 0.2491
15.6400 5.1968 0.2473
15.6600 5.2035 0.2424
15.6800 5.2101 0.2477
15.7000 5.2168 0.2500
15.7200 5.2234 0.2411
15.7400 5.2301 0.2577
15.7600 5.2368 0.2431
15.7800 5.2435 0.2418
15.8000 5.2501 0.2547
15.8200 5.2568 0.2463
15.8400 5.2635 0.2447
15.8600 5.2702 0.2514
15.8800 5.2768 0.2460
15.9000 5.2834 0.2509
15.9200 5.2901 0.2523
15.9400 5.2968 0.2436
15.9600 5.3035 0.2538
15.9800 5.3102 0.2550
16.0000 5.3169 0.2396
16.0200 5.3236 0.2578
16.0400 5.3302 0.2552
16.0600 5.3368 0.2451
16.0800 5.3434 0.2551
16.1000 5.3502 0.2488
16.1200 5.3569 0.2524
16.1400 5.3636 0.2530
16.1600 5.3702 0.2520
16.1800 5.3769 0.2476
16.2000 5.3835 0.2555
16.2200 5.3902 0.2518
16.2400 5.3968 0.2512
16.2600 5.4034 0.2524
16.2800 5.4101 0.2594
16.3000 5.4168 0.2536
16.3200 5.4235 0.2460
16.3400 5.4302 0.2576
16.3600 5.4368 0.2595
16.3800 5.4435 0.2465
16.4000 5.4502 0.2537
16.4200 5.4567 0.2560
16.4400 5.4634 0.2518
16.4600 5.4701 0.2608
16.4800 5.4768 0.2580
16.5000 5.4835 0.2494
16.5200 5.4902 0.2597
16.5400 5.4969 0.2545
16.5600 5.5036 0.2510
16.5800 5.5102 0.2650
16.6000 5.5168 0.2567
16.6200 5.5234 0.2469
16.6400 5.5301 0.2626
16.6600 5.5368 0.2704
16.6800 5.5435 0.2447
16.7000 5.5502 0.2584
16.7200 5.5569 0.2658
16.7400 5.5636 0.2524
16.7600 5.5702 0.2580
16.7800 5.5768 0.2636
16.8000 5.5834 0.2582
16.8200 5.5901 0.2662
16.8400 5.5968 0.2510
16.8600 5.6035 0.2498
16.8800 5.6102 0.2770
16.9000 5.6169 0.2607
16.9200 5.6236 0.2380
16.9400 5.6302 0.2720
16.9600 5.6368 0.2685
16.9800 5.6434 0.2406
17.0000 5.6501 0.2689
17.0200 5.6568 0.2693
17.0400 5.6635 0.2515
17.0600 5.6702 0.2659
17.0800 5.6769 0.2606
17.1000 5.6836 0.2529
17.1200 5.6902 0.2780
17.1400 5.6968 0.2588
17.1600 5.7034 0.2461
17.1800 5.7101 0.2779
17.2000 5.7168 0.2665
17.2200 5.7235 0.2440
17.2400 5.7301 0.2714
17.2600 5.7368 0.2674
17.2800 5.7435 0.2557
17.3000 5.7501 0.2691
17.3200 5.7568 0.2649
17.3400 5.7634 0.2584
17.3600 5.7701 0.2762
17.3800 5.7768 0.2596
17.4000 5.7835 0.2552
17.4200 5.7902 0.2773
17.4400 5.7969 0.2683
17.4600 5.8036 0.2506
17.4800 5.8102 0.2745
17.5000 5.8168 0.2681
17.5200 5.8234 0.2572
17.5400 5.8301 0.2776
17.5600 5.8368 0.2645
17.5800 5.8435 0.2609
17.6000 5.8502 0.2771
17.6200 5.8569 0.2630
17.6400 5.8636 0.2628
17.6600 5.8702 0.2803
17.6800 5.8768 0.2668
17.7000 5.8834 0.2631
17.7200 5.8901 0.2675
17.7400 5.8968 0.2702
17.7600 5.9035 0.2722
17.7800 5.9102 0.2654
17.8000 5.9169 0.2734
17.8200 5.9235 0.2714
17.8400 5.9302 0.2599
17.8600 5.9368 0.2772
17.8800 5.9434 0.2720
17.9000 5.9501 0.2671
17.9200 5.9568 0.2724
17.9400 5.9635 0.2672
17.9600 5.9701 0.2652
17.9800 5.9768 0.2779
18.0000 5.9835 0.2716
18.0200 5.9902 0.2718
18.0400 5.9968 0.2672
18.0600 6.0034 0.2712
18.0800 6.0101 0.2785
18.1000 6.0168 0.2715
18.1200 6.0235 0.2672
18.1400 6.0302 0.2741
18.1600 6.0369 0.2739
18.1800 6.0436 0.2686
18.2000 6.0502 0.2775
18.2200 6.0568 0.2706
18.2400 6.0634 0.2696
18.2600 6.0701 0.2791
18.2800 6.0768 0.2686
18.3000 6.0836 0.2750
18.3200 6.0902 0.2854
18.3400 6.0969 0.2593
18.3600 6.1035 0.2721
18.3800 6.1102 0.2871
18.4000 6.1168 0.2654
18.4200 6.1234 0.2722
18.4400 6.1301 0.2868
18.4600 6.1368 0.2629
18.4800 6.1435 0.2779
18.5000 6.1502 0.2825
18.5200 6.1568 0.2681
18.5400 6.1635 0.2776
18.5600 6.1702 0.2755
18.5800 6.1768 0.2666
18.6000 6.1834 0.2882
18.6200 6.1901 0.2830
18.6400 6.1968 0.2665
18.6600 6.2035 0.2804
18.6800 6.2102 0.2813
18.7000 6.2168 0.2698
18.7200 6.2235 0.2805
18.7400 6.2302 0.2831
18.7600 6.2368 0.2683
18.7800 6.2435 0.2794
18.8000 6.2501 0.2818
18.8200 6.2568 0.2748
18.8400 6.2635 0.2781
18.8600 6.2702 0.2864
18.8800 6.2769 0.2710
18.9000 6.2836 0.2819
18.9200 6.2902 0.2837
18.9400 6.2968 0.2753
18.9600 6.3034 0.2818
18.9800 6.3101 0.2847
19.0000 6.3168 0.2709
19.0200 6.3235 0.2818
19.0400 6.3302 0.2900
19.0600 6.3369 0.2797
19.0800 6.3436 0.2770
19.1000 6.3502 0.2829
19.1200 6.3568 0.2808
19.1400 6.3634 0.2849
19.1600 6.3701 0.2818
19.1800 6.3768 0.2839
19.2000 6.3835 0.2793
19.2200 6.3902 0.2774
19.2400 6.3969 0.2864
19.2600 6.4035 0.2799
19.2800 6.4102 0.2822
19.3000 6.4168 0.2843
19.3200 6.4234 0.2787
19.3400 6.4301 0.2849
19.3600 6.4368 0.2871
19.3800 6.4435 0.2744
19.4000 6.4501 0.2862
19.4200 6.4568 0.2875
19.4400 6.4635 0.2742
19.4600 6.4702 0.2833
19.4800 6.4768 0.2907
19.5000 6.4834 0.2765
19.5200 6.4901 0.2915
19.5400 6.4968 0.2849
19.5600 6.5035 0.2751
19.5800 6.5102 0.2897
19.6000 6.5169 0.2922
19.6200 6.5236 0.2774
19.6400 6.5303 0.2930
19.6600 6.5368 0.2880
19.6800 6.5434 0.2827
19.7000 6.5501 0.2931
19.7200 6.5568 0.2887
19.7400 6.5635 0.2816
19.7600 6.5702 0.2921
19.7800 6.5769 0.2833
19.8000 6.5836 0.2853
19.8200 6.5902 0.2947
19.8400 6.5968 0.2815
19.8600 6.6034 0.2877
19.8800 6.6101 0.2925
19.9000 6.6168 0.2852
19.9200 6.6235 0.2849
19.9400 6.6301 0.2916
19.9600 6.6368 0.2854
19.9800 6.6435 0.2887
20.0000 6.6502 0.2906
20.0200 6.6568 0.2834
20.0400 6.6634 0.2954
20.0600 6.6700 0.2925
20.0800 6.6767 0.2857
20.1000 6.6834 0.2945
20.1200 6.6901 0.2878
20.1400 6.6968 0.2993
20.1600 6.7035 0.2830
20.1800 6.7102 0.2902
20.2000 6.7168 0.2987
20.2200 6.7234 0.2859
20.2400 6.7301 0.2874
20.2600 6.7368 0.2964
20.2800 6.7435 0.2910
20.3000 6.7502 0.2906
20.3200 6.7569 0.2967
20.3400 6.7636 0.2870
20.3600 6.7702 0.2944
20.3800 6.7769 0.2962
20.4000 6.7835 0.2858
20.4200 6.7901 0.2942
20.4400 6.7968 0.3008
20.4600 6.8035 0.2857
20.4800 6.8102 0.2957
20.5000 6.8169 0.2946
20.5200 6.8236 0.2926
20.5400 6.8302 0.2944
20.5600 6.8368 0.2920
20.5800 6.8434 0.2904
20.6000 6.8501 0.3056
20.6200 6.8568 0.2960
20.6400 6.8635 0.2925
20.6600 6.8702 0.2986
20.6800 6.8769 0.2967
20.7000 6.8835 0.2905
20.7200 6.8902 0.2974
20.7400 6.8968 0.2950
20.7600 6.9034 0.3012
20.7800 6.9100 0.2930
20.8000 6.9167 0.2920
20.8200 6.9235 0.3014
20.8400 6.9302 0.2962
20.8600 6.9368 0.2937
20.8800 6.9435 0.2985
20.9000 6.9502 0.2947
20.9200 6.9568 0.3019
20.9400 6.9635 0.2989
20.9600 6.9701 0.2916
20.9800 6.9768 0.3020
21.0000 6.9835 0.2987
21.0200 6.9901 0.2977
21.0400 6.9968 0.3026
21.0600 7.0036 0.2973
21.0800 7.0102 0.2929
21.1000 7.0169 0.3056
21.1200 7.0235 0.2935
21.1400 7.0301 0.3024
21.1600 7.0368 0.3099
21.1800 7.0435 0.2964
21.2000 7.0502 0.2933
21.2200 7.0569 0.3078
21.2400 7.0636 0.2970
21.2600 7.0702 0.2948
21.2800 7.0769 0.3042
21.3000 7.0835 0.2957
21.3200 7.0901 0.2995
21.3400 7.0968 0.3070
21.3600 7.1035 0.2978
21.3800 7.1102 0.3027
21.4000 7.1168 0.2997
21.4200 7.1235 0.3014
21.4400 7.1302 0.3027
21.4600 7.1368 0.3023
21.4800 7.1434 0.3039
21.5000 7.1500 0.2995
21.5200 7.1567 0.3058
21.5400 7.1634 0.3034
21.5600 7.1701 0.2983
21.5800 7.1768 0.3052
21.6000 7.1835 0.3078
21.6200 7.1902 0.2981
21.6400 7.1968 0.3009
21.6600 7.2034 0.3099
21.6800 7.2101 0.3036
21.7000 7.2168 0.3011
21.7200 7.2235 0.3092
21.7400 7.2302 0.3015
21.7600 7.2369 0.3026
21.7800 7.2436 0.3065
21.8000 7.2502 0.3052
21.8200 7.2569 0.3003
21.8400 7.2635 0.3071
21.8600 7.2701 0.3045
21.8800 7.2768 0.3072
21.9000 7.2835 0.3052
21.9200 7.2902 0.3048
21.9400 7.2969 0.3035
21.9600 7.3035 0.3103
21.9800 7.3102 0.3044
22.0000 7.3169 0.3064
22.0200 7.3235 0.3141
22.0400 7.3301 0.3006
22.0600 7.3367 0.3091
22.0800 7.3434 0.3081
22.1000 7.3501 0.3047
22.1200 7.3568 0.3101
22.1400 7.3635 0.3095
22.1600 7.3702 0.3003
22.1800 7.3768 0.3102
22.2000 7.3834 0.3106
22.2200 7.3901 0.3047
22.2400 7.3967 0.3143
22.2600 7.4035 0.3073
22.2800 7.4102 0.3015
22.3000 7.4168 0.3181
22.3200 7.4235 0.3065
22.3400 7.4302 0.3088
22.3600 7.4368 0.3098
22.3800 7.4435 0.3080
22.4000 7.4501 0.3090
22.4200 7.4568 0.3184
22.4400 7.4635 0.3079
22.4600 7.4702 0.3060
22.4800 7.4769 0.3146
22.5000 7.4836 0.3070
22.5200 7.4902 0.3117
22.5400 7.4969 0.3158
22.5600 7.5035 0.3100
22.5800 7.5101 0.3139
22.6000 7.5168 0.3103
22.6200 7.5235 0.3077
22.6400 7.5302 0.3203
22.6600 7.5369 0.3097
22.6800 7.5436 0.3091
22.7000 7.5503 0.3133
22.7200 7.5569 0.3112
22.7400 7.5635 0.3153
22.7600 7.5701 0.3152
22.7800 7.5768 0.3089
22.8000 7.5834 0.3165
22.8200 7.5901 0.3150
22.8400 7.5968 0.3135
22.8600 7.6035 0.3142
22.8800 7.6102 0.3146
22.9000 7.6168 0.3108
22.9200 7.6234 0.3137
22.9400 7.6301 0.3117
22.9600 7.6367 0.3203
22.9800 7.6435 0.3129
23.0000 7.6501 0.3119
23.0200 7.6568 0.3177
23.0400 7.6635 0.3139
23.0600 7.6702 0.3160
23.0800 7.6768 0.3206
23.1000 7.6835 0.3125
23.1200 7.6901 0.3163
23.1400 7.6968 0.3221
23.1600 7.7035 0.3105
23.1800 7.7102 0.3205
23.2000 7.7169 0.3213
23.2200 7.7236 0.3098
23.2400 7.7303 0.3224
23.2600 7.7369 0.3198
23.2800 7.7435 0.3105
23.3000 7.7501 0.3207
23.3200 7.7568 0.3210
23.3400 7.7635 0.3147
23.3600 7.7702 0.3161
23.3800 7.7769 0.3203
23.4000 7.7835 0.3125
23.4200 7.7902 0.3262
23.4400 7.7969 0.3207
23.4600 7.8035 0.3152
23.4800 7.8101 0.3190
23.5000 7.8168 0.3209
23.5200 7.8235 0.3143
23.5400 7.8301 0.3215
23.5600 7.8368 0.3186
23.5800 7.8435 0.3174
23.6000 7.8502 0.3242
23.6200 7.8568 0.3183
23.6400 7.8635 0.3121
23.6600 7.8700 0.3228
23.6800 7.8767 0.3232
23.7000 7.8834 0.3127
23.7200 7.8901 0.3249
23.7400 7.8968 0.3232
23.7600 7.9035 0.3167
23.7800 7.9102 0.3273
23.8000 7.9168 0.3244
23.8200 7.9234 0.3115
23.8400 7.9301 0.3288
23.8600 7.9367 0.3224
23.8800 7.9434 0.3163
23.9000 7.9502 0.3252
23.9200 7.9569 0.3254
23.9400 7.9635 0.3175
23.9600 7.9702 0.3245
23.9800 7.9769 0.3191
24.0000 7.9835 0.3201
24.0200 7.9902 0.3255
24.0400 7.9968 0.3233
24.0600 8.0035 0.3197
24.0800 8.0102 0.3261
24.1000 8.0169 0.3196
24.1200 8.0236 0.3210
24.1400 8.0302 0.3292
24.1600 8.0369 0.3208
24.1800 8.0435 0.3203
24.2000 8.0501 0.3279
24.2200 8.0567 0.3260
24.2400 8.0634 0.3223
24.2600 8.0701 0.3245
24.2800 8.0768 0.3256
24.3000 8.0835 0.3234
24.3200 8.0902 0.3250
24.3400 8.0968 0.3260
24.3600 8.1034 0.3213
24.3800 8.1101 0.3267
24.4000 8.1167 0.3274
24.4200 8.1234 0.3257
24.4400 8.1302 0.3194
24.4600 8.1369 0.3314
24.4800 8.1435 0.3281
24.5000 8.1502 0.3267
24.5200 8.1568 0.3312
24.5400 8.1635 0.3244
24.5600 8.1701 0.3305
24.5800 8.1768 0.3297
24.6000 8.1835 0.3193
24.6200 8.1902 0.3338
24.6400 8.1969 0.3259
24.6600 8.2035 0.3224
24.6800 8.2102 0.3319
24.7000 8.2169 0.3246
24.7200 8.2235 0.3259
24.7400 8.2301 0.3342
24.7600 8.2367 0.3262
24.7800 8.2434 0.3284
24.8000 8.2502 0.3335
24.8200 8.2569 0.3254
24.8400 8.2636 0.3305
24.8600 8.2702 0.3343
24.8800 8.2769 0.3261
24.9000 8.2835 0.3314
24.9200 8.2901 0.3332
24.9400 8.2967 0.3234
24.9600 8.3034 0.3366
24.9800 8.3102 0.3291
25.0000 8.3168 0.3271
25.0200 8.3235 0.3318
25.0400 8.3302 0.3309
25.0600 8.3369 0.3278
25.0800 8.3435 0.3332
25.1000 8.3501 0.3339
25.1200 8.3567 0.3294
25.1400 8.3634 0.3322
25.1600 8.3701 0.3381
25.1800 8.3768 0.3318
25.2000 8.3835 0.3275
25.2200 8.3902 0.3314
25.2400 8.3969 0.3348
25.2600 8.4035 0.3281
25.2800 8.4101 0.3327
25.3000 8.4168 0.3352
25.3200 8.4235 0.3311
25.3400 8.4302 0.3336
25.3600 8.4369 0.3301
25.3800 8.4436 0.3343
25.4000 8.4502 0.3330
25.4200 8.4569 0.3328
25.4400 8.4635 0.3297
25.4600 8.4701 0.3347
25.4800 8.4768 0.3371
25.5000 8.4835 0.3313
25.5200 8.4902 0.3341
25.5400 8.4969 0.3342
25.5600 8.5035 0.3269
25.5800 8.5102 0.3391
25.6000 8.5169 0.3354
25.6200 8.5235 0.3298
25.6400 8.5301 0.3385
25.6600 8.5367 0.3369
25.6800 8.5434 0.3305
25.7000 8.5501 0.3356
25.7200 8.5568 0.3396
25.7400 8.5635 0.3312
25.7600 8.5702 0.3367
25.7800 8.5769 0.3398
25.8000 8.5835 0.3285
25.8200 8.5901 0.3398
25.8400 8.5967 0.3376
25.8600 8.6034 0.3302
25.8800 8.6101 0.3408
25.9000 8.6168 0.3363
25.9200 8.6235 0.3320
25.9400 8.6302 0.3385
25.9600 8.6368 0.3372
25.9800 8.6435 0.3308
26.0000 8.6501 0.3437
26.0200 8.6568 0.3335
26.0400 8.6634 0.3394
26.0600 8.6702 0.3381
26.0800 8.6768 0.3344
26.1000 8.6835 0.3411
26.1200 8.6902 0.3385
26.1400 8.6969 0.3341
26.1600 8.7036 0.3387
26.1800 8.7102 0.3361
26.2000 8.7168 0.3407
26.2200 8.7234 0.3380
26.2400 8.7302 0.3401
26.2600 8.7369 0.3387
26.2800 8.7435 0.3362
26.3000 8.7502 0.3369
26.3200 8.7569 0.3384
26.3400 8.7635 0.3417
26.3600 8.7701 0.3361
26.3800 8.7767 0.3427
26.4000 8.7834 0.3402
26.4200 8.7902 0.3405
26.4400 8.7968 0.3420
26.4600 8.8035 0.3402
26.4800 8.8102 0.3363
26.5000 8.8169 0.3437
26.5200 8.8235 0.3363
26.5400 8.8301 0.3396
26.5600 8.8368 0.3478
26.5800 8.8434 0.3401
26.6000 8.8501 0.3386
26.6200 8.8568 0.3473
26.6400 8.8635 0.3328
26.6600 8.8701 0.3433
26.6800 8.8769 0.3526
26.7000 8.8835 0.3337
26.7200 8.8901 0.3382
26.7400 8.8968 0.3527
26.7600 8.9034 0.3374
26.7800 8.9101 0.3427
26.8000 8.9168 0.3472
26.8200 8.9235 0.3359
26.8400 8.9302 0.3435
26.8600 8.9369 0.3449
26.8800 8.9435 0.3379
26.9000 8.9501 0.3500
26.9200 8.9568 0.3466
26.9400 8.9634 0.3351
26.9600 8.9702 0.3449
26.9800 8.9769 0.3435
27.0000 8.9835 0.3443
27.0200 8.9902 0.3478
27.0400 8.9969 0.3446
27.0600 9.0035 0.3392
27.0800 9.0101 0.3505
27.1000 9.0168 0.3440
27.1200 9.0235 0.3477
27.1400 9.0301 0.3477
27.1600 9.0368 0.3415
27.1800 9.0435 0.3450
27.2000 9.0502 0.3463
27.2200 9.0569 0.3437
27.2400 9.0635 0.3489
27.2600 9.0701 0.3463
27.2800 9.0767 0.3458
27.3000 9.0834 0.3471
27.3200 9.0901 0.3475
27.3400 9.0968 0.3476
27.3600 9.1035 0.3456
27.3800 9.1102 0.3438
27.4000 9.1169 0.3473
27.4200 9.1235 0.3463
27.4400 9.1301 0.3465
27.4600 9.1368 0.3522
27.4800 9.1434 0.3444
27.5000 9.1502 0.3483
27.5200 9.1569 0.3471
27.5400 9.1636 0.3449
27.5600 9.1702 0.3501
27.5800 9.1769 0.3479
27.6000 9.1835 0.3442
27.6200 9.1901 0.3538
27.6400 9.1967 0.3484
27.6600 9.2034 0.3515
27.6800 9.2101 0.3472
27.7000 9.2168 0.3488
27.7200 9.2235 0.3473
27.7400 9.2302 0.3509
27.7600 9.2369 0.3541
27.7800 9.2435 0.3499
27.8000 9.2502 0.3489
27.8200 9.2568 0.3515
27.8400 9.2634 0.3491
27.8600 9.2701 0.3516
27.8800 9.2768 0.3501
27.9000 9.2835 0.3521
27.9200 9.2902 0.3521
27.9400 9.2969 0.3509
27.9600 9.3035 0.3499
27.9800 9.3101 0.3501
28.0000 9.3167 0.3532
28.0200 9.3234 0.3525
28.0400 9.3301 0.3527
28.0600 9.3368 0.3486
28.0800 9.3435 0.3522
28.1000 9.3501 0.3542
28.1200 9.3568 0.3518
28.1400 9.3635 0.3515
28.1600 9.3701 0.3561
28.1800 9.3767 0.3481
28.2000 9.3834 0.3506
28.2200 9.3901 0.3535
28.2400 9.3968 0.3491
28.2600 9.4035 0.3524
28.2800 9.4102 0.3582
28.3000 9.4169 0.3479
28.3200 9.4236 0.3527
28.3400 9.4302 0.3519
28.3600 9.4368 0.3531
28.3800 9.4434 0.3550
28.4000 9.4502 0.3547
28.4200 9.4569 0.3529
28.4400 9.4635 0.3610
28.4600 9.4702 0.3502
28.4800 9.4769 0.3531
28.5000 9.4835 0.3639
28.5200 9.4901 0.3498
28.5400 9.4967 0.3550
28.5600 9.5034 0.3609
28.5800 9.5101 0.3566
28.6000 9.5168 0.3542
28.6200 9.5235 0.3582
28.6400 9.5301 0.3526
28.6600 9.5368 0.3630
28.6800 9.5435 0.3529
28.7000 9.5501 0.3500
28.7200 9.5567 0.3636
28.7400 9.5634 0.3612
28.7600 9.5701 0.3478
28.7800 9.5768 0.3632
28.8000 9.5835 0.3584
28.8200 9.5902 0.3530
28.8400 9.5969 0.3638
28.8600 9.6036 0.3504
28.8800 9.6102 0.3546
28.9000 9.6168 0.3585
28.9200 9.6234 0.3504
28.9400 9.6301 0.3615
28.9600 9.6368 0.3589
28.9800 9.6435 0.3509
29.0000 9.6502 0.3641
29.0200 9.6569 0.3582
29.0400 9.6635 0.3520
29.0600 9.6702 0.3676
29.0800 9.6768 0.3576
29.1000 9.6834 0.3523
29.1200 9.6901 0.3675
29.1400 9.6968 0.3545
29.1600 9.7035 0.3541
29.1800 9.7102 0.3667
29.2000 9.7169 0.3528
29.2200 9.7236 0.3558
29.2400 9.7302 0.3687
29.2600 9.7368 0.3532
29.2800 9.7434 0.3646
29.3000 9.7501 0.3659
29.3200 9.7568 0.3530
29.3400 9.7635 0.3642
29.3600 9.7702 0.3683
29.3800 9.7769 0.3486
29.4000 9.7836 0.3657
29.4200 9.7902 0.3643
29.4400 9.7967 0.3541
29.4600 9.8034 0.3681
29.4800 9.8101 0.3642
29.5000 9.8168 0.3529
29.5200 9.8235 0.3709
29.5400 9.8302 0.3614
29.5600 9.8368 0.3530
29.5800 9.8435 0.3724
29.6000 9.8502 0.3619
29.6200 9.8568 0.3571
29.6400 9.8634 0.3692
29.6600 9.8701 0.3616
29.6800 9.8768 0.3566
29.7000 9.8835 0.3674
29.7200 9.8902 0.3594
29.7400 9.8969 0.3630
29.7600 9.9036 0.3627
29.7800 9.9102 0.3618
29.8000 9.9168 0.3632
29.8200 9.9235 0.3649
29.8400 9.9301 0.3667
29.8600 9.9368 0.3638
29.8800 9.9435 0.3648
29.9000 9.9502 0.3684
29.9200 9.9569 0.3603
29.9400 9.9636 0.3648
29.9600 9.9702 0.3650
29.9800 9.9768 0.3604
30.0000 9.9834 0.3707
30.0200 9.9901 0.3688
30.0400 9.9968 0.3542
30.0600 10.0035 0.3712
30.0800 10.0102 0.3666
30.1000 10.0169 0.3555
30.1200 10.0235 0.3724
30.1400 10.0302 0.3657
30.1600 10.0368 0.3562
30.1800 10.0434 0.3761
30.2000 10.0501 0.3631
30.2200 10.0568 0.3584
30.2400 10.0635 0.3788
30.2600 10.0701 0.3654
30.2800 10.0768 0.3601
30.3000 10.0835 0.3766
30.3200 10.0902 0.3634
30.3400 10.0968 0.3607
30.3600 10.1034 0.3812
30.3800 10.1101 0.3598
30.4000 10.1168 0.3633
30.4200 10.1235 0.3765
30.4400 10.1302 0.3589
30.4600 10.1369 0.3635
30.4800 10.1436 0.3782
30.5000 10.1502 0.3592
30.5200 10.1568 0.3661
30.5400 10.1634 0.3747
30.5600 10.1701 0.3610
30.5800 10.1769 0.3693
30.6000 10.1835 0.3759
30.6200 10.1902 0.3632
30.6400 10.1969 0.3708
30.6600 10.2035 0.3744
30.6800 10.2102 0.3638
30.7000 10.2168 0.3714
30.7200 10.2234 0.3733
30.7400 10.2301 0.3651
30.7600 10.2368 0.3714
30.7800 10.2435 0.3724
30.8000 10.2501 0.3722
30.8200 10.2568 0.3684
30.8400 10.2635 0.3694
30.8600 10.2702 0.3745
30.8800 10.2768 0.3675
30.9000 10.2834 0.3751
30.9200 10.2901 0.3732
30.9400 10.2968 0.3688
30.9600 10.3035 0.3692
30.9800 10.3102 0.3701
31.0000 10.3169 0.3700
31.0200 10.3235 0.3723
31.0400 10.3302 0.3718
31.0600 10.3368 0.3664
31.0800 10.3434 0.3750
31.1000 10.3501 0.3771
31.1200 10.3568 0.3635
31.1400 10.3635 0.3789
31.1600 10.3702 0.3746
31.1800 10.3769 0.3655
31.2000 10.3836 0.3784
31.2200 10.3902 0.3715
31.2400 10.3968 0.3701
31.2600 10.4035 0.3808
31.2800 10.4101 0.3687
31.3000 10.4168 0.3682
31.3200 10.4235 0.3825
31.3400 10.4302 0.3699
31.3600 10.4369 0.3712
31.3800 10.4436 0.3786
31.4000 10.4502 0.3697
31.4200 10.4568 0.3708
31.4400 10.4634 0.3822
31.4600 10.4701 0.3689
31.4800 10.4768 0.3747
31.5000 10.4835 0.3760
31.5200 10.4902 0.3706
31.5400 10.4969 0.3759
31.5600 10.5035 0.3805
31.5800 10.5102 0.3678
31.6000 10.5168 0.3772
31.6200 10.5234 0.3780
31.6400 10.5300 0.3707
31.6600 10.5368 0.3775
31.6800 10.5435 0.3767
31.7000 10.5501 0.3682
31.7200 10.5568 0.3778
31.7400 10.5635 0.3791
31.7600 10.5702 0.3723
31.7800 10.5768 0.3785
31.8000 10.5834 0.3803
31.8200 10.5901 0.3746
31.8400 10.5968 0.3768
31.8600 10.6035 0.3814
31.8800 10.6102 0.3718
31.9000 10.6169 0.3791
31.9200 10.6236 0.3802
31.9400 10.6302 0.3758
31.9600 10.6368 0.3771
31.9800 10.6434 0.3826
32.0000 10.6501 0.3728
32.0200 10.6568 0.3789
32.0400 10.6635 0.3829
32.0600 10.6702 0.3750
32.0800 10.6769 0.3782
32.1000 10.6836 0.3792
32.1200 10.6902 0.3760
32.1400 10.6968 0.3820
32.1600 10.7034 0.3763
32.1800 10.7101 0.3779
32.2000 10.7168 0.3775
32.2200 10.7235 0.3776
32.2400 10.7302 0.3756
32.2600 10.7368 0.3817
32.2800 10.7435 0.3809
32.3000 10.7502 0.3755
32.3200 10.7568 0.3791
32.3400 10.7635 0.3829
32.3600 10.7701 0.3812
32.3800 10.7768 0.3807
32.4000 10.7835 0.3823
32.4200 10.7901 0.3805
32.4400 10.7968 0.3817
32.4600 10.8035 0.3825
32.4800 10.8101 0.3765
32.5000 10.8168 0.3815
32.5200 10.8234 0.3863
32.5400 10.8301 0.3768
32.5600 10.8368 0.3848
32.5800 10.8435 0.3819
32.6000 10.8502 0.3801
32.6200 10.8569 0.3830
32.6400 10.8636 0.3809
32.6600 10.8702 0.3799
32.6800 10.8768 0.3878
32.7000 10.8834 0.3759
32.7200 10.8901 0.3801
32.7400 10.8968 0.3896
32.7600 10.9036 0.3778
32.7800 10.9102 0.3767
32.8000 10.9169 0.3892
32.8200 10.9235 0.3814
32.8400 10.9302 0.3815
32.8600 10.9368 0.3845
32.8800 10.9434 0.3816
32.9000 10.9501 0.3858
32.9200 10.9568 0.3821
32.9400 10.9635 0.3742
32.9600 10.9701 0.3883
32.9800 10.9768 0.3850
33.0000 10.9835 0.3749
33.0200 10.9902 0.3938
33.0400 10.9968 0.3887
33.0600 11.0034 0.3795
33.0800 11.0100 0.3876
33.1000 11.0167 0.3888
33.1200 11.0235 0.3763
33.1400 11.0302 0.3874
33.1600 11.0368 0.3849
33.1800 11.0435 0.3808
33.2000 11.0502 0.3884
33.2200 11.0568 0.3837
33.2400 11.0634 0.3801
33.2600 11.0701 0.3923
33.2800 11.0768 0.3827
33.3000 11.0835 0.3816
33.3200 11.0902 0.3900
33.3400 11.0969 0.3870
33.3600 11.1036 0.3798
33.3800 11.1102 0.3900
33.4000 11.1168 0.3889
33.4200 11.1234 0.3841
33.4400 11.1301 0.3877
33.4600 11.1368 0.3903
33.4800 11.1435 0.3814
33.5000 11.1502 0.3892
33.5200 11.1569 0.3901
33.5400 11.1636 0.3805
33.5600 11.1702 0.3867
33.5800 11.1768 0.3899
33.6000 11.1834 0.3861
33.6200 11.1901 0.3896
33.6400 11.1968 0.3938
33.6600 11.2035 0.3804
33.6800 11.2102 0.3932
33.7000 11.2169 0.3940
33.7200 11.2235 0.3809
33.7400 11.2302 0.3917
33.7600 11.2368 0.3953
33.7800 11.2434 0.3798
33.8000 11.2500 0.3979
33.8200 11.2567 0.3905
33.8400 11.2635 0.3805
33.8600 11.2701 0.3991
33.8800 11.2768 0.3949
33.9000 11.2835 0.3769
33.9200 11.2902 0.3986
33.9400 11.2968 0.3905
33.9600 11.3034 0.3822
33.9800 11.3101 0.3968
34.0000 11.3168 0.3919
34.0200 11.3235 0.3827
34.0400 11.3302 0.3939
34.0600 11.3369 0.3951
34.0800 11.3436 0.3850
34.1000 11.3503 0.3983
34.1200 11.3569 0.3899
34.1400 11.3635 0.3885
34.1600 11.3701 0.3987
34.1800 11.3768 0.3914
34.2000 11.3835 0.3867
34.2200 11.3902 0.3967
34.2400 11.3969 0.3942
34.2600 11.4036 0.3870
34.2800 11.4102 0.3945
34.3000 11.4168 0.3908
34.3200 11.4234 0.3885
34.3400 11.4301 0.3986
34.3600 11.4368 0.3893
34.3800 11.4435 0.3842
34.4000 11.4501 0.3955
34.4200 11.4568 0.4006
34.4400 11.4635 0.3899
34.4600 11.4702 0.3894
34.4800 11.4768 0.3957
34.5000 11.4834 0.3910
34.5200 11.4900 0.3902
34.5400 11.4967 0.3990
34.5600 11.5034 0.3898
34.5800 11.5101 0.3925
34.6000 11.5168 0.3997
34.6200 11.5235 0.3905
34.6400 11.5302 0.3894
34.6600 11.5368 0.4017
34.6800 11.5434 0.3903
34.7000 11.5501 0.3871
34.7200 11.5568 0.4066
34.7400 11.5635 0.3856
34.7600 11.5702 0.3929
34.7800 11.5769 0.4031
34.8000 11.5836 0.3897
34.8200 11.5902 0.3933
34.8400 11.5969 0.4004
34.8600 11.6035 0.3879
34.8800 11.6101 0.4043
34.9000 11.6168 0.3970
34.9200 11.6235 0.3842
34.9400 11.6302 0.4005
34.9600 11.6369 0.4060
34.9800 11.6436 0.3868
35.0000 11.6502 0.3986
35.0200 11.6569 0.4036
35.0400 11.6635 0.3892
35.0600 11.6701 0.4008
35.0800 11.6767 0.4027
35.1000 11.6834 0.3918
35.1200 11.6901 0.4032
35.1400 11.6968 0.3976
35.1600 11.7035 0.3915
35.1800 11.7102 0.4033
35.2000 11.7168 0.3921
35.2200 11.7234 0.3961
35.2400 11.7300 0.4036
35.2600 11.7367 0.3969
35.2800 11.7435 0.3943
35.3000 11.7502 0.4025
35.3200 11.7568 0.3955
35.3400 11.7635 0.4009
35.3600 11.7702 0.4008
35.3800 11.7768 0.3919
35.4000 11.7835 0.4016
35.4200 11.7901 0.4063
35.4400 11.7968 0.3915
35.4600 11.8035 0.3989
35.4800 11.8102 0.4004
35.5000 11.8168 0.3975
35.5200 11.8235 0.4020
35.5400 11.8302 0.4009
35.5600 11.8369 0.3945
35.5800 11.8435 0.4027
35.6000 11.8501 0.4035
35.6200 11.8568 0.3953
35.6400 11.8635 0.3979
35.6600 11.8702 0.4002
35.6800 11.8769 0.3964
35.7000 11.8836 0.4032
35.7200 11.8902 0.4039
35.7400 11.8969 0.3929
35.7600 11.9035 0.4006
35.7800 11.9101 0.4052
35.8000 11.9168 0.3978
35.8200 11.9235 0.4009
35.8400 11.9302 0.4032
35.8600 11.9369 0.4006
35.8800 11.9435 0.4068
35.9000 11.9502 0.3963
35.9200 11.9569 0.4020
35.9400 11.9634 0.4025
35.9600 11.9700 0.4028
35.9800 11.9767 0.3992
36.0000 11.9834 0.4030
36.0200 11.9901 0.4047
36.0400 11.9968 0.4027
36.0600 12.0035 0.4041
36.0800 12.0102 0.4024
36.1000 12.0169 0.3989
36.1200 12.0235 0.4075
36.1400 12.0301 0.4024
36.1600 12.0368 0.4010
36.1800 12.0435 0.4053
36.2000 12.0502 0.3971
36.2200 12.0569 0.4052
36.2400 12.0636 0.4104
36.2600 12.0703 0.3977
36.2800 12.0769 0.4014
36.3000 12.0835 0.4105
36.3200 12.0901 0.3998
36.3400 12.0968 0.4070
36.3600 12.1035 0.4078
36.3800 12.1102 0.3948
36.4000 12.1169 0.4063
36.4200 12.1235 0.4126
36.4400 12.1302 0.3969
36.4600 12.1368 0.4093
36.4800 12.1434 0.4082
36.5000 12.1501 0.3951
36.5200 12.1567 0.4116
36.5400 12.1634 0.4119
36.5600 12.1701 0.3989
36.5800 12.1768 0.4127
36.6000 12.1835 0.4054
36.6200 12.1902 0.4012
36.6400 12.1968 0.4114
36.6600 12.2035 0.4086
36.6800 12.2101 0.3999
36.7000 12.2167 0.4114
36.7200 12.2234 0.4032
36.7400 12.2302 0.4052
36.7600 12.2368 0.4111
36.7800 12.2435 0.4018
36.8000 12.2502 0.4063
36.8200 12.2568 0.4073
36.8400 12.2635 0.4077
36.8600 12.2701 0.4082
36.8800 12.2768 0.4074
36.9000 12.2835 0.4093
36.9200 12.2902 0.4086
36.9400 12.2969 0.4017
36.9600 12.3035 0.4149
36.9800 12.3102 0.4093
37.0000 12.3169 0.3999
37.0200 12.3235 0.4134
37.0400 12.3301 0.4181
37.0600 12.3368 0.4016
37.0800 12.3435 0.4093
37.1000 12.3502 0.4096
37.1200 12.3569 0.4077
37.1400 12.3636 0.4129
37.1600 12.3703 0.4111
37.1800 12.3769 0.4046
37.2000 12.3835 0.4185
37.2200 12.3901 0.4075
37.2400 12.3967 0.4056
37.2600 12.4034 0.4183
37.2800 12.4101 0.4076
37.3000 12.4168 0.4048
37.3200 12.4235 0.4124
37.3400 12.4302 0.4101
37.3600 12.4368 0.4082
37.3800 12.4435 0.4121
37.4000 12.4501 0.4038
37.4200 12.4567 0.4157
37.4400 12.4634 0.4148
37.4600 12.4701 0.4048
37.4800 12.4768 0.4124
37.5000 12.4835 0.4165
37.5200 12.4902 0.4086
37.5400 12.4968 0.4111
37.5600 12.5035 0.4148
37.5800 12.5101 0.4131
37.6000 12.5168 0.4124
37.6200 12.5235 0.4150
37.6400 12.5302 0.4059
37.6600 12.5369 0.4147
37.6800 12.5436 0.4164
37.7000 12.5503 0.4102
37.7200 12.5569 0.4106
37.7400 12.5635 0.4168
37.7600 12.5701 0.4086
37.7800 12.5767 0.4114
37.8000 12.5835 0.4218
37.8200 12.5902 0.4072
37.8400 12.5969 0.4063
37.8600 12.6035 0.4244
37.8800 12.6102 0.4085
37.9000 12.6169 0.4089
37.9200 12.6235 0.4228
37.9400 12.6301 0.4091
37.9600 12.6368 0.4115
37.9800 12.6435 0.4260
38.0000 12.6502 0.4078
38.0200 12.6568 0.4103
38.0400 12.6635 0.4262
38.0600 12.6702 0.4059
38.0800 12.6769 0.4119
38.1000 12.6835 0.4251
38.1200 12.6901 0.4129
38.1400 12.6967 0.4117
38.1600 12.7034 0.4232
38.1800 12.7101 0.4061
38.2000 12.7168 0.4153
38.2200 12.7235 0.4252
38.2400 12.7302 0.4067
38.2600 12.7368 0.4109
38.2800 12.7435 0.4237
38.3000 12.7501 0.4096
38.3200 12.7568 0.4141
38.3400 12.7635 0.4254
38.3600 12.7702 0.4096
38.3800 12.7769 0.4117
38.4000 12.7835 0.4235
38.4200 12.7902 0.4120
38.4400 12.7969 0.4110
38.4600 12.8035 0.4266
38.4800 12.8102 0.4139
38.5000 12.8168 0.4129
38.5200 12.8235 0.4260
38.5400 12.8302 0.4136
38.5600 12.8369 0.4136
38.5800 12.8435 0.4290
38.6000 12.8502 0.4130
38.6200 12.8569 0.4127
38.6400 12.8635 0.4253
38.6600 12.8701 0.4176
38.6800 12.8767 0.4167
38.7000 12.8834 0.4266
38.7200 12.8901 0.4108
38.7400 12.8968 0.4189
38.7600 12.9035 0.4267
38.7800 12.9102 0.4105
38.8000 12.9168 0.4161
38.8200 12.9235 0.4276
38.8400 12.9301 0.4104
38.8600 12.9367 0.4178
38.8800 12.9434 0.4235
38.9000 12.9502 0.4129
38.9200 12.9569 0.4205
38.9400 12.9635 0.4185
38.9600 12.9702 0.4199
38.9800 12.9769 0.4221
39.0000 12.9835 0.4189
39.0200 12.9901 0.4179
39.0400 12.9968 0.4216
39.0600 13.0035 0.4197
39.0800 13.0102 0.4199
39.1000 13.0168 0.4256
39.1200 13.0235 0.4175
39.1400 13.0302 0.4209
39.1600 13.0369 0.4242
39.1800 13.0435 0.4146
39.2000 13.0501 0.4251
39.2200 13.0568 0.4255
39.2400 13.0634 0.4157
39.2600 13.0702 0.4214
39.2800 13.0769 0.4264
39.3000 13.0835 0.4138
39.3200 13.0902 0.4281
39.3400 13.0969 0.4198
39.3600 13.1035 0.4152
39.3800 13.1101 0.4303
39.4000 13.1167 0.4243
39.4200 13.1234 0.4154
39.4400 13.1301 0.4295
39.4600 13.1368 0.4206
39.4800 13.1435 0.4206
39.5000 13.1502 0.4247
39.5200 13.1569 0.4221
39.5400 13.1635 0.4191
39.5600 13.1701 0.4224
39.5800 13.1767 0.4280
39.6000 13.1834 0.4201
39.6200 13.1901 0.4257
39.6400 13.1968 0.4252
39.6600 13.2035 0.4210
39.6800 13.2102 0.4224
39.7000 13.2169 0.4262
39.7200 13.2235 0.4170
39.7400 13.2301 0.4296
39.7600 13.2367 0.4300
39.7800 13.2434 0.4214
39.8000 13.2502 0.4273
39.8200 13.2569 0.4227
39.8400 13.2636 0.4203
39.8600 13.2702 0.4284
39.8800 13.2769 0.4224
39.9000 13.2835 0.4240
39.9200 13.2901 0.4310
39.9400 13.2968 0.4266
39.9600 13.3035 0.4214
39.9800 13.3102 0.4287
40.0000 13.3169 0.4277
40.0200 13.3235 0.4216
40.0400 13.3302 0.4312
40.0600 13.3369 0.4216
40.0800 13.3435 0.4219
40.1000 13.3501 0.4300
40.1200 13.3567 0.4308
40.1400 13.3634 0.4240
40.1600 13.3701 0.4292
40.1800 13.3768 0.4320
40.2000 13.3835 0.4179
40.2200 13.3902 0.4305
40.2400 13.3969 0.4340
40.2600 13.4035 0.4136
40.2800 13.4101 0.4397
40.3000 13.4167 0.4344
40.3200 13.4234 0.4126
40.3400 13.4301 0.4376
40.3600 13.4368 0.4329
40.3800 13.4435 0.4124
40.4000 13.4502 0.4402
40.4200 13.4568 0.4326
40.4400 13.4635 0.4107
40.4600 13.4701 0.4410
40.4800 13.4768 0.4388
40.5000 13.4835 0.4139
40.5200 13.4902 0.4393
40.5400 13.4969 0.4284
40.5600 13.5035 0.4148
40.5800 13.5102 0.4451
40.6000 13.5169 0.4261
40.6200 13.5236 0.4156
40.6400 13.5302 0.4428
40.6600 13.5368 0.4289
40.6800 13.5434 0.4175
40.7000 13.5501 0.4458
40.7200 13.5569 0.4270
40.7400 13.5635 0.4200
40.7600 13.5702 0.4440
40.7800 13.5769 0.4259
40.8000 13.5835 0.4223
40.8200 13.5901 0.4436
40.8400 13.5967 0.4238
40.8600 13.6034 0.4271
40.8800 13.6101 0.4414
40.9000 13.6168 0.4289
40.9200 13.6235 0.4245
40.9400 13.6302 0.4387
40.9600 13.6369 0.4277
40.9800 13.6435 0.4305
41.0000 13.6501 0.4366
41.0200 13.6568 0.4312
41.0400 13.6634 0.4320
41.0600 13.6701 0.4359
41.0800 13.6768 0.4256
41.1000 13.6835 0.4300
41.1200 13.6902 0.4406
41.1400 13.6969 0.4315
41.1600 13.7035 0.4280
41.1800 13.7102 0.4369
41.2000 13.7168 0.4303
41.2200 13.7234 0.4304
41.2400 13.7301 0.4410
41.2600 13.7369 0.4328
41.2800 13.7435 0.4335
41.3000 13.7502 0.4381
41.3200 13.7569 0.4312
41.3400 13.7635 0.4311
41.3600 13.7702 0.4436
41.3800 13.7768 0.4319
41.4000 13.7834 0.4323
41.4200 13.7902 0.4405
41.4400 13.7969 0.4347
41.4600 13.8035 0.4305
41.4800 13.8102 0.4368
41.5000 13.8169 0.4309
41.5200 13.8236 0.4351
41.5400 13.8302 0.4382
41.5600 13.8368 0.4340
41.5800 13.8434 0.4358
41.6000 13.8501 0.4374
41.6200 13.8568 0.4308
41.6400 13.8635 0.4374
41.6600 13.8702 0.4379
41.6800 13.8769 0.4347
41.7000 13.8835 0.4350
41.7200 13.8901 0.4325
41.7400 13.8967 0.4371
41.7600 13.9034 0.4425
41.7800 13.9101 0.4373
41.8000 13.9168 0.4334
41.8200 13.9235 0.4389
41.8400 13.9302 0.4354
41.8600 13.9369 0.4397
41.8800 13.9435 0.4350
41.9000 13.9501 0.4380
41.9200 13.9568 0.4389
41.9400 13.9634 0.4361
41.9600 13.9702 0.4381
41.9800 13.9769 0.4366
42.0000 13.9836 0.4379
42.0200 13.9902 0.4404
42.0400 13.9969 0.4385
42.0600 14.0036 0.4381
42.0800 14.0102 0.4353
42.1000 14.0168 0.4417
42.1200 14.0234 0.4348
42.1400 14.0301 0.4397
42.1600 14.0368 0.4415
42.1800 14.0435 0.4362
42.2000 14.0502 0.4385
42.2200 14.0569 0.4437
42.2400 14.0636 0.4354
42.2600 14.0702 0.4360
42.2800 14.0768 0.4433
42.3000 14.0834 0.4369
42.3200 14.0901 0.4410
42.3400 14.0968 0.4425
42.3600 14.1035 0.4384
42.3800 14.1102 0.4385
42.4000 14.1169 0.4459
42.4200 14.1235 0.4387
42.4400 14.1301 0.4351
42.4600 14.1367 0.4467
42.4800 14.1434 0.4422
42.5000 14.1501 0.4332
42.5200 14.1568 0.4482
42.5400 14.1635 0.4378
42.5600 14.1701 0.4393
42.5800 14.1768 0.4432
42.6000 14.1835 0.4402
42.6200 14.1901 0.4367
42.6400 14.1968 0.4439
42.6600 14.2034 0.4434
42.6800 14.2101 0.4377
42.7000 14.2168 0.4427
42.7200 14.2235 0.4389
42.7400 14.2302 0.4364
42.7600 14.2369 0.4476
42.7800 14.2436 0.4430
42.8000 14.2502 0.4347
42.8200 14.2568 0.4467
42.8400 14.2634 0.4505
42.8600 14.2701 0.4379
42.8800 14.2768 0.4426
42.9000 14.2835 0.4448
42.9200 14.2902 0.4335
42.9400 14.2969 0.4522
42.9600 14.3036 0.4452
42.9800 14.3102 0.4337
43.0000 14.3168 0.4470
43.0200 14.3234 0.4539
43.0400 14.3301 0.4365
43.0600 14.3368 0.4463
43.0800 14.3435 0.4505
43.1000 14.3501 0.4358
43.1200 14.3568 0.4466
43.1400 14.3635 0.4491
43.1600 14.3701 0.4367
43.1800 14.3767 0.4518
43.2000 14.3834 0.4461
43.2200 14.3901 0.4387
43.2400 14.3968 0.4516
43.2600 14.4035 0.4484
43.2800 14.4102 0.4368
43.3000 14.4169 0.4485
43.3200 14.4236 0.4448
43.3400 14.4302 0.4367
43.3600 14.4368 0.4458
43.3800 14.4434 0.4529
43.4000 14.4501 0.4391
43.4200 14.4568 0.4488
43.4400 14.4635 0.4537
43.4600 14.4702 0.4329
43.4800 14.4769 0.4512
43.5000 14.4836 0.4520
43.5200 14.4902 0.4393
43.5400 14.4968 0.4504
43.5600 14.5034 0.4514
43.5800 14.5101 0.4371
43.6000 14.5168 0.4509
43.6200 14.5235 0.4510
43.6400 14.5302 0.4419
43.6600 14.5369 0.4506
43.6800 14.5436 0.4502
43.7000 14.5502 0.4393
43.7200 14.5568 0.4556
43.7400 14.5634 0.4539
43.7600 14.5701 0.4397
43.7800 14.5768 0.4510
43.8000 14.5835 0.4508
43.8200 14.5902 0.4376
43.8400 14.5969 0.4552
43.8600 14.6036 0.4501
43.8800 14.6102 0.4400
43.9000 14.6168 0.4556
43.9200 14.6234 0.4533
43.9400 14.6301 0.4437
43.9600 14.6368 0.4503
43.9800 14.6435 0.4545
44.0000 14.6502 0.4417
44.0200 14.6569 0.4504
44.0400 14.6635 0.4510
44.0600 14.6702 0.4469
44.0800 14.6768 0.4516
44.1000 14.6834 0.4509
44.1200 14.6901 0.4501
44.1400 14.6968 0.4536
44.1600 14.7035 0.4481
44.1800 14.7102 0.4504
44.2000 14.7169 0.4514
44.2200 14.7236 0.4541
44.2400 14.7302 0.4463
44.2600 14.7368 0.4529
44.2800 14.7434 0.4569
44.3000 14.7501 0.4485
44.3200 14.7568 0.4478
44.3400 14.7635 0.4556
44.3600 14.7702 0.4489
44.3800 14.7769 0.4536
44.4000 14.7836 0.4554
44.4200 14.7902 0.4434
44.4400 14.7968 0.4545
44.4600 14.8034 0.4617
44.4800 14.8101 0.4456
44.5000 14.8168 0.4504
44.5200 14.8235 0.4591
44.5400 14.8302 0.4438
44.5600 14.8369 0.4509
44.5800 14.8435 0.4576
44.6000 14.8502 0.4468
44.6200 14.8568 0.4500
44.6400 14.8634 0.4612
44.6600 14.8701 0.4485
44.6800 14.8768 0.4516
44.7000 14.8835 0.4585
44.7200 14.8901 0.4489
44.7400 14.8968 0.4502
44.7600 14.9035 0.4678
44.7800 14.9102 0.4433
44.8000 14.9168 0.4518
44.8200 14.9234 0.4656
44.8400 14.9301 0.4520
44.8600 14.9368 0.4451
44.8800 14.9435 0.4616
44.9000 14.9502 0.4528
44.9200 14.9569 0.4453
44.9400 14.9636 0.4635
44.9600 14.9702 0.4529
44.9800 14.9768 0.4483
45.0000 14.9834 0.4683
45.0200 14.9901 0.4528
45.0400 14.9969 0.4442
45.0600 15.0036 0.4655
45.0800 15.0102 0.4543
45.1000 15.0169 0.4458
45.1200 15.0235 0.4657
45.1400 15.0302 0.4547
45.1600 15.0368 0.4466
45.1800 15.0434 0.4715
45.2000 15.0501 0.4527
45.2200 15.0568 0.4493
45.2400 15.0635 0.4670
45.2600 15.0701 0.4513
45.2800 15.0768 0.4527
45.3000 15.0835 0.4653
45.3200 15.0902 0.4513
45.3400 15.0968 0.4575
45.3600 15.1034 0.4615
45.3800 15.1100 0.4532
45.4000 15.1168 0.4552
45.4200 15.1235 0.4611
45.4400 15.1302 0.4572
45.4600 15.1369 0.4542
45.4800 15.1436 0.4587
45.5000 15.1502 0.4571
45.5200 15.1568 0.4576
45.5400 15.1634 0.4614
45.5600 15.1701 0.4618
45.5800 15.1768 0.4536
45.6000 15.1835 0.4591
45.6200 15.1902 0.4622
45.6400 15.1969 0.4547
45.6600 15.2036 0.4577
45.6800 15.2102 0.4639
45.7000 15.2168 0.4579
45.7200 15.2235 0.4592
45.7400 15.2301 0.4631
45.7600 15.2368 0.4632
45.7800 15.2435 0.4585
45.8000 15.2502 0.4606
45.8200 15.2569 0.4586
45.8400 15.2636 0.4618
45.8600 15.2702 0.4586
45.8800 15.2768 0.4588
45.9000 15.2834 0.4607
45.9200 15.2901 0.4644
45.9400 15.2968 0.4595
45.9600 15.3035 0.4584
45.9800 15.3102 0.4663
46.0000 15.3169 0.4610
46.0200 15.3236 0.4573
46.0400 15.3302 0.4676
46.0600 15.3368 0.4591
46.0800 15.3434 0.4597
46.1000 15.3500 0.4742
46.1200 15.3568 0.4580
46.1400 15.3635 0.4558
46.1600 15.3701 0.4693
46.1800 15.3768 0.4630
46.2000 15.3835 0.4552
46.2200 15.3902 0.4714
46.2400 15.3968 0.4600
46.2600 15.4034 0.4579
46.2800 15.4101 0.4734
46.3000 15.4168 0.4617
46.3200 15.4235 0.4552
46.3400 15.4302 0.4762
46.3600 15.4369 0.4570
46.3800 15.4436 0.4587
46.4000 15.4502 0.4726
46.4200 15.4568 0.4602
46.4400 15.4634 0.4535
46.4600 15.4701 0.4761
46.4800 15.4768 0.4608
46.5000 15.4835 0.4515
46.5200 15.4902 0.4763
46.5400 15.4969 0.4644
46.5600 15.5036 0.4534
46.5800 15.5102 0.4762
46.6000 15.5168 0.4571
46.6200 15.5234 0.4602
46.6400 15.5301 0.4804
46.6600 15.5368 0.4558
46.6800 15.5435 0.4562
46.7000 15.5502 0.4857
46.7200 15.5568 0.4563
46.7400 15.5635 0.4517
46.7600 15.5702 0.4841
46.7800 15.5768 0.4577
46.8000 15.5834 0.4586
46.8200 15.5901 0.4813
46.8400 15.5968 0.4564
46.8600 15.6035 0.4576
46.8800 15.6101 0.4840
46.9000 15.6168 0.4576
46.9200 15.6235 0.4579
46.9400 15.6302 0.4813
46.9600 15.6368 0.4570
46.9800 15.6434 0.4595
47.0000 15.6501 0.4825
47.0200 15.6568 0.4598
47.0400 15.6635 0.4629
47.0600 15.6702 0.4784
47.0800 15.6769 0.4605
47.1000 15.6836 0.4609
47.1200 15.6902 0.4826
47.1400 15.6968 0.4624
47.1600 15.7034 0.4626
47.1800 15.7101 0.4777
47.2000 15.7168 0.4615
47.2200 15.7235 0.4671
47.2400 15.7302 0.4766
47.2600 15.7369 0.4657
47.2800 15.7435 0.4645
47.3000 15.7502 0.4777
47.3200 15.7568 0.4635
47.3400 15.7634 0.4666
47.3600 15.7701 0.4802
47.3800 15.7768 0.4626
47.4000 15.7835 0.4623
47.4200 15.7901 0.4810
47.4400 15.7968 0.4671
47.4600 15.8035 0.4659
47.4800 15.8102 0.4738
47.5000 15.8168 0.4710
47.5200 15.8234 0.4638
47.5400 15.8300 0.4778
47.5600 15.8367 0.4693
47.5800 15.8435 0.4680
47.6000 15.8502 0.4799
47.6200 15.8569 0.4657
47.6400 15.8635 0.4639
47.6600 15.8702 0.4831
47.6800 15.8768 0.4676
47.7000 15.8834 0.4631
47.7200 15.8901 0.4804
47.7400 15.8968 0.4707
47.7600 15.9035 0.4631
47.7800 15.9102 0.4795
47.8000 15.9169 0.4705
47.8200 15.9235 0.4648
47.8400 15.9302 0.4834
47.8600 15.9369 0.4637
47.8800 15.9435 0.4668
47.9000 15.9501 0.4849
47.9200 15.9567 0.4718
47.9400 15.9635 0.4656
47.9600 15.9702 0.4849
47.9800 15.9769 0.4674
48.0000 15.9836 0.4670
48.0200 15.9902 0.4797
48.0400 15.9969 0.4669
48.0600 16.0034 0.4709
48.0800 16.0101 0.4814
48.1000 16.0168 0.4686
48.1200 16.0235 0.4747
48.1400 16.0302 0.4745
48.1600 16.0369 0.4722
48.1800 16.0435 0.4734
48.2000 16.0502 0.4759
48.2200 16.0568 0.4689
48.2400 16.0634 0.4741
48.2600 16.0701 0.4766
48.2800 16.0767 0.4716
48.3000 16.0835 0.4755
48.3200 16.0901 0.4769
48.3400 16.0968 0.4778
48.3600 16.1035 0.4709
48.3800 16.1102 0.4784
48.4000 16.1168 0.4746
48.4200 16.1234 0.4739
48.4400 16.1301 0.4793
48.4600 16.1368 0.4773
48.4800 16.1435 0.4715
48.5000 16.1502 0.4767
48.5200 16.1569 0.4735
48.5400 16.1636 0.4737
48.5600 16.1703 0.4796
48.5800 16.1769 0.4766
48.6000 16.1835 0.4738
48.6200 16.1901 0.4803
48.6400 16.1968 0.4754
48.6600 16.2035 0.4784
48.6800 16.2102 0.4742
48.7000 16.2169 0.4809
48.7200 16.2236 0.4787
48.7400 16.2302 0.4731
48.7600 16.2369 0.4801
48.7800 16.2435 0.4761
48.8000 16.2501 0.4757
48.8200 16.2568 0.4849
48.8400 16.2635 0.4707
48.8600 16.2702 0.4730
48.8800 16.2768 0.4842
48.9000 16.2835 0.4748
48.9200 16.2902 0.4780
48.9400 16.2968 0.4828
48.9600 16.3034 0.4765
48.9800 16.3100 0.4776
49.0000 16.3167 0.4831
49.0200 16.3234 0.4746
49.0400 16.3301 0.4788
49.0600 16.3368 0.4812
49.0800 16.3435 0.4796
49.1000 16.3502 0.4731
49.1200 16.3568 0.4815
49.1400 16.3634 0.4820
49.1600 16.3701 0.4758
49.1800 16.3768 0.4830
49.2000 16.3835 0.4808
49.2200 16.3902 0.4729
49.2400 16.3969 0.4815
49.2600 16.4036 0.4843
49.2800 16.4102 0.4733
49.3000 16.4169 0.4815
49.3200 16.4235 0.4835
49.3400 16.4301 0.4726
49.3600 16.4368 0.4847
49.3800 16.4435 0.4823
49.4000 16.4502 0.4755
49.4200 16.4569 0.4860
49.4400 16.4636 0.4803
49.4600 16.4702 0.4756
49.4800 16.4769 0.4867
49.5000 16.4835 0.4815
49.5200 16.4901 0.4776
49.5400 16.4967 0.4900
49.5600 16.5034 0.4799
49.5800 16.5102 0.4808
49.6000 16.5168 0.4880
49.6200 16.5235 0.4825
49.6400 16.5302 0.4763
49.6600 16.5368 0.4888
49.6800 16.5434 0.4802
49.7000 16.5500 0.4816
49.7200 16.5567 0.4907
49.7400 16.5634 0.4804
49.7600 16.5701 0.4779
49.7800 16.5768 0.4872
49.8000 16.5835 0.4831
49.8200 16.5902 0.4847
49.8400 16.5969 0.4886
49.8600 16.6035 0.4809
49.8800 16.6101 0.4784
49.9000 16.6168 0.4893
49.9200 16.6235 0.4853
49.9400 16.6302 0.4740
49.9600 16.6369 0.4931
49.9800 16.6436 0.4817
50.0000 16.6502 0.4805
50.0200 16.6569 0.4913
50.0400 16.6635 0.4872
50.0600 16.6701 0.4791
50.0800 16.6768 0.4932
50.1000 16.6835 0.4823
50.1200 16.6902 0.4817
50.1400 16.6969 0.4911
50.1600 16.7036 0.4842
50.1800 16.7102 0.4789
50.2000 16.7169 0.4925
50.2200 16.7235 0.4846
50.2400 16.7301 0.4826
50.2600 16.7368 0.4924
50.2800 16.7435 0.4849
50.3000 16.7502 0.4792
50.3200 16.7569 0.4942
50.3400 16.7635 0.4847
50.3600 16.7702 0.4877
50.3800 16.7768 0.4870
50.4000 16.7835 0.4845
50.4200 16.7901 0.4877
50.4400 16.7967 0.4934
50.4600 16.8034 0.4894
50.4800 16.8101 0.4793
50.5000 16.8168 0.4899
50.5200 16.8235 0.4877
50.5400 16.8302 0.4847
50.5600 16.8368 0.4894
50.5800 16.8435 0.4869
50.6000 16.8501 0.4887
50.6200 16.8568 0.4916
50.6400 16.8635 0.4887
50.6600 16.8702 0.4861
50.6800 16.8769 0.4899
50.7000 16.8836 0.4914
50.7200 16.8902 0.4813
50.7400 16.8969 0.4897
50.7600 16.9035 0.4930
50.7800 16.9101 0.4831
50.8000 16.9168 0.4915
50.8200 16.9235 0.4924
50.8400 16.9302 0.4810
50.8600 16.9368 0.4932
50.8800 16.9435 0.4934
50.9000 16.9502 0.4827
50.9200 16.9569 0.4932
50.9400 16.9635 0.4931
50.9600 16.9701 0.4820
50.9800 16.9767 0.4950
51.0000 16.9834 0.4976
51.0200 16.9901 0.4831
51.0400 16.9968 0.4916
51.0600 17.0035 0.4934
51.0800 17.0102 0.4880
51.1000 17.0169 0.4959
51.1200 17.0235 0.4922
51.1400 17.0301 0.4855
51.1600 17.0367 0.4957
51.1800 17.0434 0.4919
51.2000 17.0501 0.4873
51.2200 17.0568 0.4899
51.2400 17.0635 0.4969
51.2600 17.0702 0.4902
51.2800 17.0768 0.4878
51.3000 17.0835 0.4923
51.3200 17.0901 0.4952
51.3400 17.0968 0.4953
51.3600 17.1035 0.4965
51.3800 17.1102 0.4856
51.4000 17.1169 0.4910
51.4200 17.1235 0.5019
51.4400 17.1302 0.4901
51.4600 17.1369 0.4880
51.4800 17.1435 0.5031
51.5000 17.1502 0.4871
51.5200 17.1568 0.4899
51.5400 17.1635 0.5058
51.5600 17.1702 0.4880
51.5800 17.1769 0.4904
51.6000 17.1836 0.5028
51.6200 17.1903 0.4885
51.6400 17.1969 0.4891
51.6600 17.2035 0.5091
51.6800 17.2101 0.4846
51.7000 17.2167 0.4941
51.7200 17.2234 0.5050
51.7400 17.2301 0.4858
51.7600 17.2368 0.4903
51.7800 17.2435 0.5071
51.8000 17.2502 0.4864
51.8200 17.2568 0.4954
51.8400 17.2635 0.5019
51.8600 17.2701 0.4878
51.8800 17.2767 0.4994
51.9000 17.2834 0.5050
51.9200 17.2901 0.4809
51.9400 17.2968 0.5052
51.9600 17.3035 0.5050
51.9800 17.3102 0.4846
52.0000 17.3169 0.5011
52.0200 17.3235 0.5024
52.0400 17.3301 0.4904
52.0600 17.3368 0.5017
52.0800 17.3435 0.5017
52.1000 17.3502 0.4945
52.1200 17.3569 0.4979
52.1400 17.3636 0.4950
52.1600 17.3703 0.4962
52.1800 17.3769 0.5032
52.2000 17.3835 0.4987
52.2200 17.3901 0.4926
52.2400 17.3967 0.5019
52.2600 17.4035 0.4986
52.2800 17.4102 0.4954
52.3000 17.4169 0.4945
52.3200 17.4235 0.5025
52.3400 17.4302 0.4951
52.3600 17.4369 0.4949
52.3800 17.4435 0.5013
52.4000 17.4501 0.5006
52.4200 17.4568 0.4999
52.4400 17.4635 0.4996
52.4600 17.4702 0.4976
52.4800 17.4768 0.5003
52.5000 17.4835 0.5032
52.5200 17.4902 0.4978
52.5400 17.4969 0.4944
52.5600 17.5035 0.5038
52.5800 17.5101 0.5003
52.6000 17.5167 0.4999
52.6200 17.5234 0.4991
52.6400 17.5301 0.5021
52.6600 17.5368 0.5046
52.6800 17.5435 0.4962
52.7000 17.5502 0.5031
52.7200 17.5568 0.5022
52.7400 17.5635 0.4997
52.7600 17.5701 0.5019
52.7800 17.5767 0.5005
52.8000 17.5834 0.5043
52.8200 17.5902 0.5054
52.8400 17.5969 0.4996
52.8600 17.6035 0.5010
52.8800 17.6102 0.5040
52.9000 17.6169 0.5036
52.9200 17.6236 0.5013
52.9400 17.6302 0.5059
52.9600 17.6368 0.5037
52.9800 17.6435 0.5066
53.0000 17.6502 0.5017
53.0200 17.6569 0.5034
53.0400 17.6635 0.5036
53.0600 17.6702 0.5022
53.0800 17.6769 0.5023
53.1000 17.6835 0.4993
53.1200 17.6901 0.5089
53.1400 17.6967 0.5000
53.1600 17.7034 0.4989
53.1800 17.7101 0.5077
53.2000 17.7168 0.5036
53.2200 17.7235 0.5026
53.2400 17.7302 0.5099
53.2600 17.7369 0.5033
53.2800 17.7435 0.5010
53.3000 17.7501 0.5088
53.3200 17.7567 0.5050
53.3400 17.7634 0.5001
53.3600 17.7702 0.5126
53.3800 17.7768 0.4995
53.4000 17.7835 0.5029
53.4200 17.7902 0.5110
53.4400 17.7969 0.4987
53.4600 17.8035 0.4994
53.4800 17.8101 0.5139
53.5000 17.8168 0.5021
53.5200 17.8235 0.5100
53.5400 17.8301 0.5144
53.5600 17.8368 0.4966
53.5800 17.8435 0.5056
53.6000 17.8502 0.5152
53.6200 17.8569 0.4967
53.6400 17.8635 0.5056
53.6600 17.8701 0.5156
53.6800 17.8767 0.5019
53.7000 17.8834 0.5037
53.7200 17.8902 0.5157
53.7400 17.8969 0.5063
53.7600 17.9035 0.5009
53.7800 17.9102 0.5156
53.8000 17.9169 0.5033
53.8200 17.9235 0.5020
53.8400 17.9301 0.5157
53.8600 17.9367 0.5085
53.8800 17.9434 0.4974
53.9000 17.9501 0.5187
53.9200 17.9568 0.5009
53.9400 17.9635 0.5019
53.9600 17.9701 0.5200
53.9800 17.9768 0.5064
54.0000 17.9835 0.5000
54.0200 17.9901 0.5193
54.0400 17.9967 0.5040
54.0600 18.0034 0.5049
54.0800 18.0101 0.5187
54.1000 18.0168 0.5053
54.1200 18.0235 0.5037
54.1400 18.0302 0.5180
54.1600 18.0369 0.5081
54.1800 18.0435 0.5043
54.2000 18.0501 0.5172
54.2200 18.0568 0.5029
54.2400 18.0634 0.5108
54.2600 18.0702 0.5138
54.2800 18.0769 0.5030
54.3000 18.0835 0.5118
54.3200 18.0902 0.5147
54.3400 18.0969 0.5048
54.3600 18.1035 0.5078
54.3800 18.1101 0.5169
54.4000 18.1168 0.5130
54.4200 18.1234 0.5054
54.4400 18.1301 0.5179
54.4600 18.1369 0.5083
54.4800 18.1435 0.5072
54.5000 18.1502 0.5192
54.5200 18.1569 0.5095
54.5400 18.1636 0.5067
54.5600 18.1702 0.5160
54.5800 18.1768 0.5127
54.6000 18.1834 0.5094
54.6200 18.1901 0.5162
54.6400 18.1968 0.5113
54.6600 18.2035 0.5058
54.6800 18.2102 0.5253
54.7000 18.2169 0.5101
54.7200 18.2235 0.5055
54.7400 18.2301 0.5174
54.7600 18.2367 0.5096
54.7800 18.2434 0.5127
54.8000 18.2501 0.5193
54.8200 18.2568 0.5113
54.8400 18.2635 0.5096
54.8600 18.2702 0.5202
54.8800 18.2769 0.5073
54.9000 18.2835 0.5126
54.9200 18.2902 0.5227
54.9400 18.2968 0.5097
54.9600 18.3034 0.5098
54.9800 18.3101 0.5220
55.0000 18.3168 0.5103
55.0200 18.3235 0.5139
55.0400 18.3302 0.5226
55.0600 18.3369 0.5121
55.0800 18.3436 0.5094
55.1000 18.3502 0.5248
55.1200 18.3568 0.5106
55.1400 18.3634 0.5109
55.1600 18.3701 0.5244
55.1800 18.3768 0.5126
55.2000 18.3835 0.5080
55.2200 18.3902 0.5230
55.2400 18.3969 0.5192
55.2600 18.4035 0.5076
55.2800 18.4101 0.5234
55.3000 18.4167 0.5176
55.3200 18.4234 0.5090
55.3400 18.4301 0.5213
55.3600 18.4368 0.5175
55.3800 18.4435 0.5080
55.4000 18.4502 0.5227
55.4200 18.4569 0.5172
55.4400 18.4635 0.5144
55.4600 18.4701 0.5195
55.4800 18.4767 0.5173
55.5000 18.4834 0.5146
55.5200 18.4901 0.5266
55.5400 18.4968 0.5154
55.5600 18.5035 0.5170
55.5800 18.5102 0.5241
55.6000 18.5168 0.5183
55.6200 18.5235 0.5129
55.6400 18.5302 0.5267
55.6600 18.5368 0.5208
55.6800 18.5434 0.5100
55.7000 18.5501 0.5222
55.7200 18.5568 0.5244
55.7400 18.5635 0.5110
55.7600 18.5702 0.5225
55.7800 18.5769 0.5239
55.8000 18.5835 0.5137
55.8200 18.5902 0.5227
55.8400 18.5968 0.5236
55.8600 18.6034 0.5143
55.8800 18.6101 0.5239
55.9000 18.6169 0.5265
55.9200 18.6235 0.5122
55.9400 18.6302 0.5225
55.9600 18.6369 0.5236
55.9800 18.6435 0.5169
56.0000 18.6502 0.5191
56.0200 18.6568 0.5239
56.0400 18.6634 0.5193
56.0600 18.6701 0.5254
56.0800 18.6768 0.5180
56.1000 18.6835 0.5177
56.1200 18.6902 0.5261
56.1400 18.6968 0.5232
56.1600 18.7035 0.5173
56.1800 18.7102 0.5239
56.2000 18.7168 0.5245
56.2200 18.7234 0.5201
56.2400 18.7301 0.5181
56.2600 18.7368 0.5267
56.2800 18.7435 0.5248
56.3000 18.7502 0.5204
56.3200 18.7569 0.5223
56.3400 18.7635 0.5228
56.3600 18.7702 0.5225
56.3800 18.7768 0.5253
56.4000 18.7835 0.5254
56.4200 18.7902 0.5198
56.4400 18.7969 0.5258
56.4600 18.8036 0.5238
56.4800 18.8102 0.5188
56.5000 18.8169 0.5280
56.5200 18.8236 0.5283
56.5400 18.8302 0.5172
56.5600 18.8368 0.5282
56.5800 18.8434 0.5269
56.6000 18.8501 0.5196
56.6200 18.8568 0.5283
56.6400 18.8635 0.5269
56.6600 18.8702 0.5148
56.6800 18.8769 0.5336
56.7000 18.8836 0.5257
56.7200 18.8902 0.5137
56.7400 18.8968 0.5365
56.7600 18.9034 0.5301
56.7800 18.9101 0.5159
56.8000 18.9168 0.5332
56.8200 18.9235 0.5263
56.8400 18.9302 0.5170
56.8600 18.9369 0.5318
56.8800 18.9436 0.5254
56.9000 18.9502 0.5221
56.9200 18.9567 0.5325
56.9400 18.9634 0.5257
56.9600 18.9701 0.5220
56.9800 18.9768 0.5361
57.0000 18.9835 0.5242
57.0200 18.9902 0.5218
57.0400 18.9968 0.5337
57.0600 19.0035 0.5311
57.0800 19.0101 0.5233
57.1000 19.0168 0.5335
57.1200 19.0234 0.5306
57.1400 19.0301 0.5265
57.1600 19.0368 0.5254
57.1800 19.0435 0.5319
57.2000 19.0502 0.5259
57.2200 19.0569 0.5269
57.2400 19.0636 0.5308
57.2600 19.0702 0.5241
57.2800 19.0768 0.5279
57.3000 19.0834 0.5355
57.3200 19.0901 0.5268
57.3400 19.0969 0.5279
57.3600 19.1036 0.5326
57.3800 19.1102 0.5263
57.4000 19.1169 0.5296
57.4200 19.1235 0.5380
57.4400 19.1302 0.5219
57.4600 19.1368 0.5233
57.4800 19.1434 0.5448
57.5000 19.1501 0.5204
57.5200 19.1568 0.5276
57.5400 19.1635 0.5441
57.5600 19.1701 0.5192
57.5800 19.1768 0.5295
57.6000 19.1835 0.5420
57.6200 19.1901 0.5190
57.6400 19.1968 0.5349
57.6600 19.2034 0.5398
57.6800 19.2101 0.5193
57.7000 19.2168 0.5315
57.7200 19.2235 0.5463
57.7400 19.2302 0.5189
57.7600 19.2369 0.5328
57.7800 19.2436 0.5417
57.8000 19.2502 0.5192
57.8200 19.2568 0.5345
57.8400 19.2634 0.5426
57.8600 19.2701 0.5173
57.8800 19.2768 0.5353
57.9000 19.2835 0.5410
57.9200 19.2902 0.5165
57.9400 19.2969 0.5347
57.9600 19.3036 0.5429
57.9800 19.3102 0.5204
58.0000 19.3168 0.5352
58.0200 19.3234 0.5378
58.0400 19.3301 0.5242
58.0600 19.3368 0.5369
58.0800 19.3435 0.5365
58.1000 19.3502 0.5254
58.1200 19.3569 0.5341
58.1400 19.3636 0.5390
58.1600 19.3702 0.5276
58.1800 19.3768 0.5418
58.2000 19.3834 0.5381
58.2200 19.3901 0.5276
58.2400 19.3968 0.5388
58.2600 19.4035 0.5388
58.2800 19.4102 0.5272
58.3000 19.4169 0.5396
58.3200 19.4236 0.5346
58.3400 19.4302 0.5283
58.3600 19.4368 0.5425
58.3800 19.4434 0.5405
58.4000 19.4501 0.5264
58.4200 19.4568 0.5388
58.4400 19.4635 0.5379
58.4600 19.4702 0.5278
58.4800 19.4768 0.5429
58.5000 19.4835 0.5405
58.5200 19.4902 0.5309
58.5400 19.4968 0.5352
58.5600 19.5034 0.5462
58.5800 19.5101 0.5297
58.6000 19.5168 0.5415
58.6200 19.5235 0.5451
58.6400 19.5302 0.5253
58.6600 19.5369 0.5387
58.6800 19.5436 0.5461
58.7000 19.5502 0.5281
58.7200 19.5568 0.5422
58.7400 19.5634 0.5473
58.7600 19.5701 0.5308
58.7800 19.5768 0.5345
58.8000 19.5835 0.5452
58.8200 19.5902 0.5335
58.8400 19.5969 0.5365
58.8600 19.6036 0.5398
58.8800 19.6102 0.5333
58.9000 19.6168 0.5384
58.9200 19.6234 0.5478
58.9400 19.6301 0.5327
58.9600 19.6368 0.5359
58.9800 19.6435 0.5492
59.0000 19.6502 0.5341
59.0200 19.6569 0.5349
59.0400 19.6635 0.5481
59.0600 19.6702 0.5397
59.0800 19.6768 0.5337
59.1000 19.6834 0.5488
59.1200 19.6901 0.5373
59.1400 19.6968 0.5360
59.1600 19.7035 0.5499
59.1800 19.7101 0.5410
59.2000 19.7168 0.5358
59.2200 19.7235 0.5483
59.2400 19.7302 0.5360
59.2600 19.7368 0.5355
59.2800 19.7434 0.5509
59.3000 19.7501 0.5397
59.3200 19.7568 0.5298
59.3400 19.7635 0.5501
59.3600 19.7702 0.5371
59.3800 19.7769 0.5366
59.4000 19.7836 0.5495
59.4200 19.7902 0.5422
59.4400 19.7968 0.5390
59.4600 19.8034 0.5458
59.4800 19.8101 0.5435
59.5000 19.8168 0.5412
59.5200 19.8235 0.5505
59.5400 19.8302 0.5380
59.5600 19.8369 0.5379
59.5800 19.8435 0.5477
59.6000 19.8502 0.5450
59.6200 19.8568 0.5407
59.6400 19.8634 0.5499
59.6600 19.8701 0.5454
59.6800 19.8768 0.5396
59.7000 19.8835 0.5441
59.7200 19.8902 0.5462
59.7400 19.8969 0.5376
59.7600 19.9035 0.5514
59.7800 19.9102 0.5463
59.8000 19.9168 0.5369
59.8200 19.9234 0.5513
59.8400 19.9300 0.5509
59.8600 19.9368 0.5349
59.8800 19.9435 0.5521
59.9000 19.9502 0.5500
59.9200 19.9569 0.5348
59.9400 19.9636 0.5535
59.9600 19.9702 0.5480
59.9800 19.9768 0.5378
60.0000 19.9834 0.5565
60.0200 19.9901 0.5478
60.0400 19.9968 0.5412
60.0600 20.0035 0.5529
60.0800 20.0102 0.5449
60.1000 20.0169 0.5440
60.1200 20.0235 0.5553
60.1400 20.0302 0.5475
60.1600 20.0369 0.5424
60.1800 20.0435 0.5551
60.2000 20.0501 0.5439
60.2200 20.0568 0.5454
60.2400 20.0635 0.5521
60.2600 20.0702 0.5446
60.2800 20.0769 0.5466
60.3000 20.0836 0.5529
60.3200 20.0902 0.5468
60.3400 20.0968 0.5494
60.3600 20.1034 0.5517
60.3800 20.1101 0.5491
60.4000 20.1168 0.5454
60.4200 20.1235 0.5472
60.4400 20.1302 0.5490
60.4600 20.1369 0.5481
60.4800 20.1435 0.5485
60.5000 20.1502 0.5508
60.5200 20.1568 0.5488
60.5400 20.1634 0.5506
60.5600 20.1700 0.5552
60.5800 20.1767 0.5458
60.6000 20.1835 0.5456
60.6200 20.1901 0.5558
60.6400 20.1968 0.5496
60.6600 20.2035 0.5440
60.6800 20.2102 0.5556
60.7000 20.2168 0.5476
60.7200 20.2234 0.5498
60.7400 20.2301 0.5587
60.7600 20.2368 0.5447
60.7800 20.2435 0.5464
60.8000 20.2502 0.5618
60.8200 20.2569 0.5436
60.8400 20.2636 0.5510
60.8600 20.2703 0.5564
60.8800 20.2769 0.5476
60.9000 20.2835 0.5490
60.9200 20.2901 0.5594
60.9400 20.2968 0.5475
60.9600 20.3035 0.5493
60.9800 20.3102 0.5562
61.0000 20.3169 0.5466
61.0200 20.3236 0.5563
61.0400 20.3302 0.5540
61.0600 20.3368 0.5470
61.0800 20.3434 0.5549
61.1000 20.3501 0.5571
61.1200 20.3568 0.5490
61.1400 20.3635 0.5560
61.1600 20.3702 0.5545
61.1800 20.3768 0.5552
61.2000 20.3835 0.5536
61.2200 20.3902 0.5569
61.2400 20.3968 0.5549
61.2600 20.4034 0.5562
61.2800 20.4101 0.5529
61.3000 20.4168 0.5607
61.3200 20.4235 0.5507
61.3400 20.4301 0.5553
61.3600 20.4368 0.5599
61.3800 20.4435 0.5463
61.4000 20.4501 0.5609
61.4200 20.4568 0.5653
61.4400 20.4634 0.5402
61.4600 20.4701 0.5601
61.4800 20.4768 0.5632
61.5000 20.4835 0.5458
61.5200 20.4902 0.5594
61.5400 20.4969 0.5599
61.5600 20.5036 0.5477
61.5800 20.5102 0.5611
61.6000 20.5169 0.5608
61.6200 20.5235 0.5480
61.6400 20.5301 0.5653
61.6600 20.5368 0.5578
61.6800 20.5435 0.5495
61.7000 20.5502 0.5614
61.7200 20.5569 0.5543
61.7400 20.5635 0.5527
61.7600 20.5702 0.5661
61.7800 20.5768 0.5501
61.8000 20.5835 0.5582
61.8200 20.5901 0.5619
61.8400 20.5968 0.5532
61.8600 20.6035 0.5582
61.8800 20.6101 0.5610
61.9000 20.6168 0.5558
61.9200 20.6235 0.5577
61.9400 20.6302 0.5592
61.9600 20.6368 0.5609
61.9800 20.6434 0.5589
62.0000 20.6500 0.5629
62.0200 20.6567 0.5623
62.0400 20.6635 0.5557
62.0600 20.6702 0.5582
62.0800 20.6768 0.5672
62.1000 20.6835 0.5587
62.1200 20.6902 0.5579
62.1400 20.6968 0.5651
62.1600 20.7035 0.5535
62.1800 20.7101 0.5622
62.2000 20.7168 0.5691
62.2200 20.7235 0.5551
62.2400 20.7302 0.5591
62.2600 20.7369 0.5680
62.2800 20.7435 0.5515
62.3000 20.7502 0.5632
62.3200 20.7569 0.5727
62.3400 20.7635 0.5537
62.3600 20.7701 0.5658
62.3800 20.7768 0.5730
62.4000 20.7835 0.5465
62.4200 20.7902 0.5695
62.4400 20.7969 0.5689
62.4600 20.8036 0.5476
62.4800 20.8102 0.5681
62.5000 20.8169 0.5639
62.5200 20.8235 0.5502
62.5400 20.8301 0.5737
62.5600 20.8368 0.5665
62.5800 20.8435 0.5494
62.6000 20.8502 0.5753
62.6200 20.8569 0.5667
62.6400 20.8635 0.5535
62.6600 20.8702 0.5720
62.6800 20.8768 0.5643
62.7000 20.8834 0.5543
62.7200 20.8900 0.5778
62.7400 20.8967 0.5638
62.7600 20.9034 0.5556
62.7800 20.9101 0.5723
62.8000 20.9168 0.5633
62.8200 20.9235 0.5579
62.8400 20.9302 0.5746
62.8600 20.9368 0.5633
62.8800 20.9434 0.5617
62.9000 20.9501 0.5666
62.9200 20.9567 0.5677
62.9400 20.9635 0.5652
62.9600 20.9702 0.5657
62.9800 20.9769 0.5654
63.0000 20.9836 0.5622
63.0200 20.9903 0.5609
63.0400 20.9969 0.5732
63.0600 21.0035 0.5656
63.0800 21.0101 0.5639
63.1000 21.0168 0.5738
63.1200 21.0235 0.5614
63.1400 21.0302 0.5669
63.1600 21.0369 0.5730
63.1800 21.0436 0.5588
63.2000 21.0502 0.5667
63.2200 21.0569 0.5717
63.2400 21.0635 0.5631
63.2600 21.0701 0.5684
63.2800 21.0767 0.5748
63.3000 21.0834 0.5621
63.3200 21.0901 0.5659
63.3400 21.0968 0.5750
63.3600 21.1035 0.5617
63.3800 21.1102 0.5708
63.4000 21.1168 0.5712
63.4200 21.1234 0.5657
63.4400 21.1301 0.5668
63.4600 21.1367 0.5725
63.4800 21.1434 0.5687
63.5000 21.1501 0.5709
63.5200 21.1568 0.5687
63.5400 21.1635 0.5726
63.5600 21.1702 0.5645
63.5800 21.1768 0.5735
63.6000 21.1834 0.5749
63.6200 21.1901 0.5677
63.6400 21.1968 0.5738
63.6600 21.2035 0.5718
63.6800 21.2102 0.5639
63.7000 21.2169 0.5719
63.7200 21.2235 0.5738
63.7400 21.2302 0.5602
63.7600 21.2369 0.5749
63.7800 21.2435 0.5708
63.8000 21.2501 0.5684
63.8200 21.2568 0.5802
63.8400 21.2635 0.5676
63.8600 21.2702 0.5700
63.8800 21.2769 0.5813
63.9000 21.2836 0.5610
63.9200 21.2902 0.5725
63.9400 21.2969 0.5803
63.9600 21.3035 0.5653
63.9800 21.3101 0.5707
64.0000 21.3167 0.5834
64.0200 21.3234 0.5668
64.0400 21.3302 0.5729
64.0600 21.3368 0.5801
64.0800 21.3435 0.5672
64.1000 21.3502 0.5767
64.1200 21.3568 0.5788
64.1400 21.3634 0.5682
64.1600 21.3700 0.5782
64.1800 21.3767 0.5807
64.2000 21.3834 0.5689
64.2200 21.3902 0.5751
64.2400 21.3968 0.5797
64.2600 21.4035 0.5706
64.2800 21.4102 0.5752
64.3000 21.4169 0.5748
64.3200 21.4235 0.5658
64.3400 21.4301 0.5824
64.3600 21.4368 0.5747
64.3800 21.4435 0.5718
64.4000 21.4501 0.5809
64.4200 21.4568 0.5788
64.4400 21.4635 0.5654
64.4600 21.4702 0.5810
64.4800 21.4769 0.5741
64.5000 21.4835 0.5763
64.5200 21.4901 0.5771
64.5400 21.4967 0.5756
64.5600 21.5035 0.5799
64.5800 21.5102 0.5772
64.6000 21.5169 0.5726
64.6200 21.5236 0.5813
64.6400 21.5302 0.5767
64.6600 21.5369 0.5750
64.6800 21.5435 0.5818
64.7000 21.5501 0.5744
64.7200 21.5568 0.5792
64.7400 21.5635 0.5812
64.7600 21.5702 0.5716
64.7800 21.5768 0.5742
64.8000 21.5835 0.5860
64.8200 21.5902 0.5758
64.8400 21.5969 0.5805
64.8600 21.6035 0.5776
64.8800 21.6101 0.5749
64.9000 21.6167 0.5849
64.9200 21.6234 0.5820
64.9400 21.6301 0.5743
64.9600 21.6368 0.5881
64.9800 21.6435 0.5794
65.0000 21.6502 0.5706
65.0200 21.6569 0.5823
65.0400 21.6635 0.5816
65.0600 21.6701 0.5718
65.0800 21.6767 0.5846
65.1000 21.6834 0.5803
65.1200 21.6902 0.5782
65.1400 21.6969 0.5820
65.1600 21.7036 0.5811
65.1800 21.7103 0.5785
65.2000 21.7169 0.5850
65.2200 21.7235 0.5786
65.2400 21.7301 0.5741
65.2600 21.7368 0.5866
65.2800 21.7435 0.5818
65.3000 21.7502 0.5769
65.3200 21.7569 0.5869
65.3400 21.7635 0.5792
65.3600 21.7702 0.5792
65.3800 21.7769 0.5843
65.4000 21.7835 0.5818
65.4200 21.7901 0.5808
65.4400 21.7967 0.5854
65.4600 21.8034 0.5857
65.4800 21.8101 0.5709
65.5000 21.8168 0.5906
65.5200 21.8235 0.5830
65.5400 21.8302 0.5792
65.5600 21.8369 0.5901
65.5800 21.8435 0.5822
65.6000 21.8501 0.5819
65.6200 21.8567 0.5892
65.6400 21.8634 0.5851
65.6600 21.8701 0.5820
65.6800 21.8768 0.5897
65.7000 21.8835 0.5843
65.7200 21.8902 0.5799
65.7400 21.8968 0.5899
65.7600 21.9035 0.5813
65.7800 21.9101 0.5857
65.8000 21.9168 0.5879
65.8200 21.9235 0.5815
65.8400 21.9302 0.5850
65.8600 21.9369 0.5885
65.8800 21.9435 0.5842
65.9000 21.9502 0.5836
65.9200 21.9569 0.5875
65.9400 21.9635 0.5801
65.9600 21.9701 0.5854
65.9800 21.9768 0.5908
66.0000 21.9835 0.5846
66.0200 21.9902 0.5844
66.0400 21.9969 0.5896
66.0600 22.0036 0.5783
66.0800 22.0103 0.5904
66.1000 22.0169 0.5854
66.1200 22.0235 0.5823
66.1400 22.0301 0.5925
66.1600 22.0367 0.5902
66.1800 22.0434 0.5825
66.2000 22.0501 0.5892
66.2200 22.0568 0.5902
66.2400 22.0635 0.5846
66.2600 22.0702 0.5917
66.2800 22.0769 0.5848
66.3000 22.0835 0.5851
66.3200 22.0901 0.5962
66.3400 22.0967 0.5851
66.3600 22.1034 0.5816
66.3800 22.1101 0.5974
66.4000 22.1168 0.5852
66.4200 22.1235 0.5924
66.4400 22.1301 0.5981
66.4600 22.1368 0.5830
66.4800 22.1435 0.5856
66.5000 22.1501 0.5968
66.5200 22.1568 0.5767
66.5400 22.1635 0.5969
66.5600 22.1702 0.5956
66.5800 22.1768 0.5764
66.6000 22.1835 0.5964
66.6200 22.1902 0.5965
66.6400 22.1969 0.5809
66.6600 22.2035 0.5964
66.6800 22.2101 0.5936
66.7000 22.2167 0.5882
66.7200 22.2234 0.5953
66.7400 22.2302 0.5911
66.7600 22.2369 0.5851
66.7800 22.2436 0.5947
66.8000 22.2502 0.5887
66.8200 22.2569 0.5874
66.8400 22.2635 0.5995
66.8600 22.2701 0.5922
66.8800 22.2768 0.5888
66.9000 22.2835 0.5941
66.9200 22.2902 0.5968
66.9400 22.2968 0.5874
66.9600 22.3035 0.5979
66.9800 22.3102 0.5937
67.0000 22.3169 0.5835
67.0200 22.3235 0.5963
67.0400 22.3301 0.5938
67.0600 22.3367 0.5867
67.0800 22.3434 0.6031
67.1000 22.3501 0.5907
67.1200 22.3568 0.5924
67.1400 22.3635 0.5965
67.1600 22.3702 0.5963
67.1800 22.3768 0.5910
67.2000 22.3835 0.5936
67.2200 22.3901 0.5939
67.2400 22.3967 0.6013
67.2600 22.4034 0.5947
67.2800 22.4102 0.5848
67.3000 22.4169 0.6015
67.3200 22.4236 0.5964
67.3400 22.4302 0.5905
67.3600 22.4369 0.5996
67.3800 22.4436 0.5904
67.4000 22.4502 0.6022
67.4200 22.4568 0.5991
67.4400 22.4635 0.5817
67.4600 22.4702 0.6057
67.4800 22.4769 0.6091
67.5000 22.4836 0.5852
67.5200 22.4902 0.5904
67.5400 22.4969 0.6111
67.5600 22.5035 0.5958
67.5800 22.5101 0.5925
67.6000 22.5167 0.5939
67.6200 22.5234 0.6031
67.6400 22.5301 0.6027
67.6600 22.5368 0.5885
67.6800 22.5435 0.5950
67.7000 22.5502 0.6081
67.7200 22.5568 0.5988
67.7400 22.5635 0.5964
67.7600 22.5701 0.5960
67.7800 22.5767 0.6021
67.8000 22.5834 0.6081
67.8200 22.5901 0.5971
67.8400 22.5968 0.5904
67.8600 22.6035 0.6085
67.8800 22.6102 0.6009
67.9000 22.6169 0.5901
67.9200 22.6235 0.6069
67.9400 22.6302 0.6031
67.9600 22.6368 0.5958
67.9800 22.6435 0.6026
68.0000 22.6502 0.5968
68.0200 22.6569 0.6003
68.0400 22.6635 0.6125
68.0600 22.6702 0.5894
68.0800 22.6769 0.5989
68.1000 22.6836 0.6056
68.1200 22.6902 0.5967
68.1400 22.6968 0.6050
68.1600 22.7034 0.6107
68.1800 22.7101 0.5961
68.2000 22.7168 0.6019
68.2200 22.7235 0.6000
68.2400 22.7302 0.6018
68.2600 22.7369 0.6079
68.2800 22.7435 0.6006
68.3000 22.7501 0.6035
68.3200 22.7567 0.6022
68.3400 22.7634 0.5956
68.3600 22.7701 0.6135
68.3800 22.7768 0.6002
68.4000 22.7835 0.5931
68.4200 22.7902 0.6121
68.4400 22.7968 0.6022
68.4600 22.8035 0.5952
68.4800 22.8101 0.6140
68.5000 22.8167 0.6037
68.5200 22.8234 0.5932
68.5400 22.8301 0.6192
68.5600 22.8368 0.5964
68.5800 22.8435 0.5989
68.6000 22.8502 0.6194
68.6200 22.8569 0.5956
68.6400 22.8635 0.5939
68.6600 22.8702 0.6175
68.6800 22.8768 0.6039
68.7000 22.8834 0.6030
68.7200 22.8901 0.6134
68.7400 22.8969 0.5982
68.7600 22.9035 0.6050
68.7800 22.9102 0.6145
68.8000 22.9169 0.5972
68.8200 22.9235 0.6099
68.8400 22.9302 0.6056
68.8600 22.9368 0.6018
68.8800 22.9434 0.6105
68.9000 22.9501 0.6050
68.9200 22.9568 0.6061
68.9400 22.9635 0.6064
68.9600 22.9702 0.6105
68.9800 22.9769 0.6062
69.0000 22.9836 0.6087
69.0200 22.9902 0.6097
69.0400 22.9968 0.6089
69.0600 23.0034 0.6114
69.0800 23.0101 0.6124
69.1000 23.0168 0.6034
69.1200 23.0235 0.6078
69.1400 23.0302 0.6132
69.1600 23.0369 0.6095
69.1800 23.0435 0.6065
69.2000 23.0501 0.6117
69.2200 23.0567 0.6033
69.2400 23.0633 0.6087
69.2600 23.0701 0.6168
69.2800 23.0768 0.6066
69.3000 23.0835 0.6071
69.3200 23.0902 0.6151
69.3400 23.0968 0.6053
69.3600 23.1035 0.6108
69.3800 23.1101 0.6146
69.4000 23.1168 0.6060
69.4200 23.1234 0.6091
69.4400 23.1301 0.6136
69.4600 23.1368 0.6071
69.4800 23.1435 0.6116
69.5000 23.1502 0.6184
69.5200 23.1569 0.6049
69.5400 23.1636 0.6099
69.5600 23.1702 0.6121
69.5800 23.1768 0.6137
69.6000 23.1834 0.6113
69.6200 23.1901 0.6169
69.6400 23.1968 0.6084
69.6600 23.2035 0.6097
69.6800 23.2102 0.6163
69.7000 23.2169 0.6076
69.7200 23.2235 0.6134
69.7400 23.2301 0.6155
69.7600 23.2367 0.6086
69.7800 23.2434 0.6198
69.8000 23.2501 0.6121
69.8200 23.2568 0.6068
69.8400 23.2635 0.6132
69.8600 23.2702 0.6159
69.8800 23.2769 0.6111
69.9000 23.2835 0.6111
69.9200 23.2902 0.6157
69.9400 23.2968 0.6145
69.9600 23.3034 0.6114
69.9800 23.3101 0.6147
70.0000 23.3168 0.6144
70.0200 23.3235 0.6137
70.0400 23.3301 0.6219
70.0600 23.3368 0.6114
70.0800 23.3435 0.6141
70.1000 23.3502 0.6172
70.1200 23.3568 0.6180
70.1400 23.3634 0.6112
70.1600 23.3701 0.6213
70.1800 23.3768 0.6177
70.2000 23.3835 0.6145
70.2200 23.3902 0.6168
70.2400 23.3969 0.6143
70.2600 23.4036 0.6138
70.2800 23.4102 0.6210
70.3000 23.4168 0.6122
70.3200 23.4234 0.6182
70.3400 23.4301 0.6205
70.3600 23.4368 0.6153
70.3800 23.4435 0.6143
70.4000 23.4502 0.6195
70.4200 23.4569 0.6208
70.4400 23.4636 0.6123
70.4600 23.4702 0.6183
70.4800 23.4768 0.6222
70.5000 23.4834 0.6198
70.5200 23.4901 0.6158
70.5400 23.4968 0.6225
70.5600 23.5035 0.6172
70.5800 23.5102 0.6179
70.6000 23.5168 0.6230
70.6200 23.5235 0.6116
70.6400 23.5302 0.6182
70.6600 23.5368 0.6270
70.6800 23.5434 0.6116
70.7000 23.5501 0.6239
70.7200 23.5568 0.6186
70.7400 23.5635 0.6178
70.7600 23.5702 0.6241
70.7800 23.5769 0.6230
70.8000 23.5835 0.6201
70.8200 23.5902 0.6185
70.8400 23.5968 0.6200
70.8600 23.6034 0.6263
70.8800 23.6102 0.6239
70.9000 23.6169 0.6178
70.9200 23.6236 0.6193
70.9400 23.6302 0.6231
70.9600 23.6369 0.6214
70.9800 23.6436 0.6223
71.0000 23.6502 0.6212
71.0200 23.6568 0.6186
71.0400 23.6634 0.6270
71.0600 23.6701 0.6196
71.0800 23.6768 0.6242
71.1000 23.6835 0.6284
71.1200 23.6902 0.6240
71.1400 23.6969 0.6159
71.1600 23.7036 0.6250
71.1800 23.7102 0.6222
71.2000 23.7168 0.6235
71.2200 23.7234 0.6279
71.2400 23.7301 0.6223
71.2600 23.7368 0.6197
71.2800 23.7435 0.6293
71.3000 23.7502 0.6189
71.3200 23.7569 0.6307
71.3400 23.7636 0.6262
71.3600 23.7702 0.6186
71.3800 23.7768 0.6236
71.4000 23.7834 0.6272
71.4200 23.7901 0.6271
71.4400 23.7968 0.6254
71.4600 23.8035 0.6199
71.4800 23.8102 0.6218
71.5000 23.8168 0.6292
71.5200 23.8235 0.6245
71.5400 23.8302 0.6246
71.5600 23.8368 0.6300
71.5800 23.8434 0.6216
71.6000 23.8501 0.6243
71.6200 23.8568 0.6316
71.6400 23.8635 0.6232
71.6600 23.8702 0.6304
71.6800 23.8769 0.6272
71.7000 23.8836 0.6279
71.7200 23.8902 0.6208
71.7400 23.8968 0.6345
71.7600 23.9034 0.6311
71.7800 23.9101 0.6241
71.8000 23.9168 0.6357
71.8200 23.9235 0.6260
71.8400 23.9302 0.6224
71.8600 23.9369 0.6395
71.8800 23.9435 0.6287
71.9000 23.9502 0.6215
71.9200 23.9568 0.6362
71.9400 23.9634 0.6328
71.9600 23.9701 0.6226
71.9800 23.9768 0.6365
72.0000 23.9835 0.6298
72.0200 23.9901 0.6232
72.0400 23.9968 0.6367
72.0600 24.0035 0.6315
72.0800 24.0102 0.6238
72.1000 24.0168 0.6358
72.1200 24.0234 0.6311
72.1400 24.0301 0.6218
72.1600 24.0368 0.6411
72.1800 24.0435 0.6335
72.2000 24.0502 0.6193
72.2200 24.0569 0.6413
72.2400 24.0635 0.6345
72.2600 24.0702 0.6207
72.2800 24.0768 0.6423
72.3000 24.0834 0.6304
72.3200 24.0901 0.6289
72.3400 24.0968 0.6402
72.3600 24.1035 0.6300
72.3800 24.1102 0.6256
72.4000 24.1169 0.6438
72.4200 24.1236 0.6307
72.4400 24.1302 0.6221
72.4600 24.1368 0.6426
72.4800 24.1434 0.6351
72.5000 24.1501 0.6272
72.5200 24.1568 0.6377
72.5400 24.1635 0.6251
72.5600 24.1702 0.6361
72.5800 24.1769 0.6382
72.6000 24.1836 0.6259
72.6200 24.1902 0.6364
72.6400 24.1969 0.6334
72.6600 24.2035 0.6300
72.6800 24.2101 0.6351
72.7000 24.2168 0.6392
72.7200 24.2235 0.6303
72.7400 24.2302 0.6377
72.7600 24.2369 0.6325
72.7800 24.2436 0.6320
72.8000 24.2502 0.6376
72.8200 24.2568 0.6317
72.8400 24.2634 0.6350
72.8600 24.2701 0.6432
72.8800 24.2768 0.6284
72.9000 24.2835 0.6373
72.9200 24.2902 0.6407
72.9400 24.2968 0.6313
72.9600 24.3035 0.6381
72.9800 24.3101 0.6363
73.0000 24.3168 0.6299
73.0200 24.3234 0.6451
73.0400 24.3301 0.6355
73.0600 24.3368 0.6328
73.0800 24.3435 0.6467
73.1000 24.3502 0.6335
73.1200 24.3569 0.6354
73.1400 24.3636 0.6458
73.1600 24.3702 0.6328
73.1800 24.3768 0.6373
73.2000 24.3835 0.6434
73.2200 24.3901 0.6341
73.2400 24.3968 0.6429
73.2600 24.4035 0.6402
73.2800 24.4102 0.6377
73.3000 24.4169 0.6422
73.3200 24.4236 0.6423
73.3400 24.4302 0.6339
73.3600 24.4368 0.6457
73.3800 24.4434 0.6393
73.4000 24.4501 0.6379
73.4200 24.4568 0.6464
73.4400 24.4635 0.6412
73.4600 24.4702 0.6367
73.4800 24.4769 0.6436
73.5000 24.4835 0.6407
73.5200 24.4902 0.6418
73.5400 24.4968 0.6392
73.5600 24.5034 0.6422
73.5800 24.5101 0.6460
73.6000 24.5168 0.6416
73.6200 24.5235 0.6400
73.6400 24.5301 0.6465
73.6600 24.5368 0.6423
73.6800 24.5435 0.6406
73.7000 24.5502 0.6457
73.7200 24.5568 0.6402
73.7400 24.5635 0.6473
73.7600 24.5701 0.6458
73.7800 24.5768 0.6390
73.8000 24.5835 0.6478
73.8200 24.5902 0.6433
73.8400 24.5969 0.6378
73.8600 24.6036 0.6521
73.8800 24.6102 0.6391
73.9000 24.6168 0.6404
73.9200 24.6234 0.6504
73.9400 24.6301 0.6436
73.9600 24.6368 0.6398
73.9800 24.6435 0.6546
74.0000 24.6502 0.6411
74.0200 24.6569 0.6419
74.0400 24.6635 0.6525
74.0600 24.6702 0.6369
74.0800 24.6768 0.6420
74.1000 24.6834 0.6538
74.1200 24.6901 0.6403
74.1400 24.6968 0.6448
74.1600 24.7035 0.6512
74.1800 24.7102 0.6367
74.2000 24.7168 0.6476
74.2200 24.7235 0.6569
74.2400 24.7302 0.6416
74.2600 24.7368 0.6458
74.2800 24.7434 0.6553
74.3000 24.7500 0.6365
74.3200 24.7567 0.6515
74.3400 24.7635 0.6513
74.3600 24.7702 0.6409
74.3800 24.7769 0.6529
74.4000 24.7835 0.6545
74.4200 24.7902 0.6370
74.4400 24.7968 0.6536
74.4600 24.8034 0.6503
74.4800 24.8101 0.6426
74.5000 24.8168 0.6520
74.5200 24.8235 0.6494
74.5400 24.8302 0.6419
74.5600 24.8369 0.6529
74.5800 24.8435 0.6494
74.6000 24.8502 0.6486
74.6200 24.8569 0.6512
74.6400 24.8635 0.6481
74.6600 24.8701 0.6513
74.6800 24.8768 0.6516
74.7000 24.8835 0.6512
74.7200 24.8902 0.6534
74.7400 24.8969 0.6484
74.7600 24.9036 0.6539
74.7800 24.9102 0.6518
74.8000 24.9169 0.6441
74.8200 24.9234 0.6564
74.8400 24.9301 0.6543
74.8600 24.9368 0.6468
74.8800 24.9435 0.6558
74.9000 24.9502 0.6504
74.9200 24.9569 0.6454
74.9400 24.9635 0.6609
74.9600 24.9702 0.6489
74.9800 24.9768 0.6494
75.0000 24.9834 0.6619
75.0200 24.9900 0.6539
75.0400 24.9967 0.6476
75.0600 25.0035 0.6629
75.0800 25.0101 0.6507
75.1000 25.0168 0.6507
75.1200 25.0235 0.6610
75.1400 25.0302 0.6509
75.1600 25.0368 0.6494
75.1800 25.0434 0.6589
75.2000 25.0501 0.6512
75.2200 25.0568 0.6528
75.2400 25.0635 0.6583
75.2600 25.0702 0.6461
75.2800 25.0769 0.6531
75.3000 25.0836 0.6612
75.3200 25.0903 0.6494
75.3400 25.0969 0.6494
75.3600 25.1035 0.6606
75.3800 25.1101 0.6511
75.4000 25.1168 0.6540
75.4200 25.1235 0.6601
75.4400 25.1302 0.6537
75.4600 25.1369 0.6561
75.4800 25.1436 0.6618
75.5000 25.1502 0.6497
75.5200 25.1569 0.6590
75.5400 25.1635 0.6618
75.5600 25.1701 0.6545
75.5800 25.1768 0.6586
75.6000 25.1835 0.6652
75.6200 25.1902 0.6515
75.6400 25.1968 0.6553
75.6600 25.2035 0.6652
75.6800 25.2102 0.6503
75.7000 25.2168 0.6578
75.7200 25.2235 0.6647
75.7400 25.2301 0.6504
75.7600 25.2368 0.6618
75.7800 25.2435 0.6623
75.8000 25.2502 0.6501
75.8200 25.2568 0.6653
75.8400 25.2635 0.6609
75.8600 25.2702 0.6545
75.8800 25.2768 0.6630
75.9000 25.2834 0.6664
75.9200 25.2901 0.6560
75.9400 25.2968 0.6630
75.9600 25.3035 0.6614
75.9800 25.3102 0.6578
76.0000 25.3169 0.6631
76.0200 25.3236 0.6629
76.0400 25.3302 0.6580
76.0600 25.3369 0.6636
76.0800 25.3435 0.6571
76.1000 25.3501 0.6644
76.1200 25.3568 0.6652
76.1400 25.3635 0.6561
76.1600 25.3702 0.6615
76.1800 25.3769 0.6673
76.2000 25.3835 0.6564
76.2200 25.3902 0.6650
76.2400 25.3968 0.6628
76.2600 25.4035 0.6592
76.2800 25.4101 0.6662
76.3000 25.4168 0.6617
76.3200 25.4235 0.6642
76.3400 25.4302 0.6619
76.3600 25.4368 0.6632
76.3800 25.4435 0.6633
76.4000 25.4502 0.6687
76.4200 25.4568 0.6633
76.4400 25.4634 0.6675
76.4600 25.4700 0.6632
76.4800 25.4767 0.6688
76.5000 25.4834 0.6662
76.5200 25.4902 0.6663
76.5400 25.4968 0.6630
76.5600 25.5035 0.6692
76.5800 25.5102 0.6650
76.6000 25.5168 0.6674
76.6200 25.5235 0.6660
76.6400 25.5301 0.6668
76.6600 25.5368 0.6669
76.6800 25.5435 0.6682
76.7000 25.5502 0.6608
76.7200 25.5569 0.6712
76.7400 25.5635 0.6724
76.7600 25.5702 0.6618
76.7800 25.5769 0.6698
76.8000 25.5835 0.6701
76.8200 25.5901 0.6667
76.8400 25.5967 0.6721
76.8600 25.6034 0.6633
76.8800 25.6102 0.6703
76.9000 25.6169 0.6784
76.9200 25.6236 0.6589
76.9400 25.6302 0.6720
76.9600 25.6369 0.6713
76.9800 25.6435 0.6644
77.0000 25.6501 0.6739
77.0200 25.6567 0.6698
77.0400 25.6635 0.6614
77.0600 25.6702 0.6752
77.0800 25.6769 0.6709
77.1000 25.6835 0.6646
77.1200 25.6902 0.6771
77.1400 25.6969 0.6739
77.1600 25.7035 0.6592
77.1800 25.7101 0.6819
77.2000 25.7167 0.6710
77.2200 25.7234 0.6659
77.2400 25.7301 0.6787
77.2600 25.7368 0.6679
77.2800 25.7435 0.6655
77.3000 25.7502 0.6793
77.3200 25.7568 0.6698
77.3400 25.7635 0.6666
77.3600 25.7701 0.6817
77.3800 25.7767 0.6655
77.4000 25.7834 0.6703
77.4200 25.7902 0.6779
77.4400 25.7969 0.6677
77.4600 25.8036 0.6724
77.4800 25.8103 0.6777
77.5000 25.8169 0.6682
77.5200 25.8235 0.6729
77.5400 25.8301 0.6802
77.5600 25.8368 0.6717
77.5800 25.8435 0.6710
77.6000 25.8502 0.6776
77.6200 25.8569 0.6684
77.6400 25.8636 0.6771
77.6600 25.8702 0.6753
77.6800 25.8769 0.6716
77.7000 25.8835 0.6820
77.7200 25.8901 0.6717
77.7400 25.8968 0.6747
77.7600 25.9035 0.6771
77.7800 25.9101 0.6722
77.8000 25.9168 0.6769
77.8200 25.9235 0.6795
77.8400 25.9302 0.6755
77.8600 25.9368 0.6755
77.8800 25.9434 0.6745
77.9000 25.9501 0.6769
77.9200 25.9567 0.6824
77.9400 25.9634 0.6788
77.9600 25.9701 0.6736
77.9800 25.9768 0.6845
78.0000 25.9835 0.6736
78.0200 25.9902 0.6792
78.0400 25.9968 0.6829
78.0600 26.0035 0.6771
78.0800 26.0101 0.6795
78.1000 26.0168 0.6838
78.1200 26.0235 0.6745
78.1400 26.0302 0.6822
78.1600 26.0369 0.6832
78.1800 26.0436 0.6734
78.2000 26.0502 0.6808
78.2200 26.0569 0.6830
78.2400 26.0635 0.6711
78.2600 26.0701 0.6834
78.2800 26.0768 0.6853
78.3000 26.0835 0.6738
78.3200 26.0902 0.6801
78.3400 26.0969 0.6850
78.3600 26.1035 0.6749
78.3800 26.1102 0.6824
78.4000 26.1169 0.6830
78.4200 26.1235 0.6743
78.4400 26.1301 0.6873
78.4600 26.1367 0.6841
78.4800 26.1434 0.6768
78.5000 26.1502 0.6836
78.5200 26.1568 0.6835
78.5400 26.1635 0.6754
78.5600 26.1702 0.6875
78.5800 26.1769 0.6821
78.6000 26.1835 0.6795
78.6200 26.1901 0.6836
78.6400 26.1967 0.6878
78.6600 26.2034 0.6774
78.6800 26.2101 0.6851
78.7000 26.2168 0.6846
78.7200 26.2235 0.6813
78.7400 26.2302 0.6820
78.7600 26.2369 0.6888
78.7800 26.2435 0.6793
78.8000 26.2501 0.6868
78.8200 26.2568 0.6920
78.8400 26.2635 0.6777
78.8600 26.2702 0.6846
78.8800 26.2768 0.6946
78.9000 26.2835 0.6791
78.9200 26.2902 0.6855
78.9400 26.2969 0.6924
78.9600 26.3035 0.6735
78.9800 26.3101 0.6909
79.0000 26.3168 0.6925
79.0200 26.3235 0.6741
79.0400 26.3302 0.6936
79.0600 26.3369 0.6926
79.0800 26.3435 0.6750
79.1000 26.3502 0.6952
79.1200 26.3569 0.6890
79.1400 26.3635 0.6781
79.1600 26.3701 0.6949
79.1800 26.3768 0.6922
79.2000 26.3835 0.6784
79.2200 26.3902 0.6965
79.2400 26.3968 0.6866
79.2600 26.4035 0.6819
79.2800 26.4102 0.6953
79.3000 26.4169 0.6872
79.3200 26.4235 0.6807
79.3400 26.4301 0.6980
79.3600 26.4367 0.6891
79.3800 26.4434 0.6825
79.4000 26.4501 0.6986
79.4200 26.4568 0.6857
79.4400 26.4635 0.6861
79.4600 26.4702 0.6936
79.4800 26.4769 0.6857
79.5000 26.4835 0.6875
79.5200 26.4901 0.7005
79.5400 26.4967 0.6863
79.5600 26.5034 0.6892
79.5800 26.5102 0.6958
79.6000 26.5169 0.6888
79.6200 26.5236 0.6882
79.6400 26.5302 0.6976
79.6600 26.5369 0.6835
79.6800 26.5435 0.6894
79.7000 26.5501 0.6954
79.7200 26.5568 0.6897
79.7400 26.5635 0.6917
79.7600 26.5702 0.6941
79.7800 26.5769 0.6895
79.8000 26.5835 0.6934
79.8200 26.5902 0.6936
79.8400 26.5969 0.6937
79.8600 26.6035 0.6902
79.8800 26.6101 0.6957
79.9000 26.6167 0.6941
79.9200 26.6234 0.6941
79.9400 26.6301 0.6946
79.9600 26.6368 0.6951
79.9800 26.6435 0.6962
80.0000 26.6502 0.6914
80.0200 26.6569 0.6952
80.0400 26.6635 0.6934
80.0600 26.6701 0.6987
80.0800 26.6767 0.6968
80.1000 26.6834 0.6964
80.1200 26.6901 0.6962
80.1400 26.6968 0.6958
80.1600 26.7035 0.6887
80.1800 26.7102 0.7035
80.2000 26.7168 0.6984
80.2200 26.7235 0.6922
80.2400 26.7301 0.7019
80.2600 26.7367 0.6958
80.2800 26.7434 0.6916
80.3000 26.7502 0.7045
80.3200 26.7569 0.6935
80.3400 26.7635 0.6981
80.3600 26.7702 0.7035
80.3800 26.7769 0.6955
80.4000 26.7836 0.6957
80.4200 26.7902 0.7064
80.4400 26.7968 0.6962
80.4600 26.8034 0.7001
80.4800 26.8102 0.7039
80.5000 26.8169 0.6919
80.5200 26.8236 0.7050
80.5400 26.8303 0.7041
80.5600 26.8369 0.6887
80.5800 26.8435 0.7031
80.6000 26.8501 0.7047
80.6200 26.8567 0.6954
80.6400 26.8634 0.7086
80.6600 26.8701 0.6999
80.6800 26.8768 0.6942
80.7000 26.8835 0.7055
80.7200 26.8901 0.6994
80.7400 26.8968 0.7017
80.7600 26.9035 0.7085
80.7800 26.9101 0.6926
80.8000 26.9167 0.7041
80.8200 26.9234 0.7098
80.8400 26.9301 0.6958
80.8600 26.9368 0.7020
80.8800 26.9435 0.7093
80.9000 26.9501 0.6981
80.9200 26.9568 0.7033
80.9400 26.9635 0.7038
80.9600 26.9701 0.6992
80.9800 26.9768 0.7091
81.0000 26.9835 0.7035
81.0200 26.9901 0.7023
81.0400 26.9968 0.7089
81.0600 27.0035 0.7043
81.0800 27.0102 0.7020
81.1000 27.0169 0.7064
81.1200 27.0236 0.7006
81.1400 27.0301 0.7097
81.1600 27.0368 0.7050
81.1800 27.0434 0.7024
81.2000 27.0501 0.7085
81.2200 27.0569 0.7068
81.2400 27.0635 0.7030
81.2600 27.0702 0.7107
81.2800 27.0769 0.7029
81.3000 27.0835 0.7092
81.3200 27.0902 0.7087
81.3400 27.0968 0.7016
81.3600 27.1034 0.7095
81.3800 27.1101 0.7078
81.4000 27.1168 0.7069
81.4200 27.1235 0.7066
81.4400 27.1302 0.7074
81.4600 27.1369 0.7069
81.4800 27.1435 0.7101
81.5000 27.1502 0.7087
81.5200 27.1567 0.7097
81.5400 27.1634 0.7145
81.5600 27.1701 0.7111
81.5800 27.1768 0.7044
81.6000 27.1835 0.7115
81.6200 27.1902 0.7112
81.6400 27.1968 0.7104
81.6600 27.2035 0.7090
81.6800 27.2101 0.7114
81.7000 27.2167 0.7088
81.7200 27.2234 0.7171
81.7400 27.2301 0.7099
81.7600 27.2369 0.7082
81.7800 27.2436 0.7146
81.8000 27.2502 0.7104
81.8200 27.2569 0.7093
81.8400 27.2636 0.7120
81.8600 27.2702 0.7121
81.8800 27.2768 0.7135
81.9000 27.2835 0.7085
81.9200 27.2902 0.7109
81.9400 27.2969 0.7104
81.9600 27.3035 0.7165
81.9800 27.3102 0.7105
82.0000 27.3169 0.7142
82.0200 27.3235 0.7108
82.0400 27.3302 0.7121
82.0600 27.3368 0.7181
82.0800 27.3434 0.7111
82.1000 27.3501 0.7190
82.1200 27.3568 0.7107
82.1400 27.3635 0.7112
82.1600 27.3702 0.7159
82.1800 27.3768 0.7136
82.2000 27.3835 0.7145
82.2200 27.3901 0.7137
82.2400 27.3967 0.7131
82.2600 27.4034 0.7190
82.2800 27.4101 0.7119
82.3000 27.4169 0.7154
82.3200 27.4235 0.7220
82.3400 27.4302 0.7178
82.3600 27.4369 0.7111
82.3800 27.4435 0.7226
82.4000 27.4502 0.7160
82.4200 27.4568 0.7145
82.4400 27.4635 0.7228
82.4600 27.4701 0.7156
82.4800 27.4768 0.7110
82.5000 27.4835 0.7252
82.5200 27.4902 0.7189
82.5400 27.4969 0.7126
82.5600 27.5036 0.7213
82.5800 27.5102 0.7186
82.6000 27.5168 0.7143
82.6200 27.5234 0.7184
82.6400 27.5301 0.7228
82.6600 27.5369 0.7166
82.6800 27.5435 0.7223
82.7000 27.5502 0.7167
82.7200 27.5569 0.7243
82.7400 27.5635 0.7187
82.7600 27.5701 0.7184
82.7800 27.5767 0.7194
82.8000 27.5834 0.7227
82.8200 27.5901 0.7223
82.8400 27.5968 0.7176
82.8600 27.6035 0.7240
82.8800 27.6102 0.7223
82.9000 27.6168 0.7171
82.9200 27.6235 0.7226
82.9400 27.6301 0.7206
82.9600 27.6368 0.7186
82.9800 27.6434 0.7221
83.0000 27.6501 0.7261
83.0200 27.6568 0.7191
83.0400 27.6635 0.7209
83.0600 27.6702 0.7270
83.0800 27.6769 0.7156
83.1000 27.6835 0.7245
83.1200 27.6902 0.7313
83.1400 27.6968 0.7185
83.1600 27.7034 0.7237
83.1800 27.7101 0.7301
83.2000 27.7169 0.7130
83.2200 27.7236 0.7248
83.2400 27.7302 0.7311
83.2600 27.7369 0.7177
83.2800 27.7435 0.7250
83.3000 27.7502 0.7307
83.3200 27.7568 0.7182
83.3400 27.7634 0.7314
83.3600 27.7701 0.7286
83.3800 27.7768 0.7179
83.4000 27.7835 0.7293
83.4200 27.7902 0.7266
83.4400 27.7969 0.7192
83.4600 27.8036 0.7298
83.4800 27.8102 0.7255
83.5000 27.8168 0.7250
83.5200 27.8234 0.7333
83.5400 27.8301 0.7271
83.5600 27.8368 0.7241
83.5800 27.8435 0.7322
83.6000 27.8502 0.7244
83.6200 27.8569 0.7285
83.6400 27.8635 0.7332
83.6600 27.8701 0.7224
83.6800 27.8767 0.7288
83.7000 27.8833 0.7296
83.7200 27.8900 0.7265
83.7400 27.8968 0.7280
83.7600 27.9035 0.7280
83.7800 27.9102 0.7267
83.8000 27.9168 0.7318
83.8200 27.9235 0.7270
83.8400 27.9302 0.7304
83.8600 27.9368 0.7330
83.8800 27.9434 0.7281
83.9000 27.9501 0.7295
83.9200 27.9568 0.7343
83.9400 27.9635 0.7241
83.9600 27.9702 0.7333
83.9800 27.9769 0.7318
84.0000 27.9836 0.7260
84.0200 27.9902 0.7371
84.0400 27.9968 0.7314
84.0600 28.0035 0.7317
84.0800 28.0101 0.7347
84.1000 28.0168 0.7271
84.1200 28.0235 0.7342
84.1400 28.0302 0.7389
84.1600 28.0369 0.7294
84.1800 28.0435 0.7293
84.2000 28.0502 0.7435
84.2200 28.0568 0.7300
84.2400 28.0634 0.7331
84.2600 28.0701 0.7436
84.2800 28.0768 0.7249
84.3000 28.0835 0.7320
84.3200 28.0902 0.7395
84.3400 28.0968 0.7331
84.3600 28.1035 0.7336
84.3800 28.1102 0.7395
84.4000 28.1168 0.7324
84.4200 28.1234 0.7371
84.4400 28.1301 0.7364
84.4600 28.1368 0.7309
84.4800 28.1435 0.7406
84.5000 28.1502 0.7412
84.5200 28.1568 0.7321
84.5400 28.1635 0.7375
84.5600 28.1702 0.7383
84.5800 28.1768 0.7330
84.6000 28.1834 0.7420
84.6200 28.1901 0.7411
84.6400 28.1968 0.7357
84.6600 28.2035 0.7364
84.6800 28.2102 0.7380
84.7000 28.2169 0.7389
84.7200 28.2235 0.7382
84.7400 28.2302 0.7390
84.7600 28.2368 0.7436
84.7800 28.2434 0.7376
84.8000 28.2501 0.7413
84.8200 28.2569 0.7370
84.8400 28.2635 0.7382
84.8600 28.2702 0.7470
84.8800 28.2769 0.7404
84.9000 28.2836 0.7295
84.9200 28.2902 0.7435
84.9400 28.2968 0.7397
84.9600 28.3034 0.7404
84.9800 28.3101 0.7441
85.0000 28.3168 0.7432
85.0200 28.3235 0.7364
85.0400 28.3302 0.7459
85.0600 28.3368 0.7408
85.0800 28.3435 0.7390
85.1000 28.3502 0.7459
85.1200 28.3568 0.7421
85.1400 28.3634 0.7405
85.1600 28.3701 0.7472
85.1800 28.3768 0.7452
85.2000 28.3835 0.7381
85.2200 28.3902 0.7452
85.2400 28.3969 0.7449
85.2600 28.4035 0.7377
85.2800 28.4102 0.7442
85.3000 28.4168 0.7496
85.3200 28.4234 0.7393
85.3400 28.4301 0.7489
85.3600 28.4369 0.7467
85.3800 28.4436 0.7380
85.4000 28.4502 0.7462
85.4200 28.4569 0.7474
85.4400 28.4636 0.7363
85.4600 28.4702 0.7486
85.4800 28.4768 0.7478
85.5000 28.4834 0.7427
85.5200 28.4901 0.7492
85.5400 28.4968 0.7489
85.5600 28.5035 0.7375
85.5800 28.5102 0.7537
85.6000 28.5169 0.7485
85.6200 28.5236 0.7375
85.6400 28.5302 0.7507
85.6600 28.5368 0.7573
85.6800 28.5434 0.7347
85.7000 28.5501 0.7538
85.7200 28.5568 0.7542
85.7400 28.5635 0.7363
85.7600 28.5702 0.7549
85.7800 28.5769 0.7556
85.8000 28.5836 0.7360
85.8200 28.5902 0.7530
85.8400 28.5968 0.7538
85.8600 28.6034 0.7416
85.8800 28.6101 0.7567
85.9000 28.6168 0.7519
85.9200 28.6235 0.7426
85.9400 28.6302 0.7527
85.9600 28.6368 0.7538
85.9800 28.6435 0.7431
86.0000 28.6501 0.7538
86.0200 28.6568 0.7544
86.0400 28.6634 0.7478
86.0600 28.6701 0.7539
86.0800 28.6768 0.7540
86.1000 28.6835 0.7475
86.1200 28.6902 0.7559
86.1400 28.6969 0.7512
86.1600 28.7036 0.7472
86.1800 28.7102 0.7503
86.2000 28.7168 0.7562
86.2200 28.7234 0.7506
86.2400 28.7301 0.7555
86.2600 28.7368 0.7596
86.2800 28.7435 0.7433
86.3000 28.7502 0.7542
86.3200 28.7569 0.7565
86.3400 28.7635 0.7500
86.3600 28.7702 0.7553
86.3800 28.7768 0.7588
86.4000 28.7834 0.7462
86.4200 28.7901 0.7562
86.4400 28.7968 0.7640
86.4600 28.8035 0.7444
86.4800 28.8102 0.7563
86.5000 28.8168 0.7630
86.5200 28.8235 0.7448
86.5400 28.8302 0.7612
86.5600 28.8368 0.7608
86.5800 28.8434 0.7481
86.6000 28.8501 0.7595
86.6200 28.8568 0.7647
86.6400 28.8635 0.7485
86.6600 28.8702 0.7575
86.6800 28.8769 0.7652
86.7000 28.8836 0.7470
86.7200 28.8902 0.7610
86.7400 28.8968 0.7659
86.7600 28.9034 0.7476
86.7800 28.9101 0.7613
86.8000 28.9168 0.7646
86.8200 28.9235 0.7499
86.8400 28.9302 0.7622
86.8600 28.9369 0.7700
86.8800 28.9436 0.7464
86.9000 28.9502 0.7573
86.9200 28.9568 0.7734
86.9400 28.9634 0.7460
86.9600 28.9701 0.7681
86.9800 28.9768 0.7676
87.0000 28.9835 0.7484
87.0200 28.9902 0.7632
87.0400 28.9969 0.7672
87.0600 29.0035 0.7516
87.0800 29.0102 0.7665
87.1000 29.0168 0.7664
87.1200 29.0235 0.7532
87.1400 29.0301 0.7658
87.1600 29.0368 0.7719
87.1800 29.0435 0.7503
87.2000 29.0502 0.7661
87.2200 29.0568 0.7685
87.2400 29.0635 0.7550
87.2600 29.0702 0.7635
87.2800 29.0768 0.7689
87.3000 29.0834 0.7571
87.3200 29.0900 0.7639
87.3400 29.0967 0.7676
87.3600 29.1035 0.7559
87.3800 29.1102 0.7649
87.4000 29.1168 0.7727
87.4200 29.1235 0.7588
87.4400 29.1302 0.7642
87.4600 29.1368 0.7693
87.4800 29.1434 0.7618
87.5000 29.1501 0.7660
87.5200 29.1568 0.7684
87.5400 29.1635 0.7632
87.5600 29.1702 0.7682
87.5800 29.1768 0.7699
87.6000 29.1835 0.7610
87.6200 29.1902 0.7709
87.6400 29.1969 0.7691
87.6600 29.2035 0.7649
87.6800 29.2101 0.7666
87.7000 29.2168 0.7714
87.7200 29.2235 0.7686
87.7400 29.2302 0.7681
87.7600 29.2369 0.7711
87.7800 29.2436 0.7667
87.8000 29.2502 0.7615
87.8200 29.2568 0.7706
87.8400 29.2634 0.7727
87.8600 29.2701 0.7640
87.8800 29.2768 0.7761
87.9000 29.2835 0.7666
87.9200 29.2902 0.7637
87.9400 29.2969 0.7766
87.9600 29.3035 0.7689
87.9800 29.3102 0.7664
88.0000 29.3168 0.7755
88.0200 29.3234 0.7692
88.0400 29.3301 0.7678
88.0600 29.3368 0.7752
88.0800 29.3435 0.7740
88.1000 29.3501 0.7702
88.1200 29.3568 0.7785
88.1400 29.3635 0.7692
88.1600 29.3702 0.7699
88.1800 29.3768 0.7726
88.2000 29.3834 0.7743
88.2200 29.3901 0.7726
88.2400 29.3968 0.7763
88.2600 29.4035 0.7754
88.2800 29.4102 0.7712
88.3000 29.4169 0.7771
88.3200 29.4236 0.7691
88.3400 29.4302 0.7717
88.3600 29.4368 0.7780
88.3800 29.4434 0.7767
88.4000 29.4501 0.7719
88.4200 29.4568 0.7776
88.4400 29.4635 0.7751
88.4600 29.4702 0.7740
88.4800 29.4769 0.7787
88.5000 29.4835 0.7793
88.5200 29.4902 0.7689
88.5400 29.4968 0.7809
88.5600 29.5034 0.7784
88.5800 29.5101 0.7799
88.6000 29.5168 0.7818
88.6200 29.5235 0.7802
88.6400 29.5302 0.7751
88.6600 29.5368 0.7822
88.6800 29.5435 0.7791
88.7000 29.5502 0.7728
88.7200 29.5568 0.7798
88.7400 29.5634 0.7826
88.7600 29.5700 0.7742
88.7800 29.5767 0.7875
88.8000 29.5834 0.7809
88.8200 29.5902 0.7719
88.8400 29.5969 0.7845
88.8600 29.6036 0.7792
88.8800 29.6102 0.7741
88.9000 29.6168 0.7885
88.9200 29.6234 0.7801
88.9400 29.6301 0.7702
88.9600 29.6368 0.7913
88.9800 29.6435 0.7806
89.0000 29.6502 0.7749
89.0200 29.6569 0.7845
89.0400 29.6635 0.7821
89.0600 29.6702 0.7760
89.0800 29.6768 0.7857
89.1000 29.6835 0.7837
89.1200 29.6901 0.7852
89.1400 29.6968 0.7803
89.1600 29.7035 0.7846
89.1800 29.7102 0.7842
89.2000 29.7169 0.7856
89.2200 29.7236 0.7834
89.2400 29.7302 0.7818
89.2600 29.7369 0.7818
89.2800 29.7435 0.7926
89.3000 29.7501 0.7820
89.3200 29.7567 0.7845
89.3400 29.7635 0.7919
89.3600 29.7702 0.7795
89.3800 29.7769 0.7815
89.4000 29.7835 0.7900
89.4200 29.7902 0.7807
89.4400 29.7968 0.7867
89.4600 29.8034 0.7917
89.4800 29.8100 0.7818
89.5000 29.8167 0.7878
89.5200 29.8234 0.7918
89.5400 29.8301 0.7829
89.5600 29.8368 0.7902
89.5800 29.8435 0.7922
89.6000 29.8502 0.7772
89.6200 29.8568 0.7943
89.6400 29.8635 0.7901
89.6600 29.8701 0.7814
89.6800 29.8768 0.7958
89.7000 29.8835 0.7925
89.7200 29.8902 0.7779
89.7400 29.8969 0.7961
89.7600 29.9036 0.7917
89.7800 29.9102 0.7846
89.8000 29.9169 0.7951
89.8200 29.9235 0.7915
89.8400 29.9301 0.7913
89.8600 29.9368 0.7929
89.8800 29.9435 0.7873
89.9000 29.9502 0.7895
89.9200 29.9569 0.7916
89.9400 29.9635 0.7853
89.9600 29.9702 0.7959
89.9800 29.9769 0.7896
90.0000 29.9835 0.7893
90.0200 29.9901 0.7962
90.0400 29.9968 0.7922
90.0600 30.0035 0.7933
90.0800 30.0102 0.8022
90.1000 30.0168 0.7874
90.1200 30.0235 0.7963
90.1400 30.0302 0.7999
90.1600 30.0369 0.7891
90.1800 30.0435 0.7931
90.2000 30.0501 0.8030
90.2200 30.0568 0.7852
90.2400 30.0634 0.7977
90.2600 30.0701 0.8019
90.2800 30.0768 0.7875
90.3000 30.0835 0.8000
90.3200 30.0902 0.7976
90.3400 30.0968 0.7866
90.3600 30.1034 0.8026
90.3800 30.1101 0.8017
90.4000 30.1167 0.7891
90.4200 30.1235 0.8005
90.4400 30.1302 0.8014
90.4600 30.1369 0.7891
90.4800 30.1436 0.8056
90.5000 30.1502 0.8005
90.5200 30.1569 0.7877
90.5400 30.1635 0.8058
90.5600 30.1701 0.7989
90.5800 30.1768 0.7962
90.6000 30.1835 0.8016
90.6200 30.1902 0.8061
90.6400 30.1969 0.7897
90.6600 30.2035 0.8038
90.6800 30.2102 0.8077
90.7000 30.2168 0.7948
90.7200 30.2235 0.8008
90.7400 30.2301 0.8092
90.7600 30.2368 0.7901
90.7800 30.2434 0.8017
90.8000 30.2501 0.8099
90.8200 30.2568 0.7917
90.8400 30.2635 0.8026
90.8600 30.2702 0.8146
90.8800 30.2768 0.7874
90.9000 30.2835 0.8015
90.9200 30.2901 0.8153
90.9400 30.2967 0.7903
90.9600 30.3034 0.8080
90.9800 30.3102 0.8113
91.0000 30.3169 0.7882
91.0200 30.3235 0.8073
91.0400 30.3302 0.8152
91.0600 30.3368 0.7846
91.0800 30.3435 0.8123
91.1000 30.3501 0.8140
91.1200 30.3568 0.7865
91.1400 30.3635 0.8120
91.1600 30.3702 0.8155
91.1800 30.3769 0.7881
91.2000 30.3835 0.8155
91.2200 30.3902 0.8094
91.2400 30.3969 0.7889
91.2600 30.4035 0.8155
91.2800 30.4101 0.8138
91.3000 30.4167 0.7881
91.3200 30.4234 0.8172
91.3400 30.4302 0.8131
91.3600 30.4369 0.7912
91.3800 30.4436 0.8166
91.4000 30.4502 0.8098
91.4200 30.4569 0.7970
91.4400 30.4635 0.8181
91.4600 30.4701 0.8106
91.4800 30.4768 0.8005
91.5000 30.4835 0.8212
91.5200 30.4902 0.8101
91.5400 30.4969 0.7985
91.5600 30.5035 0.8154
91.5800 30.5102 0.8157
91.6000 30.5169 0.7996
91.6200 30.5235 0.8128
91.6400 30.5301 0.8135
91.6600 30.5367 0.8076
91.6800 30.5434 0.8112
91.7000 30.5501 0.8145
91.7200 30.5568 0.8043
91.7400 30.5635 0.8182
91.7600 30.5701 0.8107
91.7800 30.5768 0.8057
91.8000 30.5835 0.8171
91.8200 30.5901 0.8158
91.8400 30.5967 0.8065
91.8600 30.6034 0.8163
91.8800 30.6102 0.8176
91.9000 30.6169 0.8062
91.9200 30.6236 0.8196
91.9400 30.6303 0.8152
91.9600 30.6369 0.8040
91.9800 30.6435 0.8179
92.0000 30.6501 0.8193
92.0200 30.6568 0.8059
92.0400 30.6635 0.8212
92.0600 30.6702 0.8151
92.0800 30.6769 0.8078
92.1000 30.6836 0.8199
92.1200 30.6902 0.8173
92.1400 30.6969 0.8096
92.1600 30.7035 0.8231
92.1800 30.7101 0.8135
92.2000 30.7168 0.8110
92.2200 30.7235 0.8214
92.2400 30.7301 0.8159
92.2600 30.7368 0.8113
92.2800 30.7435 0.8252
92.3000 30.7502 0.8146
92.3200 30.7569 0.8162
92.3400 30.7635 0.8199
92.3600 30.7701 0.8168
92.3800 30.7767 0.8192
92.4000 30.7834 0.8206
92.4200 30.7901 0.8177
92.4400 30.7968 0.8188
92.4600 30.8035 0.8173
92.4800 30.8102 0.8209
92.5000 30.8169 0.8185
92.5200 30.8235 0.8197
92.5400 30.8301 0.8229
92.5600 30.8367 0.8214
92.5800 30.8435 0.8176
92.6000 30.8502 0.8244
92.6200 30.8569 0.8240
92.6400 30.8636 0.8132
92.6600 30.8702 0.8272
92.6800 30.8769 0.8236
92.7000 30.8835 0.8185
92.7200 30.8901 0.8261
92.7400 30.8968 0.8214
92.7600 30.9035 0.8194
92.7800 30.9102 0.8291
92.8000 30.9169 0.8224
92.8200 30.9235 0.8206
92.8400 30.9302 0.8282
92.8600 30.9369 0.8269
92.8800 30.9435 0.8153
92.9000 30.9501 0.8283
92.9200 30.9567 0.8293
92.9400 30.9634 0.8213
92.9600 30.9701 0.8292
92.9800 30.9768 0.8247
93.0000 30.9835 0.8208
93.0200 30.9902 0.8295
93.0400 30.9969 0.8260
93.0600 31.0035 0.8231
93.0800 31.0101 0.8340
93.1000 31.0167 0.8239
93.1200 31.0234 0.8242
93.1400 31.0301 0.8324
93.1600 31.0368 0.8266
93.1800 31.0435 0.8252
93.2000 31.0502 0.8305
93.2200 31.0568 0.8271
93.2400 31.0635 0.8291
93.2600 31.0701 0.8265
93.2800 31.0768 0.8318
93.3000 31.0834 0.8275
93.3200 31.0901 0.8319
93.3400 31.0968 0.8302
93.3600 31.1035 0.8298
93.3800 31.1102 0.8289
93.4000 31.1169 0.8325
93.4200 31.1235 0.8307
93.4400 31.1301 0.8294
93.4600 31.1368 0.8357
93.4800 31.1435 0.8296
93.5000 31.1502 0.8307
93.5200 31.1569 0.8343
93.5400 31.1636 0.8293
93.5600 31.1702 0.8330
93.5800 31.1769 0.8368
93.6000 31.1835 0.8273
93.6200 31.1901 0.8331
93.6400 31.1968 0.8375
93.6600 31.2035 0.8275
93.6800 31.2102 0.8361
93.7000 31.2169 0.8384
93.7200 31.2235 0.8255
93.7400 31.2302 0.8427
93.7600 31.2369 0.8365
93.7800 31.2435 0.8305
93.8000 31.2501 0.8410
93.8200 31.2567 0.8374
93.8400 31.2634 0.8319
93.8600 31.2701 0.8414
93.8800 31.2768 0.8375
93.9000 31.2835 0.8331
93.9200 31.2902 0.8346
93.9400 31.2969 0.8395
93.9600 31.3035 0.8369
93.9800 31.3101 0.8328
94.0000 31.3167 0.8416
94.0200 31.3234 0.8415
94.0400 31.3301 0.8323
94.0600 31.3369 0.8381
94.0800 31.3436 0.8429
94.1000 31.3503 0.8397
94.1200 31.3569 0.8402
94.1400 31.3635 0.8365
94.1600 31.3701 0.8354
94.1800 31.3768 0.8462
94.2000 31.3835 0.8381
94.2200 31.3902 0.8318
94.2400 31.3969 0.8490
94.2600 31.4035 0.8337
94.2800 31.4102 0.8405
94.3000 31.4169 0.8455
94.3200 31.4235 0.8359
94.3400 31.4301 0.8376
94.3600 31.4367 0.8502
94.3800 31.4434 0.8396
94.4000 31.4501 0.8386
94.4200 31.4568 0.8491
94.4400 31.4635 0.8411
94.4600 31.4702 0.8371
94.4800 31.4769 0.8534
94.5000 31.4835 0.8398
94.5200 31.4901 0.8399
94.5400 31.4967 0.8496
94.5600 31.5034 0.8423
94.5800 31.5101 0.8372
94.6000 31.5168 0.8507
94.6200 31.5235 0.8467
94.6400 31.5302 0.8369
94.6600 31.5368 0.8547
94.6800 31.5435 0.8441
94.7000 31.5501 0.8398
94.7200 31.5568 0.8566
94.7400 31.5634 0.8460
94.7600 31.5702 0.8400
94.7800 31.5769 0.8549
94.8000 31.5835 0.8445
94.8200 31.5902 0.8387
94.8400 31.5969 0.8544
94.8600 31.6036 0.8427
94.8800 31.6102 0.8394
94.9000 31.6168 0.8617
94.9200 31.6234 0.8455
94.9400 31.6301 0.8433
94.9600 31.6369 0.8542
94.9800 31.6436 0.8481
95.0000 31.6503 0.8480
95.0200 31.6569 0.8526
95.0400 31.6636 0.8526
95.0600 31.6701 0.8472
95.0800 31.6767 0.8541
95.1000 31.6834 0.8530
95.1200 31.6901 0.8458
95.1400 31.6968 0.8547
95.1600 31.7035 0.8540
95.1800 31.7102 0.8455
95.2000 31.7168 0.8545
95.2200 31.7235 0.8549
95.2400 31.7301 0.8458
95.2600 31.7367 0.8534
95.2800 31.7434 0.8606
95.3000 31.7501 0.8450
95.3200 31.7568 0.8621
95.3400 31.7635 0.8492
95.3600 31.7701 0.8454
95.3800 31.7768 0.8622
95.4000 31.7835 0.8540
95.4200 31.7902 0.8454
95.4400 31.7968 0.8649
95.4600 31.8034 0.8551
95.4800 31.8101 0.8493
95.5000 31.8168 0.8672
95.5200 31.8235 0.8583
95.5400 31.8302 0.8487
95.5600 31.8369 0.8651
95.5800 31.8436 0.8524
95.6000 31.8501 0.8532
95.6200 31.8567 0.8685
95.6400 31.8634 0.8524
95.6600 31.8701 0.8595
95.6800 31.8769 0.8624
95.7000 31.8836 0.8529
95.7200 31.8902 0.8596
95.7400 31.8969 0.8615
95.7600 31.9035 0.8549
95.7800 31.9101 0.8559
95.8000 31.9168 0.8625
95.8200 31.9234 0.8637
95.8400 31.9301 0.8576
95.8600 31.9368 0.8612
95.8800 31.9435 0.8586
95.9000 31.9502 0.8625
95.9200 31.9569 0.8597
95.9400 31.9635 0.8672
95.9600 31.9701 0.8598
95.9800 31.9767 0.8604
96.0000 31.9834 0.8674
96.0200 31.9901 0.8594
96.0400 31.9968 0.8610
96.0600 32.0035 0.8727
96.0800 32.0102 0.8560
96.1000 32.0168 0.8578
96.1200 32.0235 0.8723
96.1400 32.0301 0.8583
96.1600 32.0367 0.8660
96.1800 32.0434 0.8737
96.2000 32.0501 0.8539
96.2200 32.0568 0.8607
96.2400 32.0635 0.8738
96.2600 32.0702 0.8529
96.2800 32.0769 0.8687
96.3000 32.0836 0.8717
96.3200 32.0902 0.8549
96.3400 32.0968 0.8703
96.3600 32.1035 0.8769
96.3800 32.1102 0.8553
96.4000 32.1168 0.8727
96.4200 32.1235 0.8720
96.4400 32.1302 0.8552
96.4600 32.1369 0.8701
96.4800 32.1436 0.8770
96.5000 32.1502 0.8571
96.5200 32.1568 0.8698
96.5400 32.1634 0.8743
96.5600 32.1701 0.8652
96.5800 32.1768 0.8701
96.6000 32.1835 0.8791
96.6200 32.1902 0.8633
96.6400 32.1969 0.8671
96.6600 32.2035 0.8777
96.6800 32.2101 0.8636
96.7000 32.2167 0.8711
96.7200 32.2234 0.8801
96.7400 32.2301 0.8610
96.7600 32.2368 0.8667
96.7800 32.2435 0.8799
96.8000 32.2502 0.8654
96.8200 32.2568 0.8734
96.8400 32.2635 0.8792
96.8600 32.2702 0.8661
96.8800 32.2768 0.8721
96.9000 32.2835 0.8832
96.9200 32.2901 0.8683
96.9400 32.2968 0.8753
96.9600 32.3035 0.8772
96.9800 32.3102 0.8670
97.0000 32.3169 0.8741
97.0200 32.3236 0.8831
97.0400 32.3302 0.8710
97.0600 32.3368 0.8731
97.0800 32.3434 0.8804
97.1000 32.3501 0.8724
97.1200 32.3568 0.8744
97.1400 32.3635 0.8865
97.1600 32.3702 0.8729
97.1800 32.3769 0.8744
97.2000 32.3835 0.8845
97.2200 32.3901 0.8737
97.2400 32.3967 0.8742
97.2600 32.4034 0.8877
97.2800 32.4101 0.8757
97.3000 32.4168 0.8698
97.3200 32.4235 0.8896
97.3400 32.4302 0.8796
97.3600 32.4368 0.8742
97.3800 32.4435 0.8816
97.4000 32.4502 0.8789
97.4200 32.4568 0.8740
97.4400 32.4634 0.8884
97.4600 32.4701 0.8800
97.4800 32.4768 0.8790
97.5000 32.4835 0.8803
97.5200 32.4902 0.8811
97.5400 32.4969 0.8785
97.5600 32.5036 0.8848
97.5800 32.5102 0.8819
97.6000 32.5168 0.8768
97.6200 32.5234 0.8853
97.6400 32.5301 0.8878
97.6600 32.5368 0.8767
97.6800 32.5435 0.8881
97.7000 32.5502 0.8834
97.7200 32.5569 0.8772
97.7400 32.5635 0.8930
97.7600 32.5702 0.8842
97.7800 32.5768 0.8823
97.8000 32.5834 0.8922
97.8200 32.5901 0.8858
97.8400 32.5968 0.8796
97.8600 32.6035 0.8946
97.8800 32.6102 0.8844
97.9000 32.6169 0.8833
97.9200 32.6236 0.8931
97.9400 32.6302 0.8816
97.9600 32.6368 0.8828
97.9800 32.6434 0.8952
98.0000 32.6501 0.8814
98.0200 32.6568 0.8866
98.0400 32.6635 0.8909
98.0600 32.6702 0.8850
98.0800 32.6769 0.8872
98.1000 32.6835 0.8923
98.1200 32.6902 0.8898
98.1400 32.6967 0.8899
98.1600 32.7033 0.8911
98.1800 32.7100 0.8863
98.2000 32.7168 0.8901
98.2200 32.7235 0.8949
98.2400 32.7302 0.8865
98.2600 32.7368 0.8924
98.2800 32.7435 0.8928
98.3000 32.7502 0.8917
98.3200 32.7568 0.8915
98.3400 32.7634 0.8932
98.3600 32.7701 0.8972
98.3800 32.7768 0.8862
98.4000 32.7835 0.8947
98.4200 32.7902 0.8962
98.4400 32.7969 0.8932
98.4600 32.8036 0.8940
98.4800 32.8102 0.8953
98.5000 32.8168 0.8934
98.5200 32.8235 0.8936
98.5400 32.8301 0.9022
98.5600 32.8368 0.8923
98.5800 32.8435 0.8898
98.6000 32.8502 0.9078
98.6200 32.8569 0.8920
98.6400 32.8636 0.8910
98.6600 32.8702 0.9034
98.6800 32.8768 0.8919
98.7000 32.8834 0.8947
98.7200 32.8901 0.9071
98.7400 32.8968 0.8934
98.7600 32.9035 0.8956
98.7800 32.9102 0.9107
98.8000 32.9168 0.8885
98.8200 32.9235 0.8946
98.8400 32.9302 0.9085
98.8600 32.9368 0.8962
98.8800 32.9434 0.8949
98.9000 32.9501 0.9094
98.9200 32.9568 0.8903
98.9400 32.9635 0.8983
98.9600 32.9701 0.9117
98.9800 32.9768 0.8944
99.0000 32.9835 0.8985
99.0200 32.9902 0.9133
99.0400 32.9968 0.8867
99.0600 33.0034 0.9076
99.0800 33.0101 0.9138
99.1000 33.0168 0.8922
99.1200 33.0235 0.9043
99.1400 33.0302 0.9120
99.1600 33.0369 0.8937
99.1800 33.0436 0.9074
99.2000 33.0502 0.9100
99.2200 33.0568 0.8970
99.2400 33.0634 0.9100
99.2600 33.0701 0.9082
99.2800 33.0768 0.8979
99.3000 33.0835 0.9087
99.3200 33.0902 0.9095
99.3400 33.0969 0.8969
99.3600 33.1036 0.9075
99.3800 33.1102 0.9052
99.4000 33.1168 0.8994
99.4200 33.1234 0.9105
99.4400 33.1301 0.9101
99.4600 33.1368 0.8967
99.4800 33.1435 0.9106
99.5000 33.1502 0.9145
99.5200 33.1568 0.9010
99.5400 33.1635 0.9070
99.5600 33.1702 0.9189
99.5800 33.1768 0.8956
99.6000 33.1834 0.9115
99.6200 33.1900 0.9201
99.6400 33.1968 0.9004
99.6600 33.2035 0.9118
99.6800 33.2102 0.9159
99.7000 33.2169 0.8999
99.7200 33.2236 0.9141
99.7400 33.2302 0.9185
99.7600 33.2368 0.9023
99.7800 33.2434 0.9179
99.8000 33.2501 0.9176
99.8200 33.2568 0.9015
99.8400 33.2635 0.9158
99.8600 33.2702 0.9175
99.8800 33.2769 0.9021
99.9000 33.2836 0.9189
99.9200 33.2902 0.9199
99.9400 33.2968 0.9076
99.9600 33.3034 0.9139
99.9800 33.3101 0.9202
100.0000 33.3168 0.9103
100.0200 33.3235 0.9156
100.0400 33.3302 0.9174
100.0600 33.3369 0.9136
100.0800 33.3436 0.9152
100.1000 33.3502 0.9161
100.1200 33.3568 0.9142
100.1400 33.3634 0.9177
100.1600 33.3701 0.9162
100.1800 33.3768 0.9226
100.2000 33.3835 0.9121
100.2200 33.3902 0.9206
100.2400 33.3969 0.9225
100.2600 33.4035 0.9124
100.2800 33.4102 0.9248
100.3000 33.4168 0.9204
100.3200 33.4234 0.9154
100.3400 33.4300 0.9248
100.3600 33.4368 0.9203
100.3800 33.4435 0.9129
100.4000 33.4502 0.9260
100.4200 33.4568 0.9231
100.4400 33.4635 0.9165
100.4600 33.4702 0.9235
100.4800 33.4768 0.9260
100.5000 33.4834 0.9115
100.5200 33.4901 0.9293
100.5400 33.4968 0.9216
100.5600 33.5035 0.9165
100.5800 33.5102 0.9299
100.6000 33.5169 0.9271
100.6200 33.5236 0.9141
100.6400 33.5302 0.9279
100.6600 33.5368 0.9232
100.6800 33.5434 0.9188
100.7000 33.5501 0.9280
100.7200 33.5568 0.9276
100.7400 33.5635 0.9209
100.7600 33.5702 0.9300
100.7800 33.5769 0.9239
100.8000 33.5836 0.9262
100.8200 33.5902 0.9270
100.8400 33.5968 0.9249
100.8600 33.6034 0.9281
100.8800 33.6101 0.9243
100.9000 33.6168 0.9255
100.9200 33.6235 0.9253
100.9400 33.6301 0.9290
100.9600 33.6368 0.9306
100.9800 33.6435 0.9320
101.0000 33.6502 0.9241
101.0200 33.6568 0.9317
101.0400 33.6634 0.9276
101.0600 33.6701 0.9286
101.0800 33.6768 0.9347
101.1000 33.6835 0.9282
101.1200 33.6902 0.9235
101.1400 33.6969 0.9370
101.1600 33.7036 0.9284
101.1800 33.7102 0.9276
101.2000 33.7169 0.9348
101.2200 33.7235 0.9344
101.2400 33.7301 0.9262
101.2600 33.7368 0.9365
101.2800 33.7435 0.9353
101.3000 33.7502 0.9294
101.3200 33.7569 0.9357
101.3400 33.7636 0.9331
101.3600 33.7702 0.9305
101.3800 33.7768 0.9384
101.4000 33.7834 0.9370
101.4200 33.7901 0.9306
101.4400 33.7968 0.9421
101.4600 33.8035 0.9357
101.4800 33.8102 0.9249
101.5000 33.8169 0.9460
101.5200 33.8235 0.9402
101.5400 33.8302 0.9262
101.5600 33.8369 0.9424
101.5800 33.8435 0.9358
101.6000 33.8501 0.9324
101.6200 33.8568 0.9425
101.6400 33.8635 0.9400
101.6600 33.8702 0.9312
101.6800 33.8768 0.9446
101.7000 33.8835 0.9371
101.7200 33.8902 0.9330
101.7400 33.8968 0.9433
101.7600 33.9034 0.9414
101.7800 33.9100 0.9374
101.8000 33.9167 0.9452
101.8200 33.9235 0.9446
101.8400 33.9302 0.9376
101.8600 33.9368 0.9437
101.8800 33.9435 0.9450
101.9000 33.9502 0.9370
101.9200 33.9568 0.9427
101.9400 33.9634 0.9483
101.9600 33.9701 0.9390
101.9800 33.9768 0.9446
102.0000 33.9835 0.9485
102.0200 33.9902 0.9403
102.0400 33.9969 0.9425
102.0600 34.0036 0.9557
102.0800 34.0102 0.9322
102.1000 34.0169 0.9431
102.1200 34.0235 0.9542
102.1400 34.0301 0.9354
102.1600 34.0368 0.9507
102.1800 34.0435 0.9571
102.2000 34.0502 0.9346
102.2200 34.0569 0.9492
102.2400 34.0636 0.9549
102.2600 34.0702 0.9373
102.2800 34.0769 0.9490
102.3000 34.0834 0.9586
102.3200 34.0901 0.9391
102.3400 34.0968 0.9520
102.3600 34.1035 0.9562
102.3800 34.1102 0.9401
102.4000 34.1169 0.9532
102.4200 34.1235 0.9543
102.4400 34.1302 0.9417
102.4600 34.1368 0.9587
102.4800 34.1434 0.9545
102.5000 34.1500 0.9417
102.5200 34.1567 0.9604
102.5400 34.1635 0.9515
102.5600 34.1701 0.9467
102.5800 34.1768 0.9576
102.6000 34.1835 0.9519
102.6200 34.1902 0.9475
102.6400 34.1968 0.9586
102.6600 34.2034 0.9551
102.6800 34.2101 0.9506
102.7000 34.2168 0.9566
102.7200 34.2235 0.9601
102.7400 34.2302 0.9474
102.7600 34.2369 0.9602
102.7800 34.2436 0.9608
102.8000 34.2503 0.9467
102.8200 34.2569 0.9566
102.8400 34.2635 0.9629
102.8600 34.2701 0.9490
102.8800 34.2768 0.9621
102.9000 34.2835 0.9622
102.9200 34.2902 0.9469
102.9400 34.2969 0.9630
102.9600 34.3035 0.9640
102.9800 34.3102 0.9493
103.0000 34.3168 0.9615
103.0200 34.3235 0.9722
103.0400 34.3301 0.9439
103.0600 34.3368 0.9630
103.0800 34.3435 0.9706
103.1000 34.3502 0.9457
103.1200 34.3568 0.9634
103.1400 34.3635 0.9691
103.1600 34.3702 0.9441
103.1800 34.3768 0.9707
103.2000 34.3834 0.9690
103.2200 34.3900 0.9461
103.2400 34.3967 0.9727
103.2600 34.4034 0.9698
103.2800 34.4102 0.9468
103.3000 34.4169 0.9719
103.3200 34.4235 0.9697
103.3400 34.4302 0.9501
103.3600 34.4368 0.9709
103.3800 34.4434 0.9684
103.4000 34.4501 0.9538
103.4200 34.4568 0.9742
103.4400 34.4635 0.9688
103.4600 34.4702 0.9540
103.4800 34.4769 0.9751
103.5000 34.4835 0.9655
103.5200 34.4902 0.9594
103.5400 34.4969 0.9705
103.5600 34.5035 0.9695
103.5800 34.5101 0.9652
103.6000 34.5168 0.9701
103.6200 34.5235 0.9672
103.6400 34.5302 0.9613
103.6600 34.5369 0.9739
103.6800 34.5436 0.9731
103.7000 34.5502 0.9609
103.7200 34.5569 0.9754
103.7400 34.5635 0.9700
103.7600 34.5701 0.9645
103.7800 34.5768 0.9735
103.8000 34.5835 0.9780
103.8200 34.5902 0.9626
103.8400 34.5968 0.9715
103.8600 34.6035 0.9791
103.8800 34.6102 0.9636
103.9000 34.6168 0.9710
103.9200 34.6234 0.9774
103.9400 34.6300 0.9699
103.9600 34.6367 0.9761
103.9800 34.6434 0.9752
104.0000 34.6501 0.9641
104.0200 34.6568 0.9804
104.0400 34.6635 0.9760
104.0600 34.6702 0.9667
104.0800 34.6768 0.9767
104.1000 34.6835 0.9778
104.1200 34.6901 0.9738
104.1400 34.6968 0.9814
104.1600 34.7035 0.9764
104.1800 34.7102 0.9800
104.2000 34.7169 0.9753
104.2200 34.7236 0.9806
104.2400 34.7303 0.9775
104.2600 34.7369 0.9739
104.2800 34.7435 0.9798
104.3000 34.7501 0.9865
104.3200 34.7568 0.9720
104.3400 34.7635 0.9805
104.3600 34.7702 0.9831
104.3800 34.7769 0.9710
104.4000 34.7836 0.9848
104.4200 34.7902 0.9848
104.4400 34.7969 0.9724
104.4600 34.8035 0.9860
104.4800 34.8101 0.9887
104.5000 34.8167 0.9728
104.5200 34.8234 0.9912
104.5400 34.8301 0.9858
104.5600 34.8368 0.9727
104.5800 34.8435 0.9922
104.6000 34.8502 0.9903
104.6200 34.8569 0.9717
104.6400 34.8635 0.9911
104.6600 34.8701 0.9900
104.6800 34.8767 0.9805
104.7000 34.8834 0.9884
104.7200 34.8901 0.9865
104.7400 34.8968 0.9806
104.7600 34.9035 0.9974
104.7800 34.9102 0.9826
104.8000 34.9168 0.9819
104.8200 34.9235 0.9956
104.8400 34.9301 0.9889
104.8600 34.9367 0.9818
104.8800 34.9435 0.9926
104.9000 34.9502 0.9927
104.9200 34.9569 0.9847
104.9400 34.9636 0.9902
104.9600 34.9702 0.9897
104.9800 34.9769 0.9854
105.0000 34.9835 0.9901
105.0200 34.9901 0.9910
105.0400 34.9968 0.9908
105.0600 35.0035 0.9932
105.0800 35.0102 0.9898
105.1000 35.0169 0.9920
105.1200 35.0236 0.9943
105.1400 35.0302 0.9951
105.1600 35.0369 0.9870
105.1800 35.0435 0.9960
105.2000 35.0501 0.9938
105.2200 35.0567 0.9918
105.2400 35.0634 0.9926
105.2600 35.0701 0.9947
105.2800 35.0768 0.9953
105.3000 35.0835 0.9983
105.3200 35.0902 0.9914
105.3400 35.0969 0.9944
105.3600 35.1035 0.9990
105.3800 35.1101 1.0000
105.4000 35.1167 0.9950
105.4200 35.1234 0.9986
105.4400 35.1301 0.9980
105.4600 35.1368 0.9948
105.4800 35.1435 0.9977
105.5000 35.1502 1.0017
105.5200 35.1569 0.9973
105.5400 35.1635 0.9941
105.5600 35.1701 1.0042
105.5800 35.1768 0.9994
105.6000 35.1835 0.9961
105.6200 35.1902 1.0052
105.6400 35.1969 1.0006
105.6600 35.2035 0.9959
105.6800 35.2102 1.0105
105.7000 35.2169 0.9996
105.7200 35.2235 0.9982
105.7400 35.2301 1.0053
105.7600 35.2367 1.0047
105.7800 35.2434 0.9979
105.8000 35.2502 1.0126
105.8200 35.2569 1.0031
105.8400 35.2635 0.9964
105.8600 35.2702 1.0121
105.8800 35.2769 1.0084
105.9000 35.2835 0.9967
105.9200 35.2901 1.0143
105.9400 35.2968 1.0076
105.9600 35.3035 0.9992
105.9800 35.3102 1.0149
106.0000 35.3169 1.0033
106.0200 35.3235 1.0015
106.0400 35.3302 1.0224
106.0600 35.3369 1.0025
106.0800 35.3435 0.9966
106.1000 35.3501 1.0208
106.1200 35.3567 1.0081
106.1400 35.3634 0.9990
106.1600 35.3701 1.0166
106.1800 35.3768 1.0116
106.2000 35.3835 1.0050
106.2200 35.3901 1.0206
106.2400 35.3968 1.0085
106.2600 35.4035 1.0087
106.2800 35.4101 1.0179
106.3000 35.4167 1.0059
106.3200 35.4234 1.0062
106.3400 35.4302 1.0208
106.3600 35.4369 1.0076
106.3800 35.4436 1.0045
106.4000 35.4503 1.0207
106.4200 35.4569 1.0146
106.4400 35.4635 1.0045
106.4600 35.4701 1.0234
106.4800 35.4768 1.0184
106.5000 35.4835 1.0042
106.5200 35.4902 1.0238
106.5400 35.4969 1.0169
106.5600 35.5036 1.0102
106.5800 35.5102 1.0264
106.6000 35.5169 1.0157
106.6200 35.5235 1.0087
106.6400 35.5301 1.0284
106.6600 35.5368 1.0173
106.6800 35.5434 1.0113
106.7000 35.5501 1.0261
106.7200 35.5568 1.0157
106.7400 35.5635 1.0113
106.7600 35.5702 1.0313
106.7800 35.5769 1.0152
106.8000 35.5835 1.0122
106.8200 35.5901 1.0331
106.8400 35.5967 1.0210
106.8600 35.6034 1.0093
106.8800 35.6101 1.0316
106.9000 35.6168 1.0164
106.9200 35.6235 1.0182
106.9400 35.6302 1.0312
106.9600 35.6369 1.0167
106.9800 35.6435 1.0154
107.0000 35.6501 1.0334
107.0200 35.6567 1.0188
107.0400 35.6634 1.0237
107.0600 35.6702 1.0352
107.0800 35.6769 1.0176
107.1000 35.6836 1.0242
107.1200 35.6902 1.0321
107.1400 35.6969 1.0194
107.1600 35.7035 1.0227
107.1800 35.7101 1.0311
107.2000 35.7168 1.0234
107.2200 35.7235 1.0308
107.2400 35.7302 1.0266
107.2600 35.7369 1.0265
107.2800 35.7436 1.0283
107.3000 35.7502 1.0319
107.3200 35.7569 1.0268
107.3400 35.7635 1.0286
107.3600 35.7701 1.0347
107.3800 35.7767 1.0356
107.4000 35.7834 1.0276
107.4200 35.7901 1.0338
107.4400 35.7968 1.0330
107.4600 35.8035 1.0222
107.4800 35.8102 1.0409
107.5000 35.8169 1.0356
107.5200 35.8235 1.0189
107.5400 35.8301 1.0421
107.5600 35.8367 1.0381
107.5800 35.8434 1.0228
107.6000 35.8501 1.0432
107.6200 35.8568 1.0330
107.6400 35.8635 1.0230
107.6600 35.8702 1.0487
107.6800 35.8769 1.0359
107.7000 35.8835 1.0219
107.7200 35.8901 1.0450
107.7400 35.8968 1.0389
107.7600 35.9034 1.0286
107.7800 35.9101 1.0427
107.8000 35.9168 1.0418
107.8200 35.9235 1.0273
107.8400 35.9302 1.0488
107.8600 35.9369 1.0375
107.8800 35.9436 1.0290
107.9000 35.9502 1.0494
107.9200 35.9568 1.0419
107.9400 35.9634 1.0290
107.9600 35.9701 1.0453
107.9800 35.9769 1.0453
108.0000 35.9835 1.0336
108.0200 35.9902 1.0441
108.0400 35.9969 1.0440
108.0600 36.0035 1.0358
108.0800 36.0101 1.0499
108.1000 36.0168 1.0405
108.1200 36.0234 1.0370
108.1400 36.0302 1.0494
108.1600 36.0369 1.0435
108.1800 36.0435 1.0373
108.2000 36.0502 1.0523
108.2200 36.0569 1.0505
108.2400 36.0635 1.0334
108.2600 36.0701 1.0509
108.2800 36.0767 1.0519
108.3000 36.0834 1.0407
108.3200 36.0901 1.0480
108.3400 36.0968 1.0518
108.3600 36.1035 1.0414
108.3800 36.1102 1.0507
108.4000 36.1169 1.0514
108.4200 36.1235 1.0413
108.4400 36.1301 1.0502
108.4600 36.1367 1.0552
108.4800 36.1434 1.0383
108.5000 36.1501 1.0566
108.5200 36.1569 1.0518
108.5400 36.1636 1.0421
108.5600 36.1702 1.0523
108.5800 36.1769 1.0521
108.6000 36.1835 1.0472
108.6200 36.1901 1.0547
108.6400 36.1968 1.0551
108.6600 36.2034 1.0505
108.6800 36.2102 1.0561
108.7000 36.2169 1.0520
108.7200 36.2235 1.0543
108.7400 36.2302 1.0595
108.7600 36.2369 1.0514
108.7800 36.2435 1.0545
108.8000 36.2501 1.0572
108.8200 36.2567 1.0536
108.8400 36.2634 1.0609
108.8600 36.2701 1.0560
108.8800 36.2768 1.0555
108.9000 36.2835 1.0557
108.9200 36.2902 1.0560
108.9400 36.2969 1.0539
108.9600 36.3035 1.0603
108.9800 36.3101 1.0552
109.0000 36.3167 1.0622
109.0200 36.3234 1.0623
109.0400 36.3301 1.0579
109.0600 36.3368 1.0583
109.0800 36.3435 1.0632
109.1000 36.3502 1.0575
109.1200 36.3568 1.0629
109.1400 36.3635 1.0613
109.1600 36.3701 1.0594
109.1800 36.3767 1.0635
109.2000 36.3834 1.0640
109.2200 36.3901 1.0588
109.2400 36.3969 1.0611
109.2600 36.4035 1.0755
109.2800 36.4102 1.0607
109.3000 36.4169 1.0627
109.3200 36.4236 1.0685
109.3400 36.4302 1.0620
109.3600 36.4368 1.0681
109.3800 36.4434 1.0699
109.4000 36.4501 1.0628
109.4200 36.4569 1.0693
109.4400 36.4636 1.0683
109.4600 36.4702 1.0603
109.4800 36.4769 1.0718
109.5000 36.4836 1.0749
109.5200 36.4902 1.0550
109.5400 36.4967 1.0763
109.5600 36.5034 1.0760
109.5800 36.5101 1.0589
109.6000 36.5168 1.0763
109.6200 36.5235 1.0749
109.6400 36.5302 1.0595
109.6600 36.5368 1.0771
109.6800 36.5435 1.0741
109.7000 36.5501 1.0616
109.7200 36.5567 1.0812
109.7400 36.5634 1.0767
109.7600 36.5701 1.0616
109.7800 36.5768 1.0757
109.8000 36.5835 1.0801
109.8200 36.5901 1.0655
109.8400 36.5968 1.0772
109.8600 36.6035 1.0805
109.8800 36.6101 1.0706
109.9000 36.6168 1.0723
109.9200 36.6234 1.0844
109.9400 36.6301 1.0684
109.9600 36.6368 1.0752
109.9800 36.6435 1.0847
110.0000 36.6502 1.0651
110.0200 36.6569 1.0762
110.0400 36.6636 1.0887
110.0600 36.6702 1.0654
110.0800 36.6768 1.0815
110.1000 36.6834 1.0882
110.1200 36.6901 1.0672
110.1400 36.6968 1.0806
110.1600 36.7035 1.0894
110.1800 36.7102 1.0669
110.2000 36.7169 1.0833
110.2200 36.7236 1.0906
110.2400 36.7302 1.0657
110.2600 36.7368 1.0880
110.2800 36.7434 1.0941
110.3000 36.7501 1.0721
110.3200 36.7568 1.0824
110.3400 36.7635 1.0943
110.3600 36.7702 1.0721
110.3800 36.7769 1.0884
110.4000 36.7835 1.0893
110.4200 36.7902 1.0758
110.4400 36.7967 1.0917
110.4600 36.8034 1.0896
110.4800 36.8101 1.0767
110.5000 36.8168 1.0913
110.5200 36.8235 1.0855
110.5400 36.8301 1.0843
110.5600 36.8368 1.0883
110.5800 36.8435 1.0865
110.6000 36.8501 1.0830
110.6200 36.8567 1.0911
110.6400 36.8634 1.0916
110.6600 36.8701 1.0849
110.6800 36.8768 1.0933
110.7000 36.8835 1.0946
110.7200 36.8902 1.0853
110.7400 36.8969 1.0899
110.7600 36.9036 1.0923
110.7800 36.9102 1.0855
110.8000 36.9168 1.0942
110.8200 36.9235 1.0962
110.8400 36.9302 1.0917
110.8600 36.9369 1.0899
110.8800 36.9435 1.0990
110.9000 36.9502 1.0931
110.9200 36.9569 1.0894
110.9400 36.9636 1.0970
110.9600 36.9702 1.0915
110.9800 36.9768 1.0916
111.0000 36.9834 1.1104
111.0200 36.9901 1.0927
111.0400 36.9968 1.0934
111.0600 37.0035 1.1035
111.0800 37.0102 1.0938
111.1000 37.0168 1.0938
111.1200 37.0235 1.1065
111.1400 37.0301 1.0932
111.1600 37.0367 1.0947
111.1800 37.0434 1.1085
111.2000 37.0501 1.0941
111.2200 37.0568 1.0972
111.2400 37.0635 1.1081
111.2600 37.0702 1.0956
111.2800 37.0769 1.1002
111.3000 37.0835 1.1100
111.3200 37.0902 1.0933
111.3400 37.0968 1.1062
111.3600 37.1035 1.1095
111.3800 37.1101 1.0951
111.4000 37.1168 1.1046
111.4200 37.1235 1.1130
111.4400 37.1302 1.0962
111.4600 37.1369 1.1059
111.4800 37.1436 1.1118
111.5000 37.1502 1.1000
111.5200 37.1568 1.1037
111.5400 37.1634 1.1147
111.5600 37.1701 1.1010
111.5800 37.1768 1.1069
111.6000 37.1835 1.1109
111.6200 37.1902 1.1047
111.6400 37.1969 1.1106
111.6600 37.2035 1.1142
111.6800 37.2102 1.1068
111.7000 37.2168 1.1122
111.7200 37.2234 1.1148
111.7400 37.2301 1.1123
111.7600 37.2368 1.1094
111.7800 37.2435 1.1151
111.8000 37.2502 1.1176
111.8200 37.2568 1.1069
111.8400 37.2635 1.1145
111.8600 37.2702 1.1157
111.8800 37.2768 1.1102
111.9000 37.2834 1.1154
111.9200 37.2901 1.1192
111.9400 37.2968 1.1071
111.9600 37.3035 1.1182
111.9800 37.3101 1.1154
112.0000 37.3168 1.1110
112.0200 37.3235 1.1211
112.0400 37.3302 1.1191
112.0600 37.3368 1.1092
112.0800 37.3434 1.1251
112.1000 37.3501 1.1169
112.1200 37.3568 1.1110
112.1400 37.3635 1.1221
112.1600 37.3702 1.1187
112.1800 37.3769 1.1162
112.2000 37.3836 1.1263
112.2200 37.3902 1.1155
112.2400 37.3968 1.1206
112.2600 37.4034 1.1299
112.2800 37.4101 1.1156
112.3000 37.4168 1.1180
112.3200 37.4235 1.1306
112.3400 37.4302 1.1198
112.3600 37.4369 1.1209
112.3800 37.4436 1.1285
112.4000 37.4502 1.1191
112.4200 37.4568 1.1297
112.4400 37.4634 1.1294
112.4600 37.4701 1.1211
112.4800 37.4768 1.1266
112.5000 37.4835 1.1305
112.5200 37.4902 1.1214
112.5400 37.4969 1.1305
112.5600 37.5036 1.1261
112.5800 37.5102 1.1250
112.6000 37.5168 1.1318
112.6200 37.5233 1.1294
112.6400 37.5300 1.1276
112.6600 37.5368 1.1323
112.6800 37.5435 1.1281
112.7000 37.5502 1.1292
112.7200 37.5568 1.1339
112.7400 37.5635 1.1283
112.7600 37.5702 1.1265
112.7800 37.5768 1.1322
112.8000 37.5834 1.1330
112.8200 37.5901 1.1308
112.8400 37.5968 1.1321
112.8600 37.6035 1.1338
112.8800 37.6102 1.1355
112.9000 37.6169 1.1311
112.9200 37.6236 1.1361
112.9400 37.6302 1.1314
112.9600 37.6369 1.1340
112.9800 37.6435 1.1421
113.0000 37.6501 1.1363
113.0200 37.6568 1.1284
113.0400 37.6635 1.1391
113.0600 37.6702 1.1332
113.0800 37.6769 1.1358
113.1000 37.6836 1.1403
113.1200 37.6902 1.1367
113.1400 37.6968 1.1367
113.1600 37.7034 1.1444
113.1800 37.7101 1.1351
113.2000 37.7168 1.1415
113.2200 37.7235 1.1415
113.2400 37.7302 1.1347
113.2600 37.7369 1.1445
113.2800 37.7435 1.1384
113.3000 37.7502 1.1336
113.3200 37.7568 1.1498
113.3400 37.7634 1.1413
113.3600 37.7701 1.1360
113.3800 37.7768 1.1492
113.4000 37.7835 1.1349
113.4200 37.7902 1.1452
113.4400 37.7968 1.1486
113.4600 37.8035 1.1367
113.4800 37.8102 1.1446
113.5000 37.8168 1.1529
113.5200 37.8234 1.1383
113.5400 37.8301 1.1518
113.5600 37.8368 1.1518
113.5800 37.8435 1.1396
113.6000 37.8502 1.1499
113.6200 37.8569 1.1524
113.6400 37.8636 1.1433
113.6600 37.8702 1.1524
113.6800 37.8768 1.1508
113.7000 37.8834 1.1459
113.7200 37.8901 1.1501
113.7400 37.8968 1.1522
113.7600 37.9035 1.1474
113.7800 37.9102 1.1517
113.8000 37.9169 1.1542
113.8200 37.9236 1.1481
113.8400 37.9302 1.1540
113.8600 37.9368 1.1544
113.8800 37.9434 1.1511
113.9000 37.9501 1.1554
113.9200 37.9568 1.1580
113.9400 37.9635 1.1548
113.9600 37.9701 1.1564
113.9800 37.9768 1.1585
114.0000 37.9835 1.1504
114.0200 37.9902 1.1550
114.0400 37.9968 1.1634
114.0600 38.0034 1.1489
114.0800 38.0101 1.1632
114.1000 38.0168 1.1617
114.1200 38.0235 1.1465
114.1400 38.0301 1.1657
114.1600 38.0368 1.1642
114.1800 38.0435 1.1483
114.2000 38.0502 1.1677
114.2200 38.0568 1.1652
114.2400 38.0634 1.1522
114.2600 38.0701 1.1679
114.2800 38.0768 1.1662
114.3000 38.0836 1.1512
114.3200 38.0902 1.1664
114.3400 38.0969 1.1678
114.3600 38.1036 1.1574
114.3800 38.1102 1.1691
114.4000 38.1168 1.1671
114.4200 38.1234 1.1620
114.4400 38.1301 1.1673
114.4600 38.1368 1.1728
114.4800 38.1435 1.1605
114.5000 38.1502 1.1679
114.5200 38.1569 1.1677
114.5400 38.1636 1.1629
114.5600 38.1702 1.1655
114.5800 38.1768 1.1720
114.6000 38.1834 1.1643
114.6200 38.1901 1.1741
114.6400 38.1967 1.1713
114.6600 38.2035 1.1666
114.6800 38.2102 1.1729
114.7000 38.2169 1.1732
114.7200 38.2235 1.1669
114.7400 38.2302 1.1730
114.7600 38.2368 1.1737
114.7800 38.2434 1.1703
114.8000 38.2500 1.1727
114.8200 38.2567 1.1742
114.8400 38.2635 1.1721
114.8600 38.2702 1.1749
114.8800 38.2768 1.1751
114.9000 38.2835 1.1728
114.9200 38.2902 1.1749
114.9400 38.2968 1.1777
114.9600 38.3034 1.1772
114.9800 38.3101 1.1756
115.0000 38.3168 1.1818
115.0200 38.3235 1.1746
115.0400 38.3302 1.1788
115.0600 38.3369 1.1821
115.0800 38.3436 1.1808
115.1000 38.3503 1.1760
115.1200 38.3569 1.1851
115.1400 38.3635 1.1791
115.1600 38.3701 1.1817
115.1800 38.3768 1.1868
115.2000 38.3835 1.1807
115.2200 38.3902 1.1793
115.2400 38.3969 1.1881
115.2600 38.4036 1.1805
115.2800 38.4102 1.1821
115.3000 38.4168 1.1887
115.3200 38.4234 1.1818
115.3400 38.4301 1.1858
115.3600 38.4368 1.1930
115.3800 38.4435 1.1805
115.4000 38.4501 1.1847
115.4200 38.4568 1.1964
115.4400 38.4635 1.1812
115.4600 38.4702 1.1849
115.4800 38.4768 1.1947
115.5000 38.4834 1.1855
115.5200 38.4901 1.1874
115.5400 38.4967 1.1951
115.5600 38.5034 1.1847
115.5800 38.5102 1.1935
115.6000 38.5168 1.1981
115.6200 38.5235 1.1899
115.6400 38.5302 1.1891
115.6600 38.5369 1.1970
115.6800 38.5435 1.1878
115.7000 38.5501 1.1945
115.7200 38.5568 1.2043
115.7400 38.5635 1.1864
115.7600 38.5702 1.1971
115.7800 38.5769 1.2029
115.8000 38.5836 1.1870
115.8200 38.5902 1.1969
115.8400 38.5968 1.2013
115.8600 38.6034 1.1897
115.8800 38.6101 1.1991
115.9000 38.6168 1.2047
115.9200 38.6235 1.1899
115.9400 38.6302 1.1999
115.9600 38.6369 1.2091
115.9800 38.6436 1.1933
116.0000 38.6502 1.2002
116.0200 38.6569 1.2053
116.0400 38.6635 1.1987
116.0600 38.6701 1.2045
116.0800 38.6768 1.2056
116.1000 38.6835 1.2013
116.1200 38.6902 1.2059
116.1400 38.6968 1.2007
116.1600 38.7035 1.1984
116.1800 38.7102 1.2009
116.2000 38.7169 1.2067
116.2200 38.7234 1.2007
116.2400 38.7300 1.2094
116.2600 38.7367 1.2056
116.2800 38.7435 1.2032
116.3000 38.7502 1.2076
116.3200 38.7569 1.2064
116.3400 38.7635 1.2059
116.3600 38.7702 1.2101
116.3800 38.7768 1.2084
116.4000 38.7834 1.2029
116.4200 38.7901 1.2109
116.4400 38.7968 1.2100
116.4600 38.8035 1.2084
116.4800 38.8102 1.2118
116.5000 38.8168 1.2105
116.5200 38.8235 1.2165
116.5400 38.8302 1.2120
116.5600 38.8369 1.2086
116.5800 38.8435 1.2151
116.6000 38.8501 1.2143
116.6200 38.8568 1.2142
116.6400 38.8635 1.2137
116.6600 38.8702 1.2173
116.6800 38.8769 1.2141
116.7000 38.8836 1.2175
116.7200 38.8902 1.2136
116.7400 38.8969 1.2170
116.7600 38.9034 1.2179
116.7800 38.9101 1.2186
116.8000 38.9167 1.2168
116.8200 38.9235 1.2222
116.8400 38.9302 1.2200
116.8600 38.9369 1.2173
116.8800 38.9435 1.2244
116.9000 38.9502 1.2225
116.9200 38.9568 1.2190
116.9400 38.9634 1.2248
116.9600 38.9701 1.2251
116.9800 38.9767 1.2196
117.0000 38.9835 1.2245
117.0200 38.9901 1.2249
117.0400 38.9968 1.2223
117.0600 39.0035 1.2285
117.0800 39.0102 1.2254
117.1000 39.0168 1.2196
117.1200 39.0235 1.2349
117.1400 39.0301 1.2249
117.1600 39.0368 1.2252
117.1800 39.0435 1.2337
117.2000 39.0502 1.2245
117.2200 39.0569 1.2248
117.2400 39.0636 1.2370
117.2600 39.0703 1.2240
117.2800 39.0769 1.2272
117.3000 39.0835 1.2372
117.3200 39.0901 1.2268
117.3400 39.0968 1.2369
117.3600 39.1035 1.2345
117.3800 39.1102 1.2280
117.4000 39.1169 1.2368
117.4200 39.1235 1.2371
117.4400 39.1302 1.2342
117.4600 39.1368 1.2365
117.4800 39.1435 1.2361
117.5000 39.1501 1.2364
117.5200 39.1568 1.2368
117.5400 39.1634 1.2369
117.5600 39.1702 1.2375
117.5800 39.1768 1.2366
117.6000 39.1835 1.2350
117.6200 39.1902 1.2389
117.6400 39.1969 1.2365
117.6600 39.2035 1.2429
117.6800 39.2100 1.2413
117.7000 39.2167 1.2423
117.7200 39.2234 1.2399
117.7400 39.2302 1.2459
117.7600 39.2369 1.2354
117.7800 39.2435 1.2441
117.8000 39.2502 1.2458
117.8200 39.2569 1.2377
117.8400 39.2635 1.2475
117.8600 39.2701 1.2500
117.8800 39.2768 1.2396
117.9000 39.2835 1.2443
117.9200 39.2902 1.2501
117.9400 39.2969 1.2409
117.9600 39.3035 1.2515
117.9800 39.3102 1.2517
118.0000 39.3169 1.2374
118.0200 39.3235 1.2555
118.0400 39.3301 1.2535
118.0600 39.3368 1.2372
118.0800 39.3435 1.2555
118.1000 39.3502 1.2496
118.1200 39.3569 1.2428
118.1400 39.3636 1.2590
118.1600 39.3702 1.2535
118.1800 39.3769 1.2426
118.2000 39.3835 1.2603
118.2200 39.3901 1.2554
118.2400 39.3968 1.2499
118.2600 39.4035 1.2598
118.2800 39.4102 1.2562
118.3000 39.4169 1.2468
118.3200 39.4235 1.2641
118.3400 39.4302 1.2535
118.3600 39.4369 1.2526
118.3800 39.4434 1.2583
118.4000 39.4500 1.2613
118.4200 39.4567 1.2586
118.4400 39.4634 1.2598
118.4600 39.4701 1.2607
118.4800 39.4768 1.2581
118.5000 39.4835 1.2621
118.5200 39.4902 1.2604
118.5400 39.4968 1.2594
118.5600 39.5035 1.2639
118.5800 39.5101 1.2657
118.6000 39.5168 1.2592
118.6200 39.5235 1.2640
118.6400 39.5302 1.2647
118.6600 39.5369 1.2645
118.6800 39.5436 1.2620
118.7000 39.5503 1.2691
118.7200 39.5569 1.2617
118.7400 39.5635 1.2671
118.7600 39.5701 1.2667
118.7800 39.5767 1.2677
118.8000 39.5835 1.2734
118.8200 39.5902 1.2658
118.8400 39.5969 1.2654
118.8600 39.6036 1.2748
118.8800 39.6102 1.2672
118.9000 39.6169 1.2644
118.9200 39.6235 1.2729
118.9400 39.6301 1.2734
118.9600 39.6368 1.2704
118.9800 39.6435 1.2776
119.0000 39.6502 1.2755
119.0200 39.6568 1.2701
119.0400 39.6635 1.2766
119.0600 39.6702 1.2766
119.0800 39.6769 1.2752
119.1000 39.6835 1.2756
119.1200 39.6901 1.2789
119.1400 39.6968 1.2749
119.1600 39.7035 1.2787
119.1800 39.7101 1.2778
119.2000 39.7168 1.2797
119.2200 39.7235 1.2814
119.2400 39.7301 1.2773
119.2600 39.7368 1.2760
119.2800 39.7435 1.2872
119.3000 39.7501 1.2783
119.3200 39.7567 1.2825
119.3400 39.7635 1.2843
119.3600 39.7702 1.2794
119.3800 39.7769 1.2754
119.4000 39.7836 1.2879
119.4200 39.7902 1.2833
119.4400 39.7969 1.2792
119.4600 39.8035 1.2885
119.4800 39.8101 1.2814
119.5000 39.8167 1.2855
119.5200 39.8235 1.2913
119.5400 39.8302 1.2847
119.5600 39.8369 1.2870
119.5800 39.8436 1.2875
119.6000 39.8502 1.2892
119.6200 39.8569 1.2906
119.6400 39.8635 1.2883
119.6600 39.8701 1.2899
119.6800 39.8767 1.2907
119.7000 39.8834 1.2953
119.7200 39.8901 1.2845
119.7400 39.8968 1.2985
119.7600 39.9035 1.2935
119.7800 39.9102 1.2902
119.8000 39.9169 1.2905
119.8200 39.9235 1.2992
119.8400 39.9301 1.2944
119.8600 39.9367 1.2927
119.8800 39.9434 1.2970
119.9000 39.9501 1.2948
119.9200 39.9569 1.2958
119.9400 39.9635 1.3014
119.9600 39.9702 1.2944
119.9800 39.9769 1.2980
120.0000 39.9835 1.3004
120.0200 39.9901 1.2959
120.0400 39.9968 1.3012
120.0500 40.0000 1.2942
