Raw Data
Time Displacement Force
(s) (mm) (N)
0.0000 0.0000 0.0090
0.0200 0.0000 0.0026
0.0400 0.0008 0.0317
0.0600 0.0040 0.0474
0.0800 0.0095 -0.0021
0.1000 0.0152 -0.0104
0.1200 0.0211 0.0290
0.1400 0.0277 0.0089
0.1600 0.0349 -0.0047
0.1800 0.0424 0.0076
0.2000 0.0497 -0.0050
0.2200 0.0567 -0.0074
0.2400 0.0633 0.0158
0.2600 0.0700 -0.0034
0.2800 0.0767 -0.0008
0.3000 0.0834 0.0177
0.3200 0.0900 -0.0072
0.3400 0.0967 0.0000
0.3600 0.1033 0.0150
0.3800 0.1100 -0.0068
0.4000 0.1167 -0.0010
0.4200 0.1234 0.0162
0.4400 0.1301 -0.0104
0.4600 0.1368 0.0004
0.4800 0.1434 0.0154
0.5000 0.1500 -0.0068
0.5200 0.1566 0.0084
0.5400 0.1633 0.0185
0.5600 0.1700 -0.0122
0.5800 0.1767 0.0108
0.6000 0.1834 0.0122
0.6200 0.1900 -0.0053
0.6400 0.1967 0.0124
0.6600 0.2034 0.0089
0.6800 0.2100 -0.0079
0.7000 0.2167 0.0150
0.7200 0.2233 0.0122
0.7400 0.2300 -0.0004
0.7600 0.2367 0.0154
0.7800 0.2434 0.0092
0.8000 0.2501 0.0009
0.8200 0.2568 0.0156
0.8400 0.2634 0.0080
0.8600 0.2701 0.0052
0.8800 0.2767 0.0182
0.9000 0.2833 0.0091
0.9200 0.2900 0.0111
0.9400 0.2967 0.0137
0.9600 0.3034 0.0116
0.9800 0.3101 0.0115
1.0000 0.3168 0.0201
1.0200 0.3235 0.0091
1.0400 0.3301 0.0156
1.0600 0.3367 0.0192
1.0800 0.3433 0.0139
1.1000 0.3500 0.0150
1.1200 0.3568 0.0255
1.1400 0.3634 0.0143
1.1600 0.3701 0.0170
1.1800 0.3767 0.0199
1.2000 0.3834 0.0171
1.2200 0.3900 0.0178
1.2400 0.3966 0.0248
1.2600 0.4033 0.0189
1.2800 0.4100 0.0183
1.3000 0.4167 0.0248
1.3200 0.4234 0.0207
1.3400 0.4300 0.0226
1.3600 0.4367 0.0269
1.3800 0.4434 0.0240
1.4000 0.4500 0.0177
1.4200 0.4567 0.0369
1.4400 0.4633 0.0278
1.4600 0.4700 0.0233
1.4800 0.4767 0.0351
1.5000 0.4834 0.0292
1.5200 0.4901 0.0267
1.5400 0.4968 0.0405
1.5600 0.5034 0.0273
1.5800 0.5101 0.0379
1.6000 0.5167 0.0397
1.6200 0.5233 0.0316
1.6400 0.5301 0.0388
1.6600 0.5368 0.0439
1.6800 0.5434 0.0345
1.7000 0.5501 0.0428
1.7200 0.5567 0.0403
1.7400 0.5634 0.0393
1.7600 0.5700 0.0466
1.7800 0.5767 0.0419
1.8000 0.5833 0.0463
1.8200 0.5900 0.0500
1.8400 0.5967 0.0410
1.8600 0.6034 0.0463
1.8800 0.6100 0.0538
1.9000 0.6167 0.0467
1.9200 0.6234 0.0531
1.9400 0.6300 0.0517
1.9600 0.6366 0.0489
1.9800 0.6433 0.0567
2.0000 0.6500 0.0579
2.0200 0.6567 0.0478
2.0400 0.6634 0.0556
2.0600 0.6701 0.0589
2.0800 0.6768 0.0554
2.1000 0.6834 0.0553
2.1200 0.6900 0.0633
2.1400 0.6967 0.0566
2.1600 0.7033 0.0594
2.1800 0.7100 0.0643
2.2000 0.7167 0.0611
2.2200 0.7234 0.0614
2.2400 0.7301 0.0663
2.2600 0.7368 0.0532
2.2800 0.7435 0.0654
2.3000 0.7501 0.0726
2.3200 0.7567 0.0591
2.3400 0.7634 0.0655
2.3600 0.7700 0.0782
2.3800 0.7767 0.0654
2.4000 0.7834 0.0651
2.4200 0.7901 0.0828
2.4400 0.7968 0.0661
2.4600 0.8035 0.0705
2.4800 0.8101 0.0833
2.5000 0.8167 0.0759
2.5200 0.8233 0.0748
2.5400 0.8300 0.0856
2.5600 0.8367 0.0755
2.5800 0.8434 0.0785
2.6000 0.8501 0.0895
2.6200 0.8568 0.0816
2.6400 0.8634 0.0755
2.6600 0.8700 0.0911
2.6800 0.8766 0.0841
2.7000 0.8833 0.0871
2.7200 0.8900 0.0925
2.7400 0.8967 0.0891
2.7600 0.9034 0.0878
2.7800 0.9100 0.0967
2.8000 0.9167 0.0932
2.8200 0.9234 0.0885
2.8400 0.9300 0.1050
2.8600 0.9367 0.0965
2.8800 0.9433 0.0936
2.9000 0.9500 0.1076
2.9200 0.9568 0.1019
2.9400 0.9635 0.1002
2.9600 0.9701 0.1058
2.9800 0.9768 0.1028
3.0000 0.9835 0.1064
3.0200 0.9901 0.1111
3.0400 0.9967 0.1087
3.0600 1.0033 0.1092
3.0800 1.0100 0.1205
3.1000 1.0167 0.1046
3.1200 1.0234 0.1103
3.1400 1.0301 0.1264
3.1600 1.0368 0.1157
3.1800 1.0435 0.1096
3.2000 1.0501 0.1248
3.2200 1.0567 0.1207
3.2400 1.0633 0.1189
3.2600 1.0700 0.1303
3.2800 1.0767 0.1197
3.3000 1.0834 0.1209
3.3200 1.0901 0.1377
3.3400 1.0968 0.1227
3.3600 1.1035 0.1262
3.3800 1.1101 0.1415
3.4000 1.1167 0.1278
3.4200 1.1233 0.1331
3.4400 1.1300 0.1433
3.4600 1.1367 0.1337
3.4800 1.1434 0.1314
3.5000 1.1501 0.1471
3.5200 1.1567 0.1364
3.5400 1.1634 0.1367
3.5600 1.1701 0.1472
3.5800 1.1767 0.1430
3.6000 1.1833 0.1419
3.6200 1.1900 0.1528
3.6400 1.1967 0.1454
3.6600 1.2034 0.1464
3.6800 1.2101 0.1533
3.7000 1.2168 0.1526
3.7200 1.2235 0.1453
3.7400 1.2301 0.1606
3.7600 1.2367 0.1538
3.7800 1.2433 0.1529
3.8000 1.2500 0.1591
3.8200 1.2568 0.1570
3.8400 1.2635 0.1543
3.8600 1.2701 0.1666
3.8800 1.2768 0.1619
3.9000 1.2834 0.1559
3.9200 1.2901 0.1735
3.9400 1.2967 0.1638
3.9600 1.3033 0.1597
3.9800 1.3100 0.1723
4.0000 1.3167 0.1680
4.0200 1.3234 0.1641
4.0400 1.3301 0.1784
4.0600 1.3367 0.1716
4.0800 1.3434 0.1706
4.1000 1.3501 0.1797
4.1200 1.3567 0.1755
4.1400 1.3633 0.1691
4.1600 1.3699 0.1860
4.1800 1.3767 0.1779
4.2000 1.3834 0.1729
4.2200 1.3901 0.1868
4.2400 1.3967 0.1840
4.2600 1.4034 0.1763
4.2800 1.4101 0.1906
4.3000 1.4167 0.1838
4.3200 1.4233 0.1831
4.3400 1.4300 0.1980
4.3600 1.4367 0.1853
4.3800 1.4434 0.1861
4.4000 1.4501 0.2008
4.4200 1.4568 0.1917
4.4400 1.4635 0.1897
4.4600 1.4701 0.2013
4.4800 1.4767 0.1982
4.5000 1.4833 0.1923
4.5200 1.4900 0.2031
4.5400 1.4967 0.2001
4.5600 1.5034 0.1964
4.5800 1.5101 0.2082
4.6000 1.5168 0.2024
4.6200 1.5235 0.2002
4.6400 1.5301 0.2061
4.6600 1.5367 0.2083
4.6800 1.5433 0.2050
4.7000 1.5500 0.2098
4.7200 1.5567 0.2127
4.7400 1.5634 0.2106
4.7600 1.5701 0.2088
4.7800 1.5768 0.2167
4.8000 1.5834 0.2059
4.8200 1.5901 0.2178
4.8400 1.5967 0.2224
4.8600 1.6033 0.2086
4.8800 1.6100 0.2228
4.9000 1.6167 0.2224
4.9200 1.6234 0.2151
4.9400 1.6300 0.2224
4.9600 1.6367 0.2246
4.9800 1.6434 0.2184
5.0000 1.6500 0.2273
5.0200 1.6567 0.2270
5.0400 1.6633 0.2255
5.0600 1.6700 0.2320
5.0800 1.6767 0.2298
5.1000 1.6834 0.2217
5.1200 1.6901 0.2372
5.1400 1.6968 0.2367
5.1600 1.7035 0.2255
5.1800 1.7102 0.2381
5.2000 1.7167 0.2360
5.2200 1.7233 0.2308
5.2400 1.7300 0.2508
5.2600 1.7367 0.2369
5.2800 1.7435 0.2298
5.3000 1.7501 0.2475
5.3200 1.7568 0.2429
5.3400 1.7635 0.2357
5.3600 1.7701 0.2517
5.3800 1.7767 0.2434
5.4000 1.7833 0.2417
5.4200 1.7900 0.2536
5.4400 1.7967 0.2473
5.4600 1.8034 0.2487
5.4800 1.8100 0.2518
5.5000 1.8167 0.2465
5.5200 1.8234 0.2548
5.5400 1.8301 0.2582
5.5600 1.8367 0.2507
5.5800 1.8433 0.2565
5.6000 1.8499 0.2572
5.6200 1.8566 0.2561
5.6400 1.8633 0.2582
5.6600 1.8700 0.2598
5.6800 1.8767 0.2587
5.7000 1.8834 0.2591
5.7200 1.8901 0.2564
5.7400 1.8967 0.2686
5.7600 1.9033 0.2661
5.7800 1.9100 0.2637
5.8000 1.9167 0.2646
5.8200 1.9234 0.2668
5.8400 1.9301 0.2680
5.8600 1.9368 0.2729
5.8800 1.9435 0.2649
5.9000 1.9501 0.2707
5.9200 1.9568 0.2753
5.9400 1.9634 0.2675
5.9600 1.9700 0.2755
5.9800 1.9767 0.2820
6.0000 1.9834 0.2741
6.0200 1.9901 0.2722
6.0400 1.9968 0.2848
6.0600 2.0035 0.2782
6.0800 2.0101 0.2747
6.1000 2.0167 0.2827
6.1200 2.0233 0.2785
6.1400 2.0300 0.2816
6.1600 2.0367 0.2860
6.1800 2.0434 0.2815
6.2000 2.0501 0.2865
6.2200 2.0568 0.2908
6.2400 2.0634 0.2881
6.2600 2.0701 0.2793
6.2800 2.0767 0.2945
6.3000 2.0833 0.2897
6.3200 2.0900 0.2869
6.3400 2.0967 0.2963
6.3600 2.1034 0.2934
6.3800 2.1101 0.2844
6.4000 2.1167 0.3020
6.4200 2.1234 0.3003
6.4400 2.1301 0.2856
6.4600 2.1367 0.3028
6.4800 2.1434 0.3004
6.5000 2.1500 0.2960
6.5200 2.1567 0.3063
6.5400 2.1634 0.3006
6.5600 2.1701 0.2972
6.5800 2.1768 0.3126
6.6000 2.1835 0.2994
6.6200 2.1902 0.3006
6.6400 2.1968 0.3135
6.6600 2.2033 0.3075
6.6800 2.2100 0.3013
6.7000 2.2167 0.3182
6.7200 2.2234 0.3045
6.7400 2.2301 0.3092
6.7600 2.2368 0.3126
6.7800 2.2435 0.3061
6.8000 2.2501 0.3186
6.8200 2.2567 0.3175
6.8400 2.2634 0.3119
6.8600 2.2700 0.3202
6.8800 2.2767 0.3158
6.9000 2.2834 0.3189
6.9200 2.2901 0.3186
6.9400 2.2967 0.3189
6.9600 2.3034 0.3232
6.9800 2.3101 0.3206
7.0000 2.3167 0.3185
7.0200 2.3233 0.3289
7.0400 2.3299 0.3229
7.0600 2.3366 0.3223
7.0800 2.3433 0.3336
7.1000 2.3500 0.3238
7.1200 2.3567 0.3287
7.1400 2.3634 0.3317
7.1600 2.3701 0.3223
7.1800 2.3767 0.3342
7.2000 2.3833 0.3390
7.2200 2.3900 0.3207
7.2400 2.3967 0.3416
7.2600 2.4034 0.3358
7.2800 2.4101 0.3239
7.3000 2.4168 0.3417
7.3200 2.4235 0.3364
7.3400 2.4301 0.3277
7.3600 2.4367 0.3437
7.3800 2.4433 0.3401
7.4000 2.4500 0.3371
7.4200 2.4567 0.3453
7.4400 2.4634 0.3395
7.4600 2.4701 0.3377
7.4800 2.4768 0.3487
7.5000 2.4834 0.3449
7.5200 2.4901 0.3418
7.5400 2.4967 0.3428
7.5600 2.5033 0.3475
7.5800 2.5100 0.3496
7.6000 2.5166 0.3452
7.6200 2.5234 0.3545
7.6400 2.5301 0.3454
7.6600 2.5367 0.3488
7.6800 2.5434 0.3550
7.7000 2.5501 0.3472
7.7200 2.5567 0.3478
7.7400 2.5633 0.3662
7.7600 2.5700 0.3490
7.7800 2.5766 0.3528
7.8000 2.5834 0.3676
7.8200 2.5901 0.3532
7.8400 2.5967 0.3494
7.8600 2.6034 0.3720
7.8800 2.6101 0.3535
7.9000 2.6167 0.3538
7.9200 2.6233 0.3735
7.9400 2.6300 0.3557
7.9600 2.6367 0.3577
7.9800 2.6434 0.3716
8.0000 2.6501 0.3560
8.0200 2.6568 0.3637
8.0400 2.6634 0.3760
8.0600 2.6701 0.3584
8.0800 2.6768 0.3657
8.1000 2.6834 0.3750
8.1200 2.6900 0.3623
8.1400 2.6967 0.3712
8.1600 2.7034 0.3787
8.1800 2.7101 0.3643
8.2000 2.7168 0.3724
8.2200 2.7235 0.3846
8.2400 2.7302 0.3677
8.2600 2.7368 0.3739
8.2800 2.7434 0.3834
8.3000 2.7500 0.3687
8.3200 2.7566 0.3843
8.3400 2.7633 0.3788
8.3600 2.7700 0.3737
8.3800 2.7767 0.3823
8.4000 2.7834 0.3796
8.4200 2.7901 0.3777
8.4400 2.7967 0.3833
8.4600 2.8033 0.3867
8.4800 2.8100 0.3823
8.5000 2.8166 0.3874
8.5200 2.8233 0.3888
8.5400 2.8300 0.3835
8.5600 2.8367 0.3910
8.5800 2.8434 0.3897
8.6000 2.8501 0.3871
8.6200 2.8568 0.3883
8.6400 2.8634 0.3906
8.6600 2.8700 0.3929
8.6800 2.8767 0.3921
8.7000 2.8834 0.3978
8.7200 2.8901 0.3894
8.7400 2.8968 0.3908
8.7600 2.9035 0.4001
8.7800 2.9102 0.3923
8.8000 2.9168 0.3922
8.8200 2.9234 0.4032
8.8400 2.9300 0.3992
8.8600 2.9367 0.3928
8.8800 2.9434 0.4070
8.9000 2.9501 0.4027
8.9200 2.9568 0.3875
8.9400 2.9635 0.4099
8.9600 2.9701 0.4038
8.9800 2.9768 0.3934
9.0000 2.9834 0.4113
9.0200 2.9900 0.4027
9.0400 2.9967 0.4008
9.0600 3.0034 0.4131
9.0800 3.0101 0.4018
9.1000 3.0167 0.4053
9.1200 3.0234 0.4146
9.1400 3.0301 0.3989
9.1600 3.0368 0.4078
9.1800 3.0433 0.4173
9.2000 3.0499 0.4064
9.2200 3.0566 0.4137
9.2400 3.0633 0.4191
9.2600 3.0700 0.4056
9.2800 3.0767 0.4167
9.3000 3.0834 0.4173
9.3200 3.0901 0.4110
9.3400 3.0967 0.4195
9.3600 3.1033 0.4171
9.3800 3.1100 0.4140
9.4000 3.1167 0.4226
9.4200 3.1234 0.4162
9.4400 3.1301 0.4195
9.4600 3.1368 0.4249
9.4800 3.1435 0.4218
9.5000 3.1501 0.4203
9.5200 3.1568 0.4249
9.5400 3.1634 0.4244
9.5600 3.1701 0.4250
9.5800 3.1767 0.4239
9.6000 3.1834 0.4262
9.6200 3.1901 0.4226
9.6400 3.1968 0.4264
9.6600 3.2034 0.4320
9.6800 3.2101 0.4251
9.7000 3.2168 0.4291
9.7200 3.2234 0.4316
9.7400 3.2300 0.4322
9.7600 3.2366 0.4291
9.7800 3.2433 0.4390
9.8000 3.2500 0.4345
9.8200 3.2567 0.4309
9.8400 3.2634 0.4380
9.8600 3.2701 0.4351
9.8800 3.2767 0.4344
9.9000 3.2833 0.4402
9.9200 3.2900 0.4318
9.9400 3.2966 0.4388
9.9600 3.3034 0.4423
9.9800 3.3101 0.4376
10.0000 3.3168 0.4381
10.0200 3.3234 0.4407
10.0400 3.3301 0.4436
10.0600 3.3368 0.4383
10.0800 3.3434 0.4426
10.1000 3.3500 0.4495
10.1200 3.3567 0.4406
10.1400 3.3634 0.4447
10.1600 3.3701 0.4466
10.1800 3.3768 0.4469
10.2000 3.3834 0.4501
10.2200 3.3901 0.4435
10.2400 3.3968 0.4496
10.2600 3.4034 0.4494
10.2800 3.4100 0.4500
10.3000 3.4167 0.4516
10.3200 3.4234 0.4510
10.3400 3.4301 0.4500
10.3600 3.4368 0.4527
10.3800 3.4435 0.4458
10.4000 3.4501 0.4601
10.4200 3.4568 0.4518
10.4400 3.4634 0.4491
10.4600 3.4700 0.4595
10.4800 3.4766 0.4583
10.5000 3.4833 0.4527
10.5200 3.4901 0.4665
10.5400 3.4967 0.4562
10.5600 3.5034 0.4544
10.5800 3.5101 0.4711
10.6000 3.5167 0.4545
10.6200 3.5234 0.4573
10.6400 3.5300 0.4694
10.6600 3.5366 0.4611
10.6800 3.5433 0.4608
10.7000 3.5500 0.4714
10.7200 3.5567 0.4582
10.7400 3.5634 0.4641
10.7600 3.5701 0.4736
10.7800 3.5768 0.4563
10.8000 3.5834 0.4688
10.8200 3.5900 0.4758
10.8400 3.5967 0.4617
10.8600 3.6034 0.4738
10.8800 3.6101 0.4687
10.9000 3.6168 0.4705
10.9200 3.6235 0.4724
10.9400 3.6301 0.4755
10.9600 3.6368 0.4720
10.9800 3.6434 0.4732
11.0000 3.6500 0.4719
11.0200 3.6567 0.4767
11.0400 3.6634 0.4730
11.0600 3.6701 0.4757
11.0800 3.6768 0.4782
11.1000 3.6834 0.4742
11.1200 3.6901 0.4823
11.1400 3.6968 0.4813
11.1600 3.7034 0.4712
11.1800 3.7100 0.4799
11.2000 3.7166 0.4863
11.2200 3.7233 0.4709
11.2400 3.7300 0.4854
11.2600 3.7367 0.4859
11.2800 3.7434 0.4733
11.3000 3.7501 0.4889
11.3200 3.7568 0.4857
11.3400 3.7634 0.4704
11.3600 3.7700 0.4975
11.3800 3.7766 0.4882
11.4000 3.7833 0.4741
11.4200 3.7900 0.4976
11.4400 3.7967 0.4885
11.4600 3.8034 0.4756
11.4800 3.8101 0.5056
11.5000 3.8167 0.4867
11.5200 3.8234 0.4791
11.5400 3.8300 0.5071
11.5600 3.8366 0.4868
11.5800 3.8433 0.4850
11.6000 3.8501 0.5076
11.6200 3.8568 0.4856
11.6400 3.8635 0.4856
11.6600 3.8702 0.5081
11.6800 3.8768 0.4901
11.7000 3.8835 0.4911
11.7200 3.8901 0.5035
11.7400 3.8967 0.4934
11.7600 3.9034 0.4958
11.7800 3.9101 0.5040
11.8000 3.9168 0.4947
11.8200 3.9235 0.4990
11.8400 3.9301 0.5021
11.8600 3.9368 0.4979
11.8800 3.9434 0.4958
11.9000 3.9500 0.5082
11.9200 3.9566 0.5032
11.9400 3.9633 0.4993
11.9600 3.9701 0.5019
11.9800 3.9768 0.5089
12.0000 3.9834 0.5025
12.0200 3.9901 0.5049
12.0400 3.9968 0.5079
12.0600 4.0034 0.4996
12.0800 4.0100 0.5085
12.1000 4.0166 0.5131
12.1200 4.0233 0.4996
12.1400 4.0300 0.5131
12.1600 4.0367 0.5164
12.1800 4.0434 0.5048
12.2000 4.0501 0.5114
12.2200 4.0568 0.5181
12.2400 4.0634 0.5074
12.2600 4.0700 0.5120
12.2800 4.0767 0.5169
12.3000 4.0833 0.5084
12.3200 4.0901 0.5172
12.3400 4.0967 0.5227
12.3600 4.1034 0.5098
12.3800 4.1101 0.5179
12.4000 4.1168 0.5229
12.4200 4.1234 0.5012
12.4400 4.1300 0.5245
12.4600 4.1366 0.5242
12.4800 4.1433 0.5106
12.5000 4.1501 0.5193
12.5200 4.1568 0.5257
12.5400 4.1635 0.5160
12.5600 4.1701 0.5241
12.5800 4.1768 0.5247
12.6000 4.1834 0.5182
12.6200 4.1900 0.5227
12.6400 4.1967 0.5325
12.6600 4.2034 0.5193
12.6800 4.2101 0.5262
12.7000 4.2167 0.5310
12.7200 4.2234 0.5209
12.7400 4.2301 0.5251
12.7600 4.2368 0.5311
12.7800 4.2434 0.5267
12.8000 4.2500 0.5245
12.8200 4.2566 0.5346
12.8400 4.2633 0.5286
12.8600 4.2700 0.5266
12.8800 4.2767 0.5358
12.9000 4.2834 0.5309
12.9200 4.2901 0.5294
12.9400 4.2967 0.5410
12.9600 4.3034 0.5252
12.9800 4.3100 0.5311
13.0000 4.3166 0.5425
13.0200 4.3234 0.5342
13.0400 4.3301 0.5299
13.0600 4.3368 0.5433
13.0800 4.3435 0.5316
13.1000 4.3501 0.5364
13.1200 4.3568 0.5430
13.1400 4.3634 0.5335
13.1600 4.3700 0.5355
13.1800 4.3766 0.5469
13.2000 4.3833 0.5384
13.2200 4.3900 0.5374
13.2400 4.3967 0.5509
13.2600 4.4034 0.5333
13.2800 4.4101 0.5391
13.3000 4.4168 0.5518
13.3200 4.4235 0.5385
13.3400 4.4300 0.5445
13.3600 4.4366 0.5559
13.3800 4.4433 0.5375
13.4000 4.4500 0.5484
13.4200 4.4567 0.5493
13.4400 4.4634 0.5423
13.4600 4.4701 0.5471
13.4800 4.4768 0.5490
13.5000 4.4834 0.5429
13.5200 4.4900 0.5522
13.5400 4.4966 0.5546
13.5600 4.5033 0.5489
13.5800 4.5100 0.5520
13.6000 4.5167 0.5500
13.6200 4.5234 0.5491
13.6400 4.5301 0.5537
13.6600 4.5367 0.5539
13.6800 4.5434 0.5537
13.7000 4.5500 0.5512
13.7200 4.5567 0.5552
13.7400 4.5633 0.5592
13.7600 4.5700 0.5511
13.7800 4.5767 0.5630
13.8000 4.5834 0.5592
13.8200 4.5901 0.5489
13.8400 4.5968 0.5614
13.8600 4.6035 0.5679
13.8800 4.6101 0.5517
13.9000 4.6167 0.5647
13.9200 4.6233 0.5641
13.9400 4.6301 0.5540
13.9600 4.6368 0.5679
13.9800 4.6435 0.5649
14.0000 4.6501 0.5497
14.0200 4.6568 0.5721
14.0400 4.6634 0.5653
14.0600 4.6700 0.5566
14.0800 4.6766 0.5729
14.1000 4.6833 0.5687
14.1200 4.6900 0.5589
14.1400 4.6967 0.5698
14.1600 4.7034 0.5675
14.1800 4.7100 0.5614
14.2000 4.7167 0.5737
14.2200 4.7234 0.5667
14.2400 4.7300 0.5623
14.2600 4.7366 0.5771
14.2800 4.7433 0.5680
14.3000 4.7500 0.5660
14.3200 4.7567 0.5762
14.3400 4.7634 0.5691
14.3600 4.7701 0.5689
14.3800 4.7768 0.5749
14.4000 4.7835 0.5750
14.4200 4.7901 0.5702
14.4400 4.7967 0.5773
14.4600 4.8033 0.5738
14.4800 4.8101 0.5736
14.5000 4.8168 0.5759
14.5200 4.8235 0.5785
14.5400 4.8301 0.5770
14.5600 4.8368 0.5777
14.5800 4.8434 0.5786
14.6000 4.8500 0.5780
14.6200 4.8567 0.5790
14.6400 4.8633 0.5824
14.6600 4.8700 0.5777
14.6800 4.8768 0.5787
14.7000 4.8834 0.5844
14.7200 4.8901 0.5813
14.7400 4.8968 0.5770
14.7600 4.9034 0.5877
14.7800 4.9101 0.5820
14.8000 4.9167 0.5775
14.8200 4.9233 0.5924
14.8400 4.9300 0.5778
14.8600 4.9367 0.5804
14.8800 4.9434 0.5918
14.9000 4.9501 0.5851
14.9200 4.9568 0.5852
14.9400 4.9635 0.5928
14.9600 4.9701 0.5779
14.9800 4.9766 0.5911
15.0000 4.9833 0.5977
15.0200 4.9900 0.5817
15.0400 4.9967 0.5855
15.0600 5.0034 0.6003
15.0800 5.0101 0.5820
15.1000 5.0168 0.5895
15.1200 5.0234 0.6000
15.1400 5.0300 0.5851
15.1600 5.0366 0.5918
15.1800 5.0433 0.6038
15.2000 5.0500 0.5833
15.2200 5.0567 0.5906
15.2400 5.0634 0.6077
15.2600 5.0701 0.5887
15.2800 5.0768 0.5931
15.3000 5.0835 0.6053
15.3200 5.0901 0.5884
15.3400 5.0967 0.5980
15.3600 5.1033 0.6067
15.3800 5.1100 0.5915
15.4000 5.1167 0.6000
15.4200 5.1234 0.6046
15.4400 5.1301 0.5962
15.4600 5.1368 0.5951
15.4800 5.1435 0.6078
15.5000 5.1501 0.5964
15.5200 5.1567 0.6008
15.5400 5.1633 0.6089
15.5600 5.1700 0.5984
15.5800 5.1767 0.6008
15.6000 5.1834 0.6037
15.6200 5.1901 0.6015
15.6400 5.1968 0.6056
15.6600 5.2034 0.6047
15.6800 5.2100 0.6007
15.7000 5.2167 0.6045
15.7200 5.2233 0.6143
15.7400 5.2300 0.6016
15.7600 5.2367 0.6056
15.7800 5.2434 0.6148
15.8000 5.2500 0.6022
15.8200 5.2567 0.6054
15.8400 5.2634 0.6168
15.8600 5.2701 0.6058
15.8800 5.2767 0.6073
15.9000 5.2833 0.6199
15.9200 5.2900 0.6047
15.9400 5.2967 0.6096
15.9600 5.3034 0.6165
15.9800 5.3101 0.6097
16.0000 5.3168 0.6142
16.0200 5.3235 0.6156
16.0400 5.3301 0.6100
16.0600 5.3367 0.6175
16.0800 5.3433 0.6239
16.1000 5.3500 0.6115
16.1200 5.3568 0.6161
16.1400 5.3635 0.6222
16.1600 5.3701 0.6139
16.1800 5.3768 0.6203
16.2000 5.3834 0.6212
16.2200 5.3901 0.6162
16.2400 5.3967 0.6184
16.2600 5.4033 0.6254
16.2800 5.4100 0.6220
16.3000 5.4167 0.6205
16.3200 5.4234 0.6219
16.3400 5.4301 0.6242
16.3600 5.4367 0.6207
16.3800 5.4434 0.6189
16.4000 5.4501 0.6268
16.4200 5.4567 0.6202
16.4400 5.4633 0.6239
16.4600 5.4700 0.6290
16.4800 5.4767 0.6234
16.5000 5.4834 0.6247
16.5200 5.4901 0.6300
16.5400 5.4968 0.6178
16.5600 5.5035 0.6311
16.5800 5.5101 0.6298
16.6000 5.5167 0.6232
16.6200 5.5233 0.6330
16.6400 5.5300 0.6317
16.6600 5.5367 0.6157
16.6800 5.5434 0.6376
16.7000 5.5501 0.6375
16.7200 5.5568 0.6192
16.7400 5.5635 0.6333
16.7600 5.5701 0.6360
16.7800 5.5767 0.6219
16.8000 5.5834 0.6359
16.8200 5.5900 0.6353
16.8400 5.5967 0.6253
16.8600 5.6034 0.6380
16.8800 5.6101 0.6356
16.9000 5.6168 0.6378
16.9200 5.6235 0.6366
16.9400 5.6301 0.6351
16.9600 5.6367 0.6373
16.9800 5.6433 0.6395
17.0000 5.6500 0.6332
17.0200 5.6567 0.6404
17.0400 5.6634 0.6353
17.0600 5.6701 0.6346
17.0800 5.6768 0.6447
17.1000 5.6834 0.6361
17.1200 5.6900 0.6360
17.1400 5.6966 0.6502
17.1600 5.7033 0.6375
17.1800 5.7100 0.6365
17.2000 5.7167 0.6469
17.2200 5.7234 0.6403
17.2400 5.7300 0.6380
17.2600 5.7367 0.6494
17.2800 5.7434 0.6396
17.3000 5.7501 0.6456
17.3200 5.7567 0.6472
17.3400 5.7633 0.6397
17.3600 5.7700 0.6519
17.3800 5.7767 0.6438
17.4000 5.7834 0.6438
17.4200 5.7901 0.6530
17.4400 5.7968 0.6467
17.4600 5.8035 0.6449
17.4800 5.8101 0.6561
17.5000 5.8167 0.6441
17.5200 5.8233 0.6459
17.5400 5.8300 0.6553
17.5600 5.8367 0.6471
17.5800 5.8434 0.6446
17.6000 5.8501 0.6587
17.6200 5.8568 0.6456
17.6400 5.8635 0.6506
17.6600 5.8701 0.6623
17.6800 5.8767 0.6447
17.7000 5.8833 0.6519
17.7200 5.8900 0.6642
17.7400 5.8967 0.6446
17.7600 5.9034 0.6571
17.7800 5.9101 0.6615
17.8000 5.9168 0.6482
17.8200 5.9234 0.6582
17.8400 5.9301 0.6563
17.8600 5.9367 0.6516
17.8800 5.9433 0.6626
17.9000 5.9500 0.6598
17.9200 5.9567 0.6545
17.9400 5.9634 0.6626
17.9600 5.9700 0.6590
17.9800 5.9767 0.6590
18.0000 5.9834 0.6606
18.0200 5.9901 0.6563
18.0400 5.9967 0.6607
18.0600 6.0033 0.6689
18.0800 6.0100 0.6546
18.1000 6.0167 0.6651
18.1200 6.0234 0.6607
18.1400 6.0301 0.6601
18.1600 6.0368 0.6721
18.1800 6.0435 0.6578
18.2000 6.0501 0.6543
18.2200 6.0567 0.6807
18.2400 6.0633 0.6623
18.2600 6.0700 0.6597
18.2800 6.0767 0.6822
18.3000 6.0835 0.6579
18.3200 6.0901 0.6592
18.3400 6.0968 0.6845
18.3600 6.1034 0.6626
18.3800 6.1101 0.6583
18.4000 6.1167 0.6696
18.4200 6.1233 0.6671
18.4400 6.1300 0.6693
18.4600 6.1367 0.6769
18.4800 6.1434 0.6668
18.5000 6.1500 0.6686
18.5200 6.1567 0.6760
18.5400 6.1634 0.6665
18.5600 6.1701 0.6770
18.5800 6.1767 0.6707
18.6000 6.1833 0.6674
18.6200 6.1900 0.6750
18.6400 6.1967 0.6802
18.6600 6.2034 0.6654
18.6800 6.2101 0.6739
18.7000 6.2167 0.6787
18.7200 6.2234 0.6684
18.7400 6.2301 0.6783
18.7600 6.2367 0.6826
18.7800 6.2434 0.6709
18.8000 6.2500 0.6768
18.8200 6.2567 0.6843
18.8400 6.2634 0.6758
18.8600 6.2701 0.6788
18.8800 6.2768 0.6878
18.9000 6.2834 0.6702
18.9200 6.2901 0.6802
18.9400 6.2967 0.6899
18.9600 6.3034 0.6693
18.9800 6.3100 0.6829
19.0000 6.3167 0.6892
19.0200 6.3234 0.6671
19.0400 6.3301 0.6829
19.0600 6.3368 0.6988
19.0800 6.3435 0.6637
19.1000 6.3501 0.6835
19.1200 6.3567 0.6982
19.1400 6.3633 0.6720
19.1600 6.3700 0.6855
19.1800 6.3767 0.6949
19.2000 6.3834 0.6692
19.2200 6.3901 0.6913
19.2400 6.3968 0.6886
19.2600 6.4034 0.6750
19.2800 6.4101 0.6943
19.3000 6.4167 0.6860
19.3200 6.4233 0.6778
19.3400 6.4300 0.6990
19.3600 6.4367 0.6867
19.3800 6.4434 0.6774
19.4000 6.4500 0.6994
19.4200 6.4567 0.6917
19.4400 6.4634 0.6783
19.4600 6.4701 0.6953
19.4800 6.4767 0.6946
19.5000 6.4833 0.6875
19.5200 6.4900 0.6964
19.5400 6.4967 0.6905
19.5600 6.5034 0.6897
19.5800 6.5101 0.6942
19.6000 6.5168 0.6927
19.6200 6.5235 0.6916
19.6400 6.5302 0.6943
19.6600 6.5368 0.6901
19.6800 6.5434 0.6956
19.7000 6.5500 0.7004
19.7200 6.5567 0.6953
19.7400 6.5635 0.6896
19.7600 6.5702 0.7016
19.7800 6.5768 0.7009
19.8000 6.5835 0.6906
19.8200 6.5901 0.6974
19.8400 6.5967 0.7083
19.8600 6.6033 0.6883
19.8800 6.6100 0.6957
19.9000 6.6167 0.7118
19.9200 6.6234 0.6915
19.9400 6.6300 0.6951
19.9600 6.6367 0.7131
19.9800 6.6434 0.6933
20.0000 6.6501 0.6981
20.0200 6.6567 0.7123
20.0400 6.6633 0.6935
20.0600 6.6699 0.7006
20.0800 6.6766 0.7119
20.1000 6.6833 0.6969
20.1200 6.6900 0.7010
20.1400 6.6967 0.7074
20.1600 6.7034 0.6962
20.1800 6.7101 0.7078
20.2000 6.7167 0.7092
20.2200 6.7233 0.7005
20.2400 6.7300 0.7075
20.2600 6.7367 0.7089
20.2800 6.7434 0.7015
20.3000 6.7501 0.7135
20.3200 6.7568 0.7047
20.3400 6.7634 0.7053
20.3600 6.7701 0.7132
20.3800 6.7768 0.7067
20.4000 6.7834 0.7063
20.4200 6.7900 0.7129
20.4400 6.7967 0.7052
20.4600 6.8034 0.7104
20.4800 6.8101 0.7174
20.5000 6.8168 0.7080
20.5200 6.8235 0.7108
20.5400 6.8301 0.7144
20.5600 6.8367 0.7123
20.5800 6.8433 0.7112
20.6000 6.8500 0.7135
20.6200 6.8567 0.7208
20.6400 6.8634 0.7153
20.6600 6.8701 0.7100
20.6800 6.8768 0.7235
20.7000 6.8834 0.7155
20.7200 6.8901 0.7053
20.7400 6.8967 0.7193
20.7600 6.9033 0.7241
20.7800 6.9099 0.7077
20.8000 6.9166 0.7233
20.8200 6.9234 0.7180
20.8400 6.9300 0.7109
20.8600 6.9367 0.7254
20.8800 6.9434 0.7190
20.9000 6.9501 0.7135
20.9200 6.9568 0.7248
20.9400 6.9634 0.7130
20.9600 6.9700 0.7183
20.9800 6.9767 0.7322
21.0000 6.9834 0.7205
21.0200 6.9901 0.7117
21.0400 6.9967 0.7308
21.0600 7.0035 0.7200
21.0800 7.0101 0.7160
21.1000 7.0168 0.7329
21.1200 7.0233 0.7168
21.1400 7.0300 0.7189
21.1600 7.0367 0.7323
21.1800 7.0434 0.7206
21.2000 7.0501 0.7197
21.2200 7.0568 0.7282
21.2400 7.0635 0.7243
21.2600 7.0701 0.7262
21.2800 7.0767 0.7274
21.3000 7.0834 0.7286
21.3200 7.0900 0.7233
21.3400 7.0967 0.7334
21.3600 7.1034 0.7283
21.3800 7.1101 0.7249
21.4000 7.1167 0.7302
21.4200 7.1234 0.7322
21.4400 7.1301 0.7242
21.4600 7.1367 0.7348
21.4800 7.1433 0.7307
21.5000 7.1499 0.7271
21.5200 7.1566 0.7330
21.5400 7.1633 0.7325
21.5600 7.1700 0.7290
21.5800 7.1767 0.7348
21.6000 7.1834 0.7311
21.6200 7.1901 0.7239
21.6400 7.1967 0.7356
21.6600 7.2033 0.7369
21.6800 7.2100 0.7334
21.7000 7.2167 0.7334
21.7200 7.2234 0.7345
21.7400 7.2301 0.7329
21.7600 7.2368 0.7363
21.7800 7.2435 0.7343
21.8000 7.2501 0.7376
21.8200 7.2568 0.7350
21.8400 7.2634 0.7362
21.8600 7.2700 0.7375
21.8800 7.2767 0.7388
21.9000 7.2834 0.7366
21.9200 7.2901 0.7360
21.9400 7.2968 0.7379
21.9600 7.3034 0.7405
21.9800 7.3101 0.7387
22.0000 7.3168 0.7404
22.0200 7.3233 0.7405
22.0400 7.3300 0.7421
22.0600 7.3366 0.7422
22.0800 7.3433 0.7402
22.1000 7.3501 0.7440
22.1200 7.3567 0.7416
22.1400 7.3634 0.7425
22.1600 7.3701 0.7428
22.1800 7.3768 0.7438
22.2000 7.3833 0.7434
22.2200 7.3900 0.7432
22.2400 7.3966 0.7443
22.2600 7.4034 0.7486
22.2800 7.4101 0.7417
22.3000 7.4167 0.7435
22.3200 7.4234 0.7479
22.3400 7.4301 0.7490
22.3600 7.4367 0.7383
22.3800 7.4434 0.7482
22.4000 7.4500 0.7535
22.4200 7.4567 0.7503
22.4400 7.4634 0.7454
22.4600 7.4701 0.7502
22.4800 7.4768 0.7418
22.5000 7.4835 0.7560
22.5200 7.4901 0.7568
22.5400 7.4968 0.7333
22.5600 7.5034 0.7594
22.5800 7.5100 0.7580
22.6000 7.5167 0.7341
22.6200 7.5234 0.7609
22.6400 7.5301 0.7566
22.6600 7.5368 0.7391
22.6800 7.5435 0.7636
22.7000 7.5502 0.7485
22.7200 7.5568 0.7447
22.7400 7.5634 0.7683
22.7600 7.5700 0.7547
22.7800 7.5766 0.7436
22.8000 7.5834 0.7697
22.8200 7.5901 0.7521
22.8400 7.5967 0.7457
22.8600 7.6034 0.7644
22.8800 7.6101 0.7561
22.9000 7.6167 0.7481
22.9200 7.6234 0.7637
22.9400 7.6300 0.7616
22.9600 7.6366 0.7524
22.9800 7.6433 0.7616
23.0000 7.6500 0.7651
23.0200 7.6567 0.7443
23.0400 7.6634 0.7714
23.0600 7.6701 0.7649
23.0800 7.6767 0.7469
23.1000 7.6834 0.7699
23.1200 7.6900 0.7627
23.1400 7.6967 0.7503
23.1600 7.7034 0.7659
23.1800 7.7101 0.7680
23.2000 7.7168 0.7530
23.2200 7.7234 0.7694
23.2400 7.7301 0.7606
23.2600 7.7368 0.7569
23.2800 7.7434 0.7766
23.3000 7.7500 0.7640
23.3200 7.7567 0.7518
23.3400 7.7634 0.7707
23.3600 7.7701 0.7690
23.3800 7.7768 0.7642
23.4000 7.7834 0.7690
23.4200 7.7901 0.7624
23.4400 7.7968 0.7640
23.4600 7.8034 0.7800
23.4800 7.8100 0.7656
23.5000 7.8167 0.7570
23.5200 7.8234 0.7799
23.5400 7.8301 0.7724
23.5600 7.8367 0.7580
23.5800 7.8434 0.7735
23.6000 7.8501 0.7782
23.6200 7.8568 0.7538
23.6400 7.8634 0.7710
23.6600 7.8699 0.7803
23.6800 7.8766 0.7678
23.7000 7.8833 0.7787
23.7200 7.8900 0.7655
23.7400 7.8967 0.7662
23.7600 7.9034 0.7928
23.7800 7.9101 0.7613
23.8000 7.9167 0.7625
23.8200 7.9233 0.7916
23.8400 7.9300 0.7681
23.8600 7.9366 0.7628
23.8800 7.9433 0.7911
23.9000 7.9501 0.7651
23.9200 7.9568 0.7739
23.9400 7.9634 0.7908
23.9600 7.9701 0.7656
23.9800 7.9768 0.7785
24.0000 7.9834 0.7852
24.0200 7.9901 0.7643
24.0400 7.9967 0.7921
24.0600 8.0034 0.7810
24.0800 8.0101 0.7683
24.1000 8.0168 0.7854
24.1200 8.0235 0.7768
24.1400 8.0301 0.7768
24.1600 8.0368 0.7865
24.1800 8.0434 0.7757
24.2000 8.0500 0.7754
24.2200 8.0566 0.7909
24.2400 8.0633 0.7774
24.2600 8.0700 0.7829
24.2800 8.0767 0.7847
24.3000 8.0834 0.7746
24.3200 8.0901 0.7879
24.3400 8.0967 0.7800
24.3600 8.1034 0.7761
24.3800 8.1100 0.7954
24.4000 8.1166 0.7767
24.4200 8.1234 0.7827
24.4400 8.1301 0.7932
24.4600 8.1368 0.7774
24.4800 8.1434 0.7805
24.5000 8.1501 0.7927
24.5200 8.1568 0.7769
24.5400 8.1634 0.7875
24.5600 8.1700 0.7922
24.5800 8.1767 0.7804
24.6000 8.1834 0.7866
24.6200 8.1901 0.7919
24.6400 8.1968 0.7831
24.6600 8.2034 0.7927
24.6800 8.2101 0.7894
24.7000 8.2168 0.7843
24.7200 8.2234 0.7919
24.7400 8.2300 0.7887
24.7600 8.2366 0.7866
24.7800 8.2434 0.7911
24.8000 8.2501 0.7921
24.8200 8.2568 0.7903
24.8400 8.2635 0.7907
24.8600 8.2701 0.7894
24.8800 8.2768 0.7952
24.9000 8.2834 0.7913
24.9200 8.2900 0.7895
24.9400 8.2966 0.7958
24.9600 8.3033 0.7968
24.9800 8.3101 0.7892
25.0000 8.3167 0.7986
25.0200 8.3234 0.7904
25.0400 8.3301 0.7981
25.0600 8.3367 0.7986
25.0800 8.3434 0.7911
25.1000 8.3500 0.7977
25.1200 8.3566 0.8018
25.1400 8.3633 0.7861
25.1600 8.3700 0.8025
25.1800 8.3767 0.8028
25.2000 8.3834 0.7840
25.2200 8.3901 0.8066
25.2400 8.3968 0.8019
25.2600 8.4034 0.7827
25.2800 8.4100 0.8069
25.3000 8.4167 0.8049
25.3200 8.4234 0.7892
25.3400 8.4301 0.8053
25.3600 8.4368 0.7999
25.3800 8.4435 0.7943
25.4000 8.4501 0.8102
25.4200 8.4568 0.8015
25.4400 8.4634 0.7885
25.4600 8.4700 0.8142
25.4800 8.4767 0.8027
25.5000 8.4834 0.7923
25.5200 8.4901 0.8151
25.5400 8.4968 0.8043
25.5600 8.5034 0.7927
25.5800 8.5101 0.8144
25.6000 8.5168 0.8031
25.6200 8.5234 0.7993
25.6400 8.5300 0.8071
25.6600 8.5366 0.8065
25.6800 8.5433 0.8090
25.7000 8.5500 0.8072
25.7200 8.5567 0.8000
25.7400 8.5634 0.8131
25.7600 8.5701 0.8155
25.7800 8.5768 0.7986
25.8000 8.5834 0.8073
25.8200 8.5900 0.8157
25.8400 8.5966 0.8031
25.8600 8.6033 0.8056
25.8800 8.6100 0.8134
25.9000 8.6167 0.8075
25.9200 8.6234 0.8101
25.9400 8.6301 0.8087
25.9600 8.6368 0.8169
25.9800 8.6434 0.8151
26.0000 8.6500 0.8069
26.0200 8.6567 0.8140
26.0400 8.6634 0.8151
26.0600 8.6701 0.8048
26.0800 8.6767 0.8205
26.1000 8.6834 0.8106
26.1200 8.6901 0.8067
26.1400 8.6968 0.8161
26.1600 8.7035 0.8122
26.1800 8.7101 0.8090
26.2000 8.7167 0.8169
26.2200 8.7233 0.8176
26.2400 8.7301 0.8174
26.2600 8.7368 0.8135
26.2800 8.7435 0.8128
26.3000 8.7501 0.8204
26.3200 8.7568 0.8099
26.3400 8.7634 0.8166
26.3600 8.7700 0.8179
26.3800 8.7766 0.8200
26.4000 8.7833 0.8139
26.4200 8.7901 0.8163
26.4400 8.7968 0.8218
26.4600 8.8034 0.8188
26.4800 8.8101 0.8135
26.5000 8.8168 0.8221
26.5200 8.8234 0.8226
26.5400 8.8300 0.8145
26.5600 8.8367 0.8177
26.5800 8.8433 0.8274
26.6000 8.8500 0.8131
26.6200 8.8567 0.8255
26.6400 8.8634 0.8230
26.6600 8.8700 0.8130
26.6800 8.8768 0.8391
26.7000 8.8834 0.8230
26.7200 8.8900 0.8014
26.7400 8.8967 0.8402
26.7600 8.9033 0.8279
26.7800 8.9100 0.8046
26.8000 8.9168 0.8389
26.8200 8.9234 0.8204
26.8400 8.9301 0.8153
26.8600 8.9368 0.8409
26.8800 8.9434 0.8127
26.9000 8.9500 0.8229
26.9200 8.9566 0.8456
26.9400 8.9633 0.8134
26.9600 8.9701 0.8181
26.9800 8.9768 0.8416
27.0000 8.9835 0.8220
27.0200 8.9901 0.8191
27.0400 8.9968 0.8416
27.0600 9.0034 0.8210
27.0800 9.0101 0.8296
27.1000 9.0167 0.8349
27.1200 9.0233 0.8253
27.1400 9.0300 0.8277
27.1600 9.0367 0.8350
27.1800 9.0434 0.8280
27.2000 9.0501 0.8290
27.2200 9.0568 0.8331
27.2400 9.0634 0.8297
27.2600 9.0700 0.8268
27.2800 9.0766 0.8323
27.3000 9.0833 0.8400
27.3200 9.0900 0.8318
27.3400 9.0967 0.8255
27.3600 9.1034 0.8381
27.3800 9.1101 0.8338
27.4000 9.1168 0.8335
27.4200 9.1234 0.8343
27.4400 9.1300 0.8230
27.4600 9.1367 0.8479
27.4800 9.1433 0.8399
27.5000 9.1501 0.8189
27.5200 9.1568 0.8437
27.5400 9.1635 0.8431
27.5600 9.1701 0.8224
27.5800 9.1768 0.8464
27.6000 9.1834 0.8397
27.6200 9.1900 0.8254
27.6400 9.1966 0.8480
27.6600 9.2033 0.8419
27.6800 9.2100 0.8295
27.7000 9.2167 0.8536
27.7200 9.2234 0.8354
27.7400 9.2301 0.8280
27.7600 9.2368 0.8539
27.7800 9.2435 0.8384
27.8000 9.2501 0.8293
27.8200 9.2567 0.8515
27.8400 9.2633 0.8400
27.8600 9.2700 0.8353
27.8800 9.2767 0.8504
27.9000 9.2834 0.8398
27.9200 9.2901 0.8436
27.9400 9.2968 0.8460
27.9600 9.3034 0.8395
27.9800 9.3100 0.8402
28.0000 9.3166 0.8461
28.0200 9.3233 0.8430
28.0400 9.3300 0.8404
28.0600 9.3367 0.8441
28.0800 9.3434 0.8463
28.1000 9.3501 0.8380
28.1200 9.3567 0.8499
28.1400 9.3634 0.8471
28.1600 9.3700 0.8412
28.1800 9.3766 0.8467
28.2000 9.3833 0.8499
28.2200 9.3900 0.8432
28.2400 9.3967 0.8513
28.2600 9.4034 0.8537
28.2800 9.4101 0.8373
28.3000 9.4168 0.8496
28.3200 9.4235 0.8547
28.3400 9.4301 0.8401
28.3600 9.4367 0.8499
28.3800 9.4433 0.8555
28.4000 9.4500 0.8429
28.4200 9.4567 0.8541
28.4400 9.4634 0.8523
28.4600 9.4701 0.8393
28.4800 9.4768 0.8567
28.5000 9.4834 0.8575
28.5200 9.4900 0.8370
28.5400 9.4966 0.8597
28.5600 9.5033 0.8646
28.5800 9.5100 0.8426
28.6000 9.5167 0.8537
28.6200 9.5234 0.8595
28.6400 9.5300 0.8455
28.6600 9.5367 0.8603
28.6800 9.5434 0.8509
28.7000 9.5500 0.8492
28.7200 9.5566 0.8647
28.7400 9.5633 0.8548
28.7600 9.5700 0.8486
28.7800 9.5767 0.8595
28.8000 9.5834 0.8566
28.8200 9.5901 0.8539
28.8400 9.5968 0.8542
28.8600 9.6035 0.8579
28.8800 9.6101 0.8604
28.9000 9.6167 0.8596
28.9200 9.6233 0.8520
28.9400 9.6300 0.8580
28.9600 9.6367 0.8616
28.9800 9.6434 0.8557
29.0000 9.6501 0.8587
29.0200 9.6568 0.8584
29.0400 9.6634 0.8610
29.0600 9.6701 0.8616
29.0800 9.6767 0.8637
29.1000 9.6833 0.8590
29.1200 9.6900 0.8623
29.1400 9.6967 0.8692
29.1600 9.7034 0.8557
29.1800 9.7101 0.8587
29.2000 9.7168 0.8683
29.2200 9.7235 0.8590
29.2400 9.7301 0.8616
29.2600 9.7367 0.8651
29.2800 9.7433 0.8648
29.3000 9.7500 0.8616
29.3200 9.7567 0.8678
29.3400 9.7634 0.8611
29.3600 9.7701 0.8613
29.3800 9.7768 0.8689
29.4000 9.7835 0.8656
29.4200 9.7901 0.8614
29.4400 9.7966 0.8688
29.4600 9.8033 0.8701
29.4800 9.8100 0.8652
29.5000 9.8167 0.8687
29.5200 9.8234 0.8660
29.5400 9.8301 0.8654
29.5600 9.8367 0.8707
29.5800 9.8434 0.8679
29.6000 9.8500 0.8676
29.6200 9.8567 0.8701
29.6400 9.8633 0.8697
29.6600 9.8700 0.8738
29.6800 9.8767 0.8643
29.7000 9.8834 0.8717
29.7200 9.8901 0.8711
29.7400 9.8968 0.8718
29.7600 9.9035 0.8713
29.7800 9.9101 0.8745
29.8000 9.9167 0.8686
29.8200 9.9233 0.8694
29.8400 9.9300 0.8748
29.8600 9.9367 0.8712
29.8800 9.9434 0.8723
29.9000 9.9501 0.8747
29.9200 9.9568 0.8702
29.9400 9.9635 0.8736
29.9600 9.9701 0.8732
29.9800 9.9767 0.8739
30.0000 9.9833 0.8794
30.0200 9.9900 0.8713
30.0400 9.9967 0.8737
30.0600 10.0034 0.8791
30.0800 10.0101 0.8741
30.1000 10.0168 0.8681
30.1200 10.0234 0.8844
30.1400 10.0300 0.8802
30.1600 10.0366 0.8750
30.1800 10.0433 0.8818
30.2000 10.0500 0.8788
30.2200 10.0567 0.8713
30.2400 10.0634 0.8878
30.2600 10.0700 0.8761
30.2800 10.0767 0.8764
30.3000 10.0834 0.8865
30.3200 10.0901 0.8747
30.3400 10.0967 0.8746
30.3600 10.1033 0.8907
30.3800 10.1100 0.8772
30.4000 10.1167 0.8746
30.4200 10.1234 0.8881
30.4400 10.1301 0.8795
30.4600 10.1368 0.8813
30.4800 10.1435 0.8848
30.5000 10.1501 0.8807
30.5200 10.1567 0.8789
30.5400 10.1633 0.8863
30.5600 10.1700 0.8883
30.5800 10.1768 0.8805
30.6000 10.1835 0.8846
30.6200 10.1901 0.8906
30.6400 10.1968 0.8750
30.6600 10.2034 0.8851
30.6800 10.2101 0.8949
30.7000 10.2167 0.8769
30.7200 10.2233 0.8836
30.7400 10.2300 0.9018
30.7600 10.2367 0.8718
30.7800 10.2434 0.8828
30.8000 10.2501 0.8998
30.8200 10.2567 0.8771
30.8400 10.2634 0.8838
30.8600 10.2701 0.9014
30.8800 10.2767 0.8722
30.9000 10.2833 0.8868
30.9200 10.2900 0.9049
30.9400 10.2967 0.8776
30.9600 10.3034 0.8884
30.9800 10.3101 0.8975
31.0000 10.3168 0.8809
31.0200 10.3235 0.8931
31.0400 10.3301 0.8943
31.0600 10.3367 0.8807
31.0800 10.3433 0.8978
31.1000 10.3500 0.8960
31.1200 10.3567 0.8828
31.1400 10.3634 0.8961
31.1600 10.3701 0.9005
31.1800 10.3768 0.8804
31.2000 10.3835 0.9008
31.2200 10.3901 0.8953
31.2400 10.3967 0.8815
31.2600 10.4034 0.9011
31.2800 10.4100 0.8955
31.3000 10.4167 0.8875
31.3200 10.4234 0.9011
31.3400 10.4301 0.8944
31.3600 10.4368 0.8918
31.3800 10.4435 0.8936
31.4000 10.4501 0.9001
31.4200 10.4567 0.8972
31.4400 10.4633 0.8943
31.4600 10.4700 0.9007
31.4800 10.4767 0.8954
31.5000 10.4834 0.8897
31.5200 10.4901 0.9042
31.5400 10.4968 0.8976
31.5600 10.5034 0.8919
31.5800 10.5101 0.9069
31.6000 10.5167 0.8935
31.6200 10.5233 0.8927
31.6400 10.5299 0.9091
31.6600 10.5367 0.8984
31.6800 10.5434 0.8942
31.7000 10.5500 0.9060
31.7200 10.5567 0.8974
31.7400 10.5634 0.8994
31.7600 10.5701 0.8995
31.7800 10.5767 0.9040
31.8000 10.5833 0.9024
31.8200 10.5900 0.9036
31.8400 10.5967 0.8989
31.8600 10.6034 0.9020
31.8800 10.6101 0.9067
31.9000 10.6168 0.9085
31.9200 10.6235 0.8998
31.9400 10.6301 0.9009
31.9600 10.6367 0.9105
31.9800 10.6433 0.9003
32.0000 10.6500 0.9031
32.0200 10.6567 0.9111
32.0400 10.6634 0.8970
32.0600 10.6701 0.9085
32.0800 10.6768 0.9084
32.1000 10.6835 0.9005
32.1200 10.6901 0.9114
32.1400 10.6967 0.9081
32.1600 10.7033 0.9027
32.1800 10.7100 0.9103
32.2000 10.7167 0.9153
32.2200 10.7234 0.8986
32.2400 10.7301 0.9170
32.2600 10.7368 0.9089
32.2800 10.7435 0.8988
32.3000 10.7501 0.9184
32.3200 10.7567 0.9033
32.3400 10.7633 0.9039
32.3600 10.7700 0.9249
32.3800 10.7767 0.9047
32.4000 10.7834 0.9021
32.4200 10.7901 0.9218
32.4400 10.7967 0.9114
32.4600 10.8034 0.8971
32.4800 10.8100 0.9227
32.5000 10.8167 0.9114
32.5200 10.8233 0.9070
32.5400 10.8300 0.9238
32.5600 10.8367 0.9094
32.5800 10.8434 0.9068
32.6000 10.8501 0.9222
32.6200 10.8568 0.9107
32.6400 10.8635 0.9034
32.6600 10.8701 0.9287
32.6800 10.8767 0.9113
32.7000 10.8833 0.9064
32.7200 10.8900 0.9257
32.7400 10.8967 0.9156
32.7600 10.9035 0.9048
32.7800 10.9101 0.9268
32.8000 10.9168 0.9135
32.8200 10.9234 0.9127
32.8400 10.9301 0.9214
32.8600 10.9367 0.9160
32.8800 10.9433 0.9143
32.9000 10.9500 0.9253
32.9200 10.9567 0.9144
32.9400 10.9634 0.9163
32.9600 10.9700 0.9239
32.9800 10.9767 0.9175
33.0000 10.9834 0.9218
33.0200 10.9901 0.9223
33.0400 10.9967 0.9113
33.0600 11.0033 0.9206
33.0800 11.0100 0.9308
33.1000 11.0167 0.9167
33.1200 11.0234 0.9176
33.1400 11.0301 0.9299
33.1600 11.0367 0.9151
33.1800 11.0434 0.9193
33.2000 11.0501 0.9287
33.2200 11.0567 0.9184
33.2400 11.0633 0.9264
33.2600 11.0700 0.9220
33.2800 11.0767 0.9163
33.3000 11.0834 0.9292
33.3200 11.0901 0.9308
33.3400 11.0968 0.9151
33.3600 11.1035 0.9288
33.3800 11.1101 0.9264
33.4000 11.1168 0.9201
33.4200 11.1234 0.9269
33.4400 11.1300 0.9263
33.4600 11.1367 0.9258
33.4800 11.1434 0.9278
33.5000 11.1501 0.9229
33.5200 11.1568 0.9268
33.5400 11.1635 0.9314
33.5600 11.1701 0.9216
33.5800 11.1767 0.9240
33.6000 11.1833 0.9312
33.6200 11.1900 0.9277
33.6400 11.1967 0.9305
33.6600 11.2034 0.9303
33.6800 11.2101 0.9230
33.7000 11.2168 0.9369
33.7200 11.2234 0.9303
33.7400 11.2301 0.9250
33.7600 11.2367 0.9334
33.7800 11.2433 0.9282
33.8000 11.2499 0.9311
33.8200 11.2566 0.9381
33.8400 11.2633 0.9221
33.8600 11.2700 0.9331
33.8800 11.2767 0.9433
33.9000 11.2834 0.9240
33.9200 11.2901 0.9285
33.9400 11.2967 0.9434
33.9600 11.3033 0.9305
33.9800 11.3100 0.9325
34.0000 11.3167 0.9393
34.0200 11.3234 0.9314
34.0400 11.3301 0.9345
34.0600 11.3368 0.9405
34.0800 11.3435 0.9280
34.1000 11.3502 0.9362
34.1200 11.3568 0.9406
34.1400 11.3634 0.9269
34.1600 11.3700 0.9400
34.1800 11.3767 0.9411
34.2000 11.3834 0.9339
34.2200 11.3901 0.9340
34.2400 11.3968 0.9425
34.2600 11.4035 0.9382
34.2800 11.4101 0.9362
34.3000 11.4167 0.9399
34.3200 11.4233 0.9438
34.3400 11.4300 0.9363
34.3600 11.4367 0.9414
34.3800 11.4434 0.9367
34.4000 11.4500 0.9424
34.4200 11.4567 0.9426
34.4400 11.4634 0.9348
34.4600 11.4701 0.9424
34.4800 11.4767 0.9492
34.5000 11.4833 0.9359
34.5200 11.4899 0.9439
34.5400 11.4966 0.9471
34.5600 11.5033 0.9404
34.5800 11.5100 0.9391
34.6000 11.5167 0.9479
34.6200 11.5234 0.9416
34.6400 11.5301 0.9373
34.6600 11.5367 0.9430
34.6800 11.5433 0.9458
34.7000 11.5500 0.9442
34.7200 11.5567 0.9456
34.7400 11.5634 0.9463
34.7600 11.5701 0.9429
34.7800 11.5768 0.9450
34.8000 11.5835 0.9466
34.8200 11.5901 0.9475
34.8400 11.5968 0.9458
34.8600 11.6034 0.9493
34.8800 11.6100 0.9438
34.9000 11.6167 0.9483
34.9200 11.6234 0.9507
34.9400 11.6301 0.9456
34.9600 11.6368 0.9480
34.9800 11.6435 0.9500
35.0000 11.6501 0.9446
35.0200 11.6568 0.9491
35.0400 11.6633 0.9476
35.0600 11.6699 0.9507
35.0800 11.6766 0.9536
35.1000 11.6834 0.9498
35.1200 11.6901 0.9481
35.1400 11.6967 0.9526
35.1600 11.7034 0.9558
35.1800 11.7101 0.9498
35.2000 11.7167 0.9483
35.2200 11.7233 0.9521
35.2400 11.7300 0.9519
35.2600 11.7366 0.9484
35.2800 11.7433 0.9538
35.3000 11.7500 0.9498
35.3200 11.7567 0.9558
35.3400 11.7634 0.9531
35.3600 11.7701 0.9478
35.3800 11.7767 0.9548
35.4000 11.7834 0.9592
35.4200 11.7900 0.9455
35.4400 11.7967 0.9594
35.4600 11.8034 0.9600
35.4800 11.8101 0.9456
35.5000 11.8168 0.9602
35.5200 11.8235 0.9637
35.5400 11.8302 0.9451
35.5600 11.8368 0.9607
35.5800 11.8434 0.9603
35.6000 11.8500 0.9515
35.6200 11.8567 0.9644
35.6400 11.8634 0.9597
35.6600 11.8701 0.9493
35.6800 11.8768 0.9674
35.7000 11.8835 0.9626
35.7200 11.8901 0.9474
35.7400 11.8968 0.9659
35.7600 11.9034 0.9630
35.7800 11.9100 0.9521
35.8000 11.9167 0.9631
35.8200 11.9234 0.9685
35.8400 11.9301 0.9480
35.8600 11.9367 0.9613
35.8800 11.9434 0.9682
35.9000 11.9501 0.9514
35.9200 11.9567 0.9669
35.9400 11.9633 0.9644
35.9600 11.9699 0.9521
35.9800 11.9766 0.9784
36.0000 11.9833 0.9597
36.0200 11.9900 0.9553
36.0400 11.9967 0.9756
36.0600 12.0034 0.9591
36.0800 12.0101 0.9550
36.1000 12.0168 0.9713
36.1200 12.0234 0.9554
36.1400 12.0300 0.9662
36.1600 12.0367 0.9749
36.1800 12.0434 0.9574
36.2000 12.0501 0.9690
36.2200 12.0568 0.9694
36.2400 12.0635 0.9598
36.2600 12.0702 0.9734
36.2800 12.0768 0.9648
36.3000 12.0834 0.9615
36.3200 12.0900 0.9751
36.3400 12.0967 0.9627
36.3600 12.1034 0.9636
36.3800 12.1101 0.9772
36.4000 12.1168 0.9629
36.4200 12.1234 0.9688
36.4400 12.1301 0.9770
36.4600 12.1367 0.9636
36.4800 12.1433 0.9776
36.5000 12.1499 0.9722
36.5200 12.1566 0.9632
36.5400 12.1633 0.9783
36.5600 12.1701 0.9688
36.5800 12.1767 0.9609
36.6000 12.1834 0.9880
36.6200 12.1901 0.9672
36.6400 12.1967 0.9616
36.6600 12.2034 0.9840
36.6800 12.2100 0.9724
36.7000 12.2166 0.9677
36.7200 12.2233 0.9830
36.7400 12.2301 0.9680
36.7600 12.2368 0.9696
36.7800 12.2434 0.9798
36.8000 12.2501 0.9670
36.8200 12.2567 0.9789
36.8400 12.2634 0.9751
36.8600 12.2700 0.9679
36.8800 12.2767 0.9799
36.9000 12.2834 0.9779
36.9200 12.2901 0.9721
36.9400 12.2968 0.9780
36.9600 12.3034 0.9739
36.9800 12.3101 0.9761
37.0000 12.3168 0.9780
37.0200 12.3234 0.9765
37.0400 12.3300 0.9760
37.0600 12.3367 0.9788
37.0800 12.3434 0.9807
37.1000 12.3501 0.9818
37.1200 12.3568 0.9725
37.1400 12.3635 0.9834
37.1600 12.3702 0.9825
37.1800 12.3768 0.9711
37.2000 12.3834 0.9834
37.2200 12.3900 0.9794
37.2400 12.3966 0.9769
37.2600 12.4033 0.9850
37.2800 12.4100 0.9795
37.3000 12.4167 0.9765
37.3200 12.4234 0.9876
37.3400 12.4301 0.9770
37.3600 12.4367 0.9814
37.3800 12.4434 0.9895
37.4000 12.4500 0.9743
37.4200 12.4566 0.9809
37.4400 12.4633 0.9943
37.4600 12.4700 0.9754
37.4800 12.4767 0.9845
37.5000 12.4834 0.9858
37.5200 12.4901 0.9769
37.5400 12.4967 0.9921
37.5600 12.5034 0.9855
37.5800 12.5100 0.9756
37.6000 12.5167 0.9976
37.6200 12.5234 0.9825
37.6400 12.5301 0.9773
37.6600 12.5368 0.9943
37.6800 12.5435 0.9828
37.7000 12.5502 0.9814
37.7200 12.5568 0.9952
37.7400 12.5634 0.9795
37.7600 12.5700 0.9915
37.7800 12.5766 0.9975
37.8000 12.5834 0.9737
37.8200 12.5901 0.9929
37.8400 12.5968 0.9952
37.8600 12.6035 0.9724
37.8800 12.6101 0.9972
37.9000 12.6168 0.9995
37.9200 12.6234 0.9771
37.9400 12.6300 1.0009
37.9600 12.6367 0.9944
37.9800 12.6434 0.9823
38.0000 12.6501 0.9986
38.0200 12.6567 0.9891
38.0400 12.6634 0.9785
38.0600 12.6701 1.0070
38.0800 12.6768 0.9897
38.1000 12.6834 0.9786
38.1200 12.6900 1.0008
38.1400 12.6966 0.9895
38.1600 12.7033 0.9911
38.1800 12.7100 1.0039
38.2000 12.7167 0.9839
38.2200 12.7234 0.9962
38.2400 12.7301 1.0009
38.2600 12.7367 0.9808
38.2800 12.7433 0.9988
38.3000 12.7500 1.0051
38.3200 12.7566 0.9833
38.3400 12.7633 0.9958
38.3600 12.7701 1.0017
38.3800 12.7768 0.9893
38.4000 12.7835 1.0024
38.4200 12.7901 0.9948
38.4400 12.7968 0.9947
38.4600 12.8034 0.9991
38.4800 12.8101 0.9972
38.5000 12.8167 0.9964
38.5200 12.8234 1.0029
38.5400 12.8301 0.9979
38.5600 12.8368 0.9992
38.5800 12.8435 0.9959
38.6000 12.8501 0.9985
38.6200 12.8568 1.0003
38.6400 12.8634 0.9951
38.6600 12.8700 0.9976
38.6800 12.8766 1.0105
38.7000 12.8833 0.9944
38.7200 12.8900 1.0018
38.7400 12.8967 1.0036
38.7600 12.9034 0.9959
38.7800 12.9101 1.0084
38.8000 12.9168 0.9972
38.8200 12.9234 0.9949
38.8400 12.9300 1.0086
38.8600 12.9366 0.9996
38.8800 12.9433 0.9955
38.9000 12.9501 1.0149
38.9200 12.9567 1.0003
38.9400 12.9634 0.9976
38.9600 12.9701 1.0131
38.9800 12.9768 1.0010
39.0000 12.9834 0.9967
39.0200 12.9900 1.0209
39.0400 12.9967 0.9962
39.0600 13.0034 0.9978
39.0800 13.0101 1.0223
39.1000 13.0167 1.0007
39.1200 13.0234 1.0000
39.1400 13.0301 1.0188
39.1600 13.0368 0.9984
39.1800 13.0434 1.0048
39.2000 13.0500 1.0172
39.2200 13.0566 0.9984
39.2400 13.0633 1.0086
39.2600 13.0701 1.0151
39.2800 13.0768 0.9982
39.3000 13.0835 1.0132
39.3200 13.0901 1.0144
39.3400 13.0968 1.0011
39.3600 13.1034 1.0110
39.3800 13.1100 1.0145
39.4000 13.1166 1.0096
39.4200 13.1233 1.0113
39.4400 13.1301 1.0140
39.4600 13.1368 1.0076
39.4800 13.1434 1.0144
39.5000 13.1501 1.0110
39.5200 13.1567 1.0093
39.5400 13.1634 1.0164
39.5600 13.1700 1.0122
39.5800 13.1766 1.0104
39.6000 13.1833 1.0129
39.6200 13.1900 1.0158
39.6400 13.1967 1.0128
39.6600 13.2034 1.0072
39.6800 13.2101 1.0194
39.7000 13.2168 1.0111
39.7200 13.2234 1.0138
39.7400 13.2300 1.0149
39.7600 13.2367 1.0177
39.7800 13.2433 1.0179
39.8000 13.2501 1.0159
39.8200 13.2568 1.0137
39.8400 13.2635 1.0147
39.8600 13.2701 1.0235
39.8800 13.2768 1.0103
39.9000 13.2834 1.0163
39.9200 13.2900 1.0246
39.9400 13.2967 1.0146
39.9600 13.3034 1.0167
39.9800 13.3101 1.0216
40.0000 13.3168 1.0150
40.0200 13.3235 1.0206
40.0400 13.3301 1.0243
40.0600 13.3368 1.0135
40.0800 13.3434 1.0158
40.1000 13.3500 1.0262
40.1200 13.3566 1.0160
40.1400 13.3633 1.0234
40.1600 13.3700 1.0211
40.1800 13.3767 1.0194
40.2000 13.3834 1.0237
40.2200 13.3901 1.0217
40.2400 13.3968 1.0162
40.2600 13.4034 1.0277
40.2800 13.4100 1.0202
40.3000 13.4166 1.0236
40.3200 13.4233 1.0287
40.3400 13.4300 1.0232
40.3600 13.4367 1.0260
40.3800 13.4434 1.0225
40.4000 13.4501 1.0237
40.4200 13.4567 1.0260
40.4400 13.4634 1.0224
40.4600 13.4700 1.0208
40.4800 13.4767 1.0269
40.5000 13.4834 1.0263
40.5200 13.4901 1.0242
40.5400 13.4968 1.0284
40.5600 13.5034 1.0240
40.5800 13.5101 1.0238
40.6000 13.5168 1.0323
40.6200 13.5235 1.0182
40.6400 13.5301 1.0316
40.6600 13.5367 1.0329
40.6800 13.5433 1.0231
40.7000 13.5501 1.0273
40.7200 13.5568 1.0321
40.7400 13.5635 1.0266
40.7600 13.5701 1.0299
40.7800 13.5768 1.0316
40.8000 13.5834 1.0261
40.8200 13.5900 1.0313
40.8400 13.5966 1.0318
40.8600 13.6033 1.0283
40.8800 13.6100 1.0328
40.9000 13.6168 1.0303
40.9200 13.6234 1.0262
40.9400 13.6301 1.0350
40.9600 13.6368 1.0297
40.9800 13.6434 1.0263
41.0000 13.6500 1.0354
41.0200 13.6566 1.0351
41.0400 13.6633 1.0284
41.0600 13.6700 1.0345
41.0800 13.6767 1.0339
41.1000 13.6834 1.0328
41.1200 13.6901 1.0380
41.1400 13.6967 1.0334
41.1600 13.7034 1.0321
41.1800 13.7101 1.0363
41.2000 13.7167 1.0329
41.2200 13.7233 1.0358
41.2400 13.7300 1.0393
41.2600 13.7368 1.0396
41.2800 13.7435 1.0298
41.3000 13.7501 1.0445
41.3200 13.7568 1.0343
41.3400 13.7634 1.0368
41.3600 13.7700 1.0413
41.3800 13.7767 1.0343
41.4000 13.7833 1.0350
41.4200 13.7901 1.0414
41.4400 13.7968 1.0399
41.4600 13.8035 1.0374
41.4800 13.8101 1.0402
41.5000 13.8168 1.0406
41.5200 13.8234 1.0369
41.5400 13.8301 1.0424
41.5600 13.8367 1.0424
41.5800 13.8433 1.0373
41.6000 13.8500 1.0421
41.6200 13.8567 1.0429
41.6400 13.8634 1.0409
41.6600 13.8701 1.0396
41.6800 13.8768 1.0442
41.7000 13.8834 1.0369
41.7200 13.8900 1.0491
41.7400 13.8966 1.0392
41.7600 13.9033 1.0418
41.7800 13.9100 1.0528
41.8000 13.9167 1.0407
41.8200 13.9234 1.0405
41.8400 13.9301 1.0525
41.8600 13.9368 1.0367
41.8800 13.9434 1.0425
41.9000 13.9501 1.0532
41.9200 13.9567 1.0452
41.9400 13.9633 1.0427
41.9600 13.9701 1.0500
41.9800 13.9768 1.0426
42.0000 13.9835 1.0441
42.0200 13.9901 1.0512
42.0400 13.9968 1.0450
42.0600 14.0035 1.0439
42.0800 14.0101 1.0504
42.1000 14.0167 1.0486
42.1200 14.0233 1.0481
42.1400 14.0300 1.0514
42.1600 14.0367 1.0460
42.1800 14.0434 1.0491
42.2000 14.0501 1.0506
42.2200 14.0568 1.0508
42.2400 14.0635 1.0469
42.2600 14.0701 1.0525
42.2800 14.0767 1.0504
42.3000 14.0833 1.0537
42.3200 14.0900 1.0494
42.3400 14.0967 1.0503
42.3600 14.1034 1.0529
42.3800 14.1101 1.0543
42.4000 14.1168 1.0486
42.4200 14.1234 1.0470
42.4400 14.1300 1.0577
42.4600 14.1366 1.0528
42.4800 14.1433 1.0494
42.5000 14.1500 1.0605
42.5200 14.1567 1.0517
42.5400 14.1634 1.0529
42.5600 14.1700 1.0558
42.5800 14.1767 1.0515
42.6000 14.1834 1.0581
42.6200 14.1900 1.0511
42.6400 14.1967 1.0545
42.6600 14.2033 1.0549
42.6800 14.2100 1.0548
42.7000 14.2167 1.0560
42.7200 14.2234 1.0573
42.7400 14.2301 1.0577
42.7600 14.2368 1.0574
42.7800 14.2435 1.0543
42.8000 14.2501 1.0573
42.8200 14.2567 1.0577
42.8400 14.2633 1.0591
42.8600 14.2700 1.0582
42.8800 14.2768 1.0594
42.9000 14.2835 1.0540
42.9200 14.2901 1.0672
42.9400 14.2968 1.0543
42.9600 14.3034 1.0557
42.9800 14.3101 1.0690
43.0000 14.3167 1.0551
43.0200 14.3233 1.0596
43.0400 14.3300 1.0685
43.0600 14.3367 1.0524
43.0800 14.3434 1.0607
43.1000 14.3500 1.0719
43.1200 14.3567 1.0561
43.1400 14.3634 1.0576
43.1600 14.3700 1.0681
43.1800 14.3766 1.0592
43.2000 14.3833 1.0634
43.2200 14.3900 1.0663
43.2400 14.3967 1.0506
43.2600 14.4034 1.0671
43.2800 14.4101 1.0689
43.3000 14.4168 1.0584
43.3200 14.4235 1.0658
43.3400 14.4301 1.0664
43.3600 14.4367 1.0630
43.3800 14.4433 1.0697
43.4000 14.4500 1.0667
43.4200 14.4568 1.0597
43.4400 14.4635 1.0695
43.4600 14.4701 1.0674
43.4800 14.4768 1.0600
43.5000 14.4834 1.0793
43.5200 14.4901 1.0602
43.5400 14.4967 1.0635
43.5600 14.5033 1.0776
43.5800 14.5100 1.0623
43.6000 14.5167 1.0633
43.6200 14.5234 1.0742
43.6400 14.5301 1.0706
43.6600 14.5368 1.0635
43.6800 14.5435 1.0746
43.7000 14.5501 1.0640
43.7200 14.5567 1.0658
43.7400 14.5633 1.0788
43.7600 14.5700 1.0688
43.7800 14.5767 1.0712
43.8000 14.5834 1.0762
43.8200 14.5901 1.0652
43.8400 14.5968 1.0719
43.8600 14.6035 1.0769
43.8800 14.6101 1.0694
43.9000 14.6167 1.0683
43.9200 14.6233 1.0798
43.9400 14.6300 1.0730
43.9600 14.6367 1.0719
43.9800 14.6434 1.0776
44.0000 14.6501 1.0748
44.0200 14.6567 1.0708
44.0400 14.6634 1.0785
44.0600 14.6700 1.0738
44.0800 14.6767 1.0722
44.1000 14.6833 1.0820
44.1200 14.6900 1.0746
44.1400 14.6967 1.0704
44.1600 14.7034 1.0824
44.1800 14.7101 1.0765
44.2000 14.7168 1.0729
44.2200 14.7235 1.0821
44.2400 14.7301 1.0721
44.2600 14.7367 1.0785
44.2800 14.7433 1.0837
44.3000 14.7500 1.0750
44.3200 14.7567 1.0755
44.3400 14.7634 1.0845
44.3600 14.7701 1.0770
44.3800 14.7768 1.0788
44.4000 14.7835 1.0820
44.4200 14.7901 1.0743
44.4400 14.7967 1.0823
44.4600 14.8033 1.0874
44.4800 14.8100 1.0758
44.5000 14.8167 1.0827
44.5200 14.8234 1.0846
44.5400 14.8301 1.0765
44.5600 14.8367 1.0794
44.5800 14.8434 1.0854
44.6000 14.8501 1.0782
44.6200 14.8567 1.0843
44.6400 14.8633 1.0871
44.6600 14.8700 1.0792
44.6800 14.8767 1.0862
44.7000 14.8834 1.0883
44.7200 14.8900 1.0769
44.7400 14.8967 1.0888
44.7600 14.9034 1.0896
44.7800 14.9101 1.0791
44.8000 14.9167 1.0898
44.8200 14.9233 1.0876
44.8400 14.9300 1.0830
44.8600 14.9367 1.0865
44.8800 14.9434 1.0861
44.9000 14.9501 1.0842
44.9200 14.9568 1.0933
44.9400 14.9635 1.0836
44.9600 14.9701 1.0822
44.9800 14.9767 1.0919
45.0000 14.9833 1.0927
45.0200 14.9900 1.0814
45.0400 14.9967 1.0892
45.0600 15.0035 1.0925
45.0800 15.0101 1.0798
45.1000 15.0168 1.0899
45.1200 15.0234 1.1006
45.1400 15.0301 1.0842
45.1600 15.0367 1.0906
45.1800 15.0433 1.0972
45.2000 15.0500 1.0812
45.2200 15.0567 1.0924
45.2400 15.0634 1.0951
45.2600 15.0701 1.0871
45.2800 15.0767 1.0925
45.3000 15.0834 1.0915
45.3200 15.0901 1.0888
45.3400 15.0967 1.0986
45.3600 15.1033 1.0900
45.3800 15.1099 1.0914
45.4000 15.1167 1.0994
45.4200 15.1234 1.0910
45.4400 15.1301 1.0900
45.4600 15.1368 1.1033
45.4800 15.1434 1.0921
45.5000 15.1501 1.0929
45.5200 15.1567 1.0988
45.5400 15.1633 1.0931
45.5600 15.1700 1.0952
45.5800 15.1767 1.0970
45.6000 15.1834 1.0945
45.6200 15.1901 1.0978
45.6400 15.1968 1.0962
45.6600 15.2035 1.0976
45.6800 15.2101 1.0924
45.7000 15.2168 1.1005
45.7200 15.2234 1.0959
45.7400 15.2300 1.0953
45.7600 15.2367 1.0986
45.7800 15.2434 1.1028
45.8000 15.2501 1.0966
45.8200 15.2568 1.1001
45.8400 15.2635 1.1052
45.8600 15.2701 1.0922
45.8800 15.2767 1.1070
45.9000 15.2833 1.1049
45.9200 15.2900 1.0909
45.9400 15.2967 1.1015
45.9600 15.3034 1.1059
45.9800 15.3101 1.0940
46.0000 15.3168 1.1093
46.0200 15.3234 1.1056
46.0400 15.3301 1.0939
46.0600 15.3367 1.1064
46.0800 15.3433 1.1091
46.1000 15.3499 1.0994
46.1200 15.3567 1.1106
46.1400 15.3634 1.0956
46.1600 15.3701 1.1047
46.1800 15.3767 1.1123
46.2000 15.3834 1.0999
46.2200 15.3901 1.1005
46.2400 15.3967 1.1150
46.2600 15.4033 1.0988
46.2800 15.4100 1.1057
46.3000 15.4167 1.1153
46.3200 15.4234 1.0986
46.3400 15.4301 1.1063
46.3600 15.4368 1.1128
46.3800 15.4435 1.1004
46.4000 15.4502 1.1071
46.4200 15.4567 1.1081
46.4400 15.4633 1.1032
46.4600 15.4700 1.1163
46.4800 15.4767 1.1141
46.5000 15.4834 1.1027
46.5200 15.4901 1.1140
46.5400 15.4968 1.1130
46.5600 15.5035 1.0987
46.5800 15.5101 1.1214
46.6000 15.5167 1.1086
46.6200 15.5233 1.1051
46.6400 15.5300 1.1183
46.6600 15.5367 1.1091
46.6800 15.5434 1.1096
46.7000 15.5501 1.1191
46.7200 15.5567 1.1066
46.7400 15.5634 1.1129
46.7600 15.5701 1.1171
46.7800 15.5767 1.1102
46.8000 15.5833 1.1186
46.8200 15.5900 1.1175
46.8400 15.5967 1.1070
46.8600 15.6034 1.1171
46.8800 15.6100 1.1178
46.9000 15.6167 1.1081
46.9200 15.6234 1.1195
46.9400 15.6301 1.1162
46.9600 15.6367 1.1148
46.9800 15.6433 1.1189
47.0000 15.6500 1.1186
47.0200 15.6567 1.1160
47.0400 15.6634 1.1155
47.0600 15.6701 1.1166
47.0800 15.6768 1.1154
47.1000 15.6835 1.1165
47.1200 15.6901 1.1171
47.1400 15.6967 1.1161
47.1600 15.7033 1.1227
47.1800 15.7100 1.1201
47.2000 15.7167 1.1234
47.2200 15.7234 1.1191
47.2400 15.7301 1.1187
47.2600 15.7368 1.1175
47.2800 15.7434 1.1235
47.3000 15.7501 1.1197
47.3200 15.7567 1.1171
47.3400 15.7634 1.1238
47.3600 15.7700 1.1258
47.3800 15.7767 1.1215
47.4000 15.7834 1.1242
47.4200 15.7901 1.1236
47.4400 15.7967 1.1209
47.4600 15.8034 1.1211
47.4800 15.8101 1.1241
47.5000 15.8167 1.1220
47.5200 15.8233 1.1246
47.5400 15.8299 1.1252
47.5600 15.8366 1.1226
47.5800 15.8434 1.1296
47.6000 15.8501 1.1225
47.6200 15.8568 1.1257
47.6400 15.8634 1.1280
47.6600 15.8701 1.1266
47.6800 15.8767 1.1218
47.7000 15.8834 1.1289
47.7200 15.8900 1.1272
47.7400 15.8967 1.1258
47.7600 15.9034 1.1295
47.7800 15.9101 1.1304
47.8000 15.9168 1.1227
47.8200 15.9234 1.1312
47.8400 15.9301 1.1319
47.8600 15.9368 1.1263
47.8800 15.9433 1.1256
47.9000 15.9500 1.1312
47.9200 15.9566 1.1289
47.9400 15.9634 1.1292
47.9600 15.9701 1.1334
47.9800 15.9768 1.1225
48.0000 15.9835 1.1272
48.0200 15.9901 1.1362
48.0400 15.9967 1.1224
48.0600 16.0033 1.1324
48.0800 16.0100 1.1388
48.1000 16.0167 1.1234
48.1200 16.0234 1.1331
48.1400 16.0301 1.1382
48.1600 16.0368 1.1305
48.1800 16.0435 1.1312
48.2000 16.0501 1.1397
48.2200 16.0567 1.1301
48.2400 16.0633 1.1350
48.2600 16.0700 1.1381
48.2800 16.0767 1.1319
48.3000 16.0834 1.1353
48.3200 16.0900 1.1354
48.3400 16.0967 1.1331
48.3600 16.1034 1.1390
48.3800 16.1101 1.1360
48.4000 16.1167 1.1376
48.4200 16.1233 1.1356
48.4400 16.1300 1.1367
48.4600 16.1367 1.1439
48.4800 16.1434 1.1336
48.5000 16.1501 1.1377
48.5200 16.1568 1.1384
48.5400 16.1635 1.1341
48.5600 16.1702 1.1453
48.5800 16.1768 1.1373
48.6000 16.1834 1.1360
48.6200 16.1900 1.1474
48.6400 16.1967 1.1358
48.6600 16.2034 1.1392
48.6800 16.2101 1.1426
48.7000 16.2168 1.1385
48.7200 16.2235 1.1347
48.7400 16.2301 1.1490
48.7600 16.2368 1.1359
48.7800 16.2434 1.1386
48.8000 16.2500 1.1522
48.8200 16.2567 1.1344
48.8400 16.2634 1.1384
48.8600 16.2700 1.1534
48.8800 16.2767 1.1340
48.9000 16.2834 1.1425
48.9200 16.2901 1.1502
48.9400 16.2967 1.1383
48.9600 16.3033 1.1430
48.9800 16.3099 1.1513
49.0000 16.3166 1.1433
49.0200 16.3233 1.1446
49.0400 16.3300 1.1504
49.0600 16.3367 1.1428
49.0800 16.3434 1.1484
49.1000 16.3501 1.1459
49.1200 16.3567 1.1477
49.1400 16.3633 1.1450
49.1600 16.3700 1.1460
49.1800 16.3766 1.1483
49.2000 16.3834 1.1454
49.2200 16.3901 1.1447
49.2400 16.3968 1.1529
49.2600 16.4035 1.1436
49.2800 16.4101 1.1495
49.3000 16.4168 1.1503
49.3200 16.4234 1.1470
49.3400 16.4300 1.1530
49.3600 16.4367 1.1535
49.3800 16.4434 1.1449
49.4000 16.4501 1.1545
49.4200 16.4568 1.1522
49.4400 16.4634 1.1455
49.4600 16.4701 1.1532
49.4800 16.4768 1.1506
49.5000 16.4834 1.1441
49.5200 16.4900 1.1620
49.5400 16.4966 1.1526
49.5600 16.5033 1.1456
49.5800 16.5101 1.1633
49.6000 16.5168 1.1473
49.6200 16.5234 1.1531
49.6400 16.5301 1.1639
49.6600 16.5367 1.1471
49.6800 16.5433 1.1507
49.7000 16.5499 1.1653
49.7200 16.5566 1.1499
49.7400 16.5633 1.1566
49.7600 16.5700 1.1625
49.7800 16.5767 1.1452
49.8000 16.5834 1.1575
49.8200 16.5901 1.1654
49.8400 16.5968 1.1480
49.8600 16.6034 1.1616
49.8800 16.6100 1.1615
49.9000 16.6167 1.1519
49.9200 16.6234 1.1599
49.9400 16.6301 1.1591
49.9600 16.6367 1.1532
49.9800 16.6434 1.1658
50.0000 16.6502 1.1590
50.0200 16.6568 1.1545
50.0400 16.6634 1.1618
50.0600 16.6700 1.1590
50.0800 16.6767 1.1627
50.1000 16.6834 1.1588
50.1200 16.6901 1.1625
50.1400 16.6968 1.1624
50.1600 16.7035 1.1602
50.1800 16.7101 1.1599
50.2000 16.7168 1.1708
50.2200 16.7234 1.1593
50.2400 16.7300 1.1623
50.2600 16.7367 1.1655
50.2800 16.7434 1.1637
50.3000 16.7501 1.1590
50.3200 16.7568 1.1665
50.3400 16.7634 1.1640
50.3600 16.7701 1.1606
50.3800 16.7768 1.1698
50.4000 16.7834 1.1631
50.4200 16.7900 1.1641
50.4400 16.7966 1.1709
50.4600 16.8033 1.1643
50.4800 16.8100 1.1652
50.5000 16.8167 1.1651
50.5200 16.8234 1.1674
50.5400 16.8301 1.1616
50.5600 16.8368 1.1677
50.5800 16.8434 1.1694
50.6000 16.8500 1.1628
50.6200 16.8566 1.1730
50.6400 16.8634 1.1650
50.6600 16.8701 1.1669
50.6800 16.8768 1.1720
50.7000 16.8835 1.1691
50.7200 16.8901 1.1657
50.7400 16.8968 1.1726
50.7600 16.9034 1.1713
50.7800 16.9100 1.1675
50.8000 16.9167 1.1768
50.8200 16.9234 1.1751
50.8400 16.9301 1.1656
50.8600 16.9368 1.1721
50.8800 16.9434 1.1701
50.9000 16.9501 1.1770
50.9200 16.9568 1.1692
50.9400 16.9634 1.1669
50.9600 16.9700 1.1812
50.9800 16.9766 1.1740
51.0000 16.9833 1.1634
51.0200 16.9900 1.1810
51.0400 16.9967 1.1778
51.0600 17.0034 1.1658
51.0800 17.0101 1.1827
51.1000 17.0168 1.1789
51.1200 17.0234 1.1647
51.1400 17.0300 1.1803
51.1600 17.0366 1.1752
51.1800 17.0433 1.1732
51.2000 17.0501 1.1829
51.2200 17.0567 1.1665
51.2400 17.0634 1.1805
51.2600 17.0701 1.1846
51.2800 17.0768 1.1627
51.3000 17.0834 1.1849
51.3200 17.0900 1.1876
51.3400 17.0967 1.1633
51.3600 17.1034 1.1889
51.3800 17.1101 1.1796
51.4000 17.1168 1.1674
51.4200 17.1234 1.1938
51.4400 17.1301 1.1803
51.4600 17.1368 1.1669
51.4800 17.1434 1.1959
51.5000 17.1500 1.1745
51.5200 17.1567 1.1760
51.5400 17.1633 1.1935
51.5600 17.1701 1.1721
51.5800 17.1768 1.1826
51.6000 17.1835 1.1943
51.6200 17.1902 1.1666
51.6400 17.1968 1.1905
51.6600 17.2034 1.1952
51.6800 17.2100 1.1663
51.7000 17.2166 1.1958
51.7200 17.2233 1.1943
51.7400 17.2300 1.1707
51.7600 17.2367 1.1928
51.7800 17.2434 1.1889
51.8000 17.2501 1.1768
51.8200 17.2568 1.1907
51.8400 17.2634 1.1815
51.8600 17.2700 1.1868
51.8800 17.2766 1.1893
51.9000 17.2833 1.1857
51.9200 17.2900 1.1848
51.9400 17.2967 1.1936
51.9600 17.3034 1.1879
51.9800 17.3101 1.1898
52.0000 17.3168 1.1942
52.0200 17.3234 1.1841
52.0400 17.3300 1.1910
52.0600 17.3367 1.1940
52.0800 17.3434 1.1922
52.1000 17.3501 1.1856
52.1200 17.3568 1.1852
52.1400 17.3635 1.1963
52.1600 17.3702 1.1893
52.1800 17.3768 1.1885
52.2000 17.3834 1.1945
52.2200 17.3900 1.1924
52.2400 17.3967 1.1936
52.2600 17.4034 1.1964
52.2800 17.4101 1.1898
52.3000 17.4168 1.1909
52.3200 17.4234 1.1971
52.3400 17.4301 1.1875
52.3600 17.4368 1.1956
52.3800 17.4434 1.1953
52.4000 17.4500 1.1863
52.4200 17.4567 1.1986
52.4400 17.4634 1.2017
52.4600 17.4700 1.1848
52.4800 17.4767 1.2015
52.5000 17.4834 1.1998
52.5200 17.4901 1.1899
52.5400 17.4968 1.2020
52.5600 17.5034 1.2009
52.5800 17.5100 1.1915
52.6000 17.5166 1.2024
52.6200 17.5233 1.1972
52.6400 17.5300 1.1944
52.6600 17.5367 1.2035
52.6800 17.5434 1.1947
52.7000 17.5501 1.1996
52.7200 17.5567 1.2043
52.7400 17.5634 1.1939
52.7600 17.5700 1.2006
52.7800 17.5766 1.2048
52.8000 17.5833 1.1987
52.8200 17.5901 1.2016
52.8400 17.5968 1.1999
52.8600 17.6034 1.2014
52.8800 17.6101 1.1998
52.9000 17.6168 1.2031
52.9200 17.6235 1.1987
52.9400 17.6301 1.2043
52.9600 17.6367 1.2034
52.9800 17.6434 1.2031
53.0000 17.6501 1.2000
53.0200 17.6568 1.2047
53.0400 17.6634 1.2071
53.0600 17.6701 1.2038
53.0800 17.6768 1.2044
53.1000 17.6834 1.2104
53.1200 17.6900 1.2005
53.1400 17.6966 1.2050
53.1600 17.7033 1.2127
53.1800 17.7100 1.2031
53.2000 17.7167 1.2049
53.2200 17.7234 1.2133
53.2400 17.7301 1.2057
53.2600 17.7368 1.2067
53.2800 17.7434 1.2114
53.3000 17.7500 1.2017
53.3200 17.7566 1.2084
53.3400 17.7633 1.2122
53.3600 17.7701 1.2060
53.3800 17.7768 1.2117
53.4000 17.7834 1.2107
53.4200 17.7901 1.2040
53.4400 17.7968 1.2145
53.4600 17.8034 1.2108
53.4800 17.8100 1.2069
53.5000 17.8167 1.2147
53.5200 17.8234 1.2156
53.5400 17.8301 1.2002
53.5600 17.8367 1.2197
53.5800 17.8434 1.2143
53.6000 17.8501 1.2048
53.6200 17.8568 1.2176
53.6400 17.8635 1.2124
53.6600 17.8700 1.2075
53.6800 17.8766 1.2183
53.7000 17.8833 1.2139
53.7200 17.8901 1.2086
53.7400 17.8968 1.2173
53.7600 17.9035 1.2128
53.7800 17.9101 1.2121
53.8000 17.9168 1.2164
53.8200 17.9234 1.2145
53.8400 17.9300 1.2161
53.8600 17.9366 1.2185
53.8800 17.9433 1.2133
53.9000 17.9500 1.2182
53.9200 17.9567 1.2153
53.9400 17.9634 1.2189
53.9600 17.9701 1.2185
53.9800 17.9768 1.2185
54.0000 17.9834 1.2178
54.0200 17.9900 1.2214
54.0400 17.9966 1.2136
54.0600 18.0033 1.2266
54.0800 18.0100 1.2227
54.1000 18.0167 1.2065
54.1200 18.0234 1.2227
54.1400 18.0301 1.2319
54.1600 18.0368 1.2136
54.1800 18.0434 1.2265
54.2000 18.0500 1.2227
54.2200 18.0567 1.2134
54.2400 18.0633 1.2277
54.2600 18.0701 1.2259
54.2800 18.0768 1.2163
54.3000 18.0835 1.2302
54.3200 18.0901 1.2176
54.3400 18.0968 1.2146
54.3600 18.1034 1.2323
54.3800 18.1100 1.2229
54.4000 18.1167 1.2211
54.4200 18.1233 1.2299
54.4400 18.1301 1.2220
54.4600 18.1368 1.2261
54.4800 18.1434 1.2297
54.5000 18.1501 1.2229
54.5200 18.1568 1.2276
54.5400 18.1634 1.2258
54.5600 18.1701 1.2297
54.5800 18.1767 1.2276
54.6000 18.1833 1.2267
54.6200 18.1900 1.2285
54.6400 18.1967 1.2273
54.6600 18.2034 1.2264
54.6800 18.2101 1.2310
54.7000 18.2168 1.2276
54.7200 18.2234 1.2207
54.7400 18.2300 1.2319
54.7600 18.2366 1.2359
54.7800 18.2433 1.2223
54.8000 18.2500 1.2321
54.8200 18.2567 1.2326
54.8400 18.2634 1.2262
54.8600 18.2701 1.2349
54.8800 18.2767 1.2370
54.9000 18.2834 1.2283
54.9200 18.2900 1.2353
54.9400 18.2967 1.2410
54.9600 18.3033 1.2204
54.9800 18.3100 1.2443
55.0000 18.3167 1.2366
55.0200 18.3234 1.2221
55.0400 18.3301 1.2450
55.0600 18.3368 1.2369
55.0800 18.3435 1.2186
55.1000 18.3501 1.2460
55.1200 18.3567 1.2388
55.1400 18.3633 1.2254
55.1600 18.3700 1.2463
55.1800 18.3767 1.2345
55.2000 18.3834 1.2290
55.2200 18.3901 1.2478
55.2400 18.3968 1.2345
55.2600 18.4034 1.2341
55.2800 18.4100 1.2461
55.3000 18.4166 1.2318
55.3200 18.4233 1.2366
55.3400 18.4300 1.2515
55.3600 18.4367 1.2339
55.3800 18.4434 1.2376
55.4000 18.4501 1.2421
55.4200 18.4568 1.2356
55.4400 18.4634 1.2453
55.4600 18.4700 1.2391
55.4800 18.4766 1.2389
55.5000 18.4833 1.2458
55.5200 18.4900 1.2382
55.5400 18.4967 1.2378
55.5600 18.5034 1.2507
55.5800 18.5101 1.2355
55.6000 18.5167 1.2442
55.6200 18.5234 1.2481
55.6400 18.5300 1.2399
55.6600 18.5367 1.2444
55.6800 18.5433 1.2469
55.7000 18.5500 1.2406
55.7200 18.5567 1.2480
55.7400 18.5634 1.2433
55.7600 18.5701 1.2456
55.7800 18.5768 1.2463
55.8000 18.5835 1.2374
55.8200 18.5901 1.2510
55.8400 18.5967 1.2525
55.8600 18.6033 1.2349
55.8800 18.6100 1.2562
55.9000 18.6168 1.2499
55.9200 18.6235 1.2355
55.9400 18.6301 1.2605
55.9600 18.6368 1.2485
55.9800 18.6435 1.2387
56.0000 18.6501 1.2581
56.0200 18.6567 1.2489
56.0400 18.6633 1.2412
56.0600 18.6700 1.2683
56.0800 18.6767 1.2444
56.1000 18.6834 1.2444
56.1200 18.6901 1.2641
56.1400 18.6968 1.2457
56.1600 18.7034 1.2460
56.1800 18.7101 1.2624
56.2000 18.7167 1.2448
56.2200 18.7233 1.2533
56.2400 18.7300 1.2617
56.2600 18.7367 1.2455
56.2800 18.7434 1.2524
56.3000 18.7501 1.2634
56.3200 18.7568 1.2428
56.3400 18.7634 1.2554
56.3600 18.7701 1.2591
56.3800 18.7767 1.2469
56.4000 18.7833 1.2550
56.4200 18.7901 1.2588
56.4400 18.7968 1.2530
56.4600 18.8035 1.2517
56.4800 18.8101 1.2623
56.5000 18.8168 1.2520
56.5200 18.8235 1.2534
56.5400 18.8301 1.2617
56.5600 18.8367 1.2559
56.5800 18.8433 1.2542
56.6000 18.8500 1.2666
56.6200 18.8567 1.2574
56.6400 18.8634 1.2544
56.6600 18.8701 1.2651
56.6800 18.8768 1.2614
56.7000 18.8835 1.2513
56.7200 18.8901 1.2706
56.7400 18.8967 1.2597
56.7600 18.9033 1.2546
56.7800 18.9100 1.2695
56.8000 18.9167 1.2585
56.8200 18.9234 1.2575
56.8400 18.9301 1.2714
56.8600 18.9368 1.2563
56.8800 18.9435 1.2574
56.9000 18.9501 1.2670
56.9200 18.9566 1.2608
56.9400 18.9633 1.2621
56.9600 18.9700 1.2670
56.9800 18.9767 1.2627
57.0000 18.9834 1.2573
57.0200 18.9901 1.2718
57.0400 18.9967 1.2629
57.0600 19.0034 1.2663
57.0800 19.0100 1.2680
57.1000 19.0167 1.2611
57.1200 19.0233 1.2663
57.1400 19.0300 1.2716
57.1600 19.0367 1.2661
57.1800 19.0434 1.2693
57.2000 19.0501 1.2689
57.2200 19.0568 1.2673
57.2400 19.0635 1.2681
57.2600 19.0701 1.2695
57.2800 19.0767 1.2664
57.3000 19.0833 1.2727
57.3200 19.0900 1.2670
57.3400 19.0967 1.2695
57.3600 19.1035 1.2729
57.3800 19.1101 1.2669
57.4000 19.1168 1.2745
57.4200 19.1235 1.2687
57.4400 19.1301 1.2668
57.4600 19.1367 1.2778
57.4800 19.1433 1.2728
57.5000 19.1500 1.2701
57.5200 19.1567 1.2768
57.5400 19.1634 1.2693
57.5600 19.1700 1.2733
57.5800 19.1767 1.2805
57.6000 19.1834 1.2614
57.6200 19.1900 1.2719
57.6400 19.1967 1.2871
57.6600 19.2033 1.2585
57.6800 19.2100 1.2817
57.7000 19.2167 1.2833
57.7200 19.2234 1.2674
57.7400 19.2301 1.2844
57.7600 19.2368 1.2790
57.7800 19.2435 1.2683
57.8000 19.2501 1.2824
57.8200 19.2567 1.2744
57.8400 19.2633 1.2753
57.8600 19.2700 1.2885
57.8800 19.2767 1.2745
57.9000 19.2834 1.2703
57.9200 19.2901 1.2870
57.9400 19.2968 1.2794
57.9600 19.3035 1.2750
57.9800 19.3101 1.2836
58.0000 19.3167 1.2757
58.0200 19.3233 1.2830
58.0400 19.3300 1.2788
58.0600 19.3367 1.2814
58.0800 19.3434 1.2810
58.1000 19.3501 1.2827
58.1200 19.3568 1.2816
58.1400 19.3635 1.2834
58.1600 19.3701 1.2810
58.1800 19.3767 1.2874
58.2000 19.3834 1.2838
58.2200 19.3900 1.2802
58.2400 19.3967 1.2872
58.2600 19.4034 1.2868
58.2800 19.4101 1.2777
58.3000 19.4168 1.2909
58.3200 19.4235 1.2808
58.3400 19.4301 1.2834
58.3600 19.4367 1.2904
58.3800 19.4433 1.2864
58.4000 19.4500 1.2852
58.4200 19.4567 1.2906
58.4400 19.4634 1.2882
58.4600 19.4701 1.2849
58.4800 19.4768 1.2935
58.5000 19.4834 1.2885
58.5200 19.4901 1.2825
58.5400 19.4967 1.2930
58.5600 19.5033 1.2878
58.5800 19.5100 1.2878
58.6000 19.5167 1.2992
58.6200 19.5234 1.2859
58.6400 19.5301 1.2872
58.6600 19.5368 1.2937
58.6800 19.5435 1.2937
58.7000 19.5501 1.2812
58.7200 19.5567 1.2940
58.7400 19.5633 1.2975
58.7600 19.5700 1.2813
58.7800 19.5767 1.2955
58.8000 19.5834 1.2955
58.8200 19.5901 1.2846
58.8400 19.5968 1.2972
58.8600 19.6035 1.2933
58.8800 19.6101 1.2889
58.9000 19.6167 1.3006
58.9200 19.6233 1.2975
58.9400 19.6300 1.2870
58.9600 19.6367 1.3018
58.9800 19.6434 1.2983
59.0000 19.6501 1.2851
59.0200 19.6568 1.3059
59.0400 19.6634 1.2978
59.0600 19.6701 1.2891
59.0800 19.6767 1.3007
59.1000 19.6833 1.2988
59.1200 19.6900 1.2961
59.1400 19.6967 1.3028
59.1600 19.7034 1.2976
59.1800 19.7100 1.2947
59.2000 19.7167 1.3046
59.2200 19.7234 1.3006
59.2400 19.7301 1.2919
59.2600 19.7367 1.3092
59.2800 19.7433 1.2982
59.3000 19.7500 1.3010
59.3200 19.7567 1.3015
59.3400 19.7634 1.3064
59.3600 19.7701 1.2991
59.3800 19.7768 1.3049
59.4000 19.7835 1.3000
59.4200 19.7901 1.2961
59.4400 19.7967 1.3117
59.4600 19.8033 1.3085
59.4800 19.8100 1.2936
59.5000 19.8167 1.3088
59.5200 19.8234 1.3076
59.5400 19.8301 1.2983
59.5600 19.8368 1.3101
59.5800 19.8434 1.3053
59.6000 19.8501 1.3011
59.6200 19.8567 1.3077
59.6400 19.8633 1.3060
59.6600 19.8700 1.3039
59.6800 19.8767 1.3173
59.7000 19.8834 1.3046
59.7200 19.8901 1.3023
59.7400 19.8968 1.3087
59.7600 19.9035 1.3114
59.7800 19.9101 1.3049
59.8000 19.9167 1.3071
59.8200 19.9233 1.3123
59.8400 19.9299 1.3111
59.8600 19.9367 1.3104
59.8800 19.9434 1.3120
59.9000 19.9501 1.3095
59.9200 19.9568 1.3168
59.9400 19.9635 1.3049
59.9600 19.9701 1.3099
59.9800 19.9767 1.3188
60.0000 19.9833 1.3152
60.0200 19.9900 1.3083
60.0400 19.9967 1.3129
60.0600 20.0034 1.3182
60.0800 20.0101 1.3043
60.1000 20.0168 1.3192
60.1200 20.0235 1.3217
60.1400 20.0301 1.3083
60.1600 20.0367 1.3144
60.1800 20.0434 1.3212
60.2000 20.0500 1.3162
60.2200 20.0567 1.3160
60.2400 20.0634 1.3189
60.2600 20.0701 1.3162
60.2800 20.0768 1.3064
60.3000 20.0835 1.3235
60.3200 20.0901 1.3144
60.3400 20.0968 1.3137
60.3600 20.1034 1.3263
60.3800 20.1100 1.3178
60.4000 20.1167 1.3122
60.4200 20.1234 1.3281
60.4400 20.1301 1.3176
60.4600 20.1368 1.3169
60.4800 20.1434 1.3292
60.5000 20.1501 1.3115
60.5200 20.1567 1.3170
60.5400 20.1633 1.3370
60.5600 20.1699 1.3123
60.5800 20.1766 1.3225
60.6000 20.1833 1.3334
60.6200 20.1900 1.3103
60.6400 20.1967 1.3258
60.6600 20.2034 1.3321
60.6800 20.2100 1.3131
60.7000 20.2167 1.3230
60.7200 20.2233 1.3304
60.7400 20.2300 1.3174
60.7600 20.2367 1.3256
60.7800 20.2434 1.3252
60.8000 20.2501 1.3199
60.8200 20.2568 1.3243
60.8400 20.2635 1.3285
60.8600 20.2701 1.3261
60.8800 20.2768 1.3290
60.9000 20.2834 1.3213
60.9200 20.2900 1.3287
60.9400 20.2967 1.3291
60.9600 20.3034 1.3263
60.9800 20.3101 1.3284
61.0000 20.3168 1.3269
61.0200 20.3235 1.3299
61.0400 20.3301 1.3280
61.0600 20.3367 1.3269
61.0800 20.3433 1.3336
61.1000 20.3500 1.3326
61.1200 20.3567 1.3280
61.1400 20.3634 1.3333
61.1600 20.3701 1.3324
61.1800 20.3767 1.3316
61.2000 20.3834 1.3360
61.2200 20.3901 1.3333
61.2400 20.3968 1.3272
61.2600 20.4034 1.3344
61.2800 20.4100 1.3345
61.3000 20.4167 1.3338
61.3200 20.4233 1.3350
61.3400 20.4300 1.3315
61.3600 20.4367 1.3313
61.3800 20.4434 1.3386
61.4000 20.4501 1.3301
61.4200 20.4567 1.3353
61.4400 20.4633 1.3398
61.4600 20.4700 1.3366
61.4800 20.4767 1.3375
61.5000 20.4834 1.3394
61.5200 20.4901 1.3331
61.5400 20.4968 1.3402
61.5600 20.5035 1.3355
61.5800 20.5101 1.3383
61.6000 20.5167 1.3448
61.6200 20.5233 1.3347
61.6400 20.5300 1.3410
61.6600 20.5367 1.3391
61.6800 20.5434 1.3366
61.7000 20.5501 1.3471
61.7200 20.5568 1.3396
61.7400 20.5634 1.3412
61.7600 20.5701 1.3473
61.7800 20.5767 1.3338
61.8000 20.5834 1.3434
61.8200 20.5900 1.3503
61.8400 20.5967 1.3358
61.8600 20.6034 1.3439
61.8800 20.6101 1.3503
61.9000 20.6167 1.3355
61.9200 20.6234 1.3487
61.9400 20.6301 1.3493
61.9600 20.6367 1.3352
61.9800 20.6433 1.3513
62.0000 20.6499 1.3469
62.0200 20.6566 1.3355
62.0400 20.6634 1.3537
62.0600 20.6701 1.3467
62.0800 20.6767 1.3388
62.1000 20.6834 1.3510
62.1200 20.6901 1.3520
62.1400 20.6967 1.3397
62.1600 20.7033 1.3509
62.1800 20.7100 1.3530
62.2000 20.7167 1.3464
62.2200 20.7234 1.3468
62.2400 20.7301 1.3474
62.2600 20.7368 1.3504
62.2800 20.7435 1.3488
62.3000 20.7501 1.3504
62.3200 20.7568 1.3469
62.3400 20.7634 1.3502
62.3600 20.7700 1.3566
62.3800 20.7767 1.3486
62.4000 20.7834 1.3539
62.4200 20.7901 1.3564
62.4400 20.7968 1.3442
62.4600 20.8034 1.3549
62.4800 20.8101 1.3568
62.5000 20.8168 1.3485
62.5200 20.8234 1.3528
62.5400 20.8300 1.3634
62.5600 20.8367 1.3504
62.5800 20.8434 1.3489
62.6000 20.8501 1.3582
62.6200 20.8568 1.3542
62.6400 20.8634 1.3482
62.6600 20.8701 1.3609
62.6800 20.8767 1.3560
62.7000 20.8833 1.3494
62.7200 20.8899 1.3663
62.7400 20.8966 1.3576
62.7600 20.9033 1.3533
62.7800 20.9100 1.3657
62.8000 20.9167 1.3577
62.8200 20.9234 1.3537
62.8400 20.9301 1.3708
62.8600 20.9367 1.3543
62.8800 20.9433 1.3541
62.9000 20.9500 1.3709
62.9200 20.9566 1.3577
62.9400 20.9634 1.3497
62.9600 20.9701 1.3742
62.9800 20.9768 1.3569
63.0000 20.9835 1.3530
63.0200 20.9902 1.3671
63.0400 20.9968 1.3643
63.0600 21.0034 1.3539
63.0800 21.0100 1.3694
63.1000 21.0167 1.3649
63.1200 21.0234 1.3585
63.1400 21.0301 1.3688
63.1600 21.0368 1.3673
63.1800 21.0435 1.3554
63.2000 21.0501 1.3740
63.2200 21.0568 1.3632
63.2400 21.0634 1.3586
63.2600 21.0700 1.3774
63.2800 21.0766 1.3631
63.3000 21.0833 1.3590
63.3200 21.0900 1.3792
63.3400 21.0967 1.3649
63.3600 21.1034 1.3581
63.3800 21.1101 1.3800
63.4000 21.1167 1.3667
63.4200 21.1233 1.3612
63.4400 21.1299 1.3763
63.4600 21.1366 1.3685
63.4800 21.1433 1.3640
63.5000 21.1500 1.3785
63.5200 21.1567 1.3653
63.5400 21.1634 1.3696
63.5600 21.1701 1.3779
63.5800 21.1767 1.3682
63.6000 21.1833 1.3676
63.6200 21.1900 1.3789
63.6400 21.1967 1.3708
63.6600 21.2034 1.3684
63.6800 21.2101 1.3784
63.7000 21.2168 1.3759
63.7200 21.2235 1.3703
63.7400 21.2301 1.3781
63.7600 21.2368 1.3720
63.7800 21.2434 1.3730
63.8000 21.2500 1.3841
63.8200 21.2567 1.3742
63.8400 21.2634 1.3698
63.8600 21.2701 1.3808
63.8800 21.2768 1.3762
63.9000 21.2834 1.3749
63.9200 21.2901 1.3836
63.9400 21.2968 1.3759
63.9600 21.3034 1.3766
63.9800 21.3100 1.3810
64.0000 21.3166 1.3832
64.0200 21.3233 1.3761
64.0400 21.3301 1.3812
64.0600 21.3367 1.3807
64.0800 21.3434 1.3775
64.1000 21.3501 1.3796
64.1200 21.3568 1.3862
64.1400 21.3634 1.3797
64.1600 21.3700 1.3823
64.1800 21.3766 1.3850
64.2000 21.3833 1.3789
64.2200 21.3901 1.3825
64.2400 21.3967 1.3854
64.2600 21.4034 1.3802
64.2800 21.4101 1.3883
64.3000 21.4168 1.3851
64.3200 21.4234 1.3793
64.3400 21.4300 1.3890
64.3600 21.4367 1.3883
64.3800 21.4434 1.3791
64.4000 21.4501 1.3859
64.4200 21.4568 1.3932
64.4400 21.4634 1.3810
64.4600 21.4701 1.3864
64.4800 21.4768 1.3866
64.5000 21.4834 1.3843
64.5200 21.4900 1.3918
64.5400 21.4967 1.3919
64.5600 21.5034 1.3830
64.5800 21.5101 1.3936
64.6000 21.5168 1.3894
64.6200 21.5235 1.3880
64.6400 21.5301 1.3939
64.6600 21.5368 1.3914
64.6800 21.5434 1.3858
64.7000 21.5500 1.3941
64.7200 21.5567 1.3946
64.7400 21.5634 1.3930
64.7600 21.5701 1.3908
64.7800 21.5768 1.3919
64.8000 21.5834 1.3924
64.8200 21.5901 1.3980
64.8400 21.5968 1.3928
64.8600 21.6034 1.3930
64.8800 21.6100 1.3935
64.9000 21.6166 1.3998
64.9200 21.6233 1.3917
64.9400 21.6300 1.3915
64.9600 21.6367 1.4022
64.9800 21.6434 1.3927
65.0000 21.6501 1.3948
65.0200 21.6567 1.3996
65.0400 21.6634 1.3951
65.0600 21.6700 1.3941
65.0800 21.6767 1.4058
65.1000 21.6834 1.3929
65.1200 21.6901 1.3929
65.1400 21.6968 1.4077
65.1600 21.7035 1.3931
65.1800 21.7102 1.3912
65.2000 21.7168 1.4130
65.2200 21.7234 1.3938
65.2400 21.7300 1.3980
65.2600 21.7367 1.4129
65.2800 21.7434 1.3997
65.3000 21.7501 1.3981
65.3200 21.7568 1.4104
65.3400 21.7634 1.3978
65.3600 21.7701 1.4004
65.3800 21.7768 1.4140
65.4000 21.7834 1.3965
65.4200 21.7900 1.4012
65.4400 21.7966 1.4127
65.4600 21.8033 1.4006
65.4800 21.8100 1.4000
65.5000 21.8167 1.4140
65.5200 21.8234 1.4004
65.5400 21.8301 1.4021
65.5600 21.8368 1.4104
65.5800 21.8434 1.4046
65.6000 21.8500 1.4043
65.6200 21.8566 1.4101
65.6400 21.8633 1.4067
65.6600 21.8700 1.4080
65.6800 21.8767 1.4065
65.7000 21.8834 1.4122
65.7200 21.8901 1.4043
65.7400 21.8967 1.4103
65.7600 21.9034 1.4107
65.7800 21.9100 1.4048
65.8000 21.9166 1.4154
65.8200 21.9234 1.4150
65.8400 21.9301 1.4000
65.8600 21.9368 1.4142
65.8800 21.9434 1.4189
65.9000 21.9501 1.4032
65.9200 21.9568 1.4139
65.9400 21.9634 1.4187
65.9600 21.9700 1.4046
65.9800 21.9767 1.4148
66.0000 21.9834 1.4231
66.0200 21.9901 1.4028
66.0400 21.9968 1.4205
66.0600 22.0035 1.4222
66.0800 22.0102 1.4023
66.1000 22.0168 1.4218
66.1200 22.0234 1.4215
66.1400 22.0300 1.4044
66.1600 22.0366 1.4310
66.1800 22.0433 1.4205
66.2000 22.0500 1.4068
66.2200 22.0567 1.4247
66.2400 22.0634 1.4243
66.2600 22.0701 1.4039
66.2800 22.0768 1.4337
66.3000 22.0834 1.4202
66.3200 22.0900 1.4082
66.3400 22.0966 1.4285
66.3600 22.1033 1.4208
66.3800 22.1100 1.4136
66.4000 22.1167 1.4275
66.4200 22.1234 1.4182
66.4400 22.1301 1.4172
66.4600 22.1367 1.4302
66.4800 22.1434 1.4200
66.5000 22.1500 1.4146
66.5200 22.1567 1.4331
66.5400 22.1633 1.4243
66.5600 22.1700 1.4147
66.5800 22.1767 1.4332
66.6000 22.1834 1.4271
66.6200 22.1901 1.4179
66.6400 22.1968 1.4263
66.6600 22.2035 1.4320
66.6800 22.2100 1.4210
66.7000 22.2167 1.4320
66.7200 22.2233 1.4336
66.7400 22.2301 1.4215
66.7600 22.2368 1.4264
66.7800 22.2435 1.4367
66.8000 22.2501 1.4229
66.8200 22.2568 1.4280
66.8400 22.2634 1.4348
66.8600 22.2700 1.4233
66.8800 22.2767 1.4290
66.9000 22.2833 1.4419
66.9200 22.2900 1.4213
66.9400 22.2967 1.4345
66.9600 22.3034 1.4405
66.9800 22.3101 1.4215
67.0000 22.3168 1.4334
67.0200 22.3234 1.4396
67.0400 22.3300 1.4268
67.0600 22.3366 1.4327
67.0800 22.3433 1.4431
67.1000 22.3500 1.4255
67.1200 22.3567 1.4350
67.1400 22.3634 1.4392
67.1600 22.3701 1.4257
67.1800 22.3767 1.4366
67.2000 22.3834 1.4420
67.2200 22.3900 1.4273
67.2400 22.3966 1.4417
67.2600 22.4033 1.4453
67.2800 22.4100 1.4310
67.3000 22.4168 1.4392
67.3200 22.4235 1.4446
67.3400 22.4301 1.4253
67.3600 22.4368 1.4452
67.3800 22.4435 1.4441
67.4000 22.4501 1.4286
67.4200 22.4567 1.4471
67.4400 22.4634 1.4442
67.4600 22.4701 1.4299
67.4800 22.4768 1.4467
67.5000 22.4835 1.4452
67.5200 22.4901 1.4335
67.5400 22.4968 1.4428
67.5600 22.5035 1.4470
67.5800 22.5100 1.4391
67.6000 22.5166 1.4425
67.6200 22.5233 1.4489
67.6400 22.5300 1.4374
67.6600 22.5367 1.4440
67.6800 22.5434 1.4516
67.7000 22.5501 1.4352
67.7200 22.5568 1.4409
67.7400 22.5634 1.4572
67.7600 22.5700 1.4358
67.7800 22.5766 1.4473
67.8000 22.5833 1.4567
67.8200 22.5900 1.4438
67.8400 22.5967 1.4433
67.8600 22.6034 1.4582
67.8800 22.6101 1.4408
67.9000 22.6168 1.4492
67.9200 22.6234 1.4582
67.9400 22.6301 1.4390
67.9600 22.6367 1.4476
67.9800 22.6434 1.4595
68.0000 22.6501 1.4445
68.0200 22.6568 1.4544
68.0400 22.6634 1.4587
68.0600 22.6701 1.4454
68.0800 22.6768 1.4530
68.1000 22.6835 1.4552
68.1200 22.6901 1.4489
68.1400 22.6966 1.4560
68.1600 22.7033 1.4569
68.1800 22.7100 1.4491
68.2000 22.7168 1.4553
68.2200 22.7235 1.4518
68.2400 22.7301 1.4519
68.2600 22.7368 1.4530
68.2800 22.7434 1.4602
68.3000 22.7500 1.4549
68.3200 22.7566 1.4536
68.3400 22.7633 1.4588
68.3600 22.7700 1.4619
68.3800 22.7767 1.4525
68.4000 22.7834 1.4601
68.4200 22.7901 1.4609
68.4400 22.7967 1.4539
68.4600 22.8034 1.4609
68.4800 22.8100 1.4630
68.5000 22.8166 1.4542
68.5200 22.8233 1.4688
68.5400 22.8300 1.4598
68.5600 22.8367 1.4530
68.5800 22.8434 1.4685
68.6000 22.8500 1.4627
68.6200 22.8568 1.4527
68.6400 22.8634 1.4656
68.6600 22.8701 1.4653
68.6800 22.8767 1.4609
68.7000 22.8833 1.4657
68.7200 22.8900 1.4642
68.7400 22.8968 1.4629
68.7600 22.9035 1.4657
68.7800 22.9101 1.4654
68.8000 22.9168 1.4582
68.8200 22.9235 1.4657
68.8400 22.9301 1.4683
68.8600 22.9367 1.4673
68.8800 22.9433 1.4616
68.9000 22.9500 1.4722
68.9200 22.9568 1.4638
68.9400 22.9634 1.4659
68.9600 22.9701 1.4738
68.9800 22.9768 1.4674
69.0000 22.9835 1.4664
69.0200 22.9901 1.4774
69.0400 22.9967 1.4679
69.0600 23.0033 1.4664
69.0800 23.0100 1.4820
69.1000 23.0167 1.4632
69.1200 23.0234 1.4716
69.1400 23.0301 1.4823
69.1600 23.0368 1.4643
69.1800 23.0434 1.4709
69.2000 23.0500 1.4826
69.2200 23.0566 1.4650
69.2400 23.0632 1.4757
69.2600 23.0700 1.4841
69.2800 23.0767 1.4656
69.3000 23.0834 1.4741
69.3200 23.0901 1.4858
69.3400 23.0967 1.4640
69.3600 23.1034 1.4754
69.3800 23.1100 1.4819
69.4000 23.1167 1.4715
69.4200 23.1233 1.4803
69.4400 23.1300 1.4819
69.4600 23.1367 1.4656
69.4800 23.1434 1.4841
69.5000 23.1501 1.4834
69.5200 23.1568 1.4655
69.5400 23.1635 1.4839
69.5600 23.1701 1.4880
69.5800 23.1767 1.4681
69.6000 23.1833 1.4854
69.6200 23.1900 1.4883
69.6400 23.1967 1.4767
69.6600 23.2035 1.4817
69.6800 23.2101 1.4839
69.7000 23.2168 1.4747
69.7200 23.2235 1.4837
69.7400 23.2300 1.4904
69.7600 23.2366 1.4776
69.7800 23.2433 1.4877
69.8000 23.2500 1.4851
69.8200 23.2568 1.4808
69.8400 23.2634 1.4839
69.8600 23.2701 1.4919
69.8800 23.2768 1.4804
69.9000 23.2834 1.4847
69.9200 23.2901 1.4916
69.9400 23.2967 1.4878
69.9600 23.3033 1.4870
69.9800 23.3100 1.4941
70.0000 23.3167 1.4864
70.0200 23.3234 1.4847
70.0400 23.3300 1.4881
70.0600 23.3367 1.4907
70.0800 23.3434 1.4879
70.1000 23.3501 1.4931
70.1200 23.3567 1.4897
70.1400 23.3633 1.4876
70.1600 23.3700 1.4949
70.1800 23.3767 1.4898
70.2000 23.3834 1.4911
70.2200 23.3901 1.4970
70.2400 23.3968 1.4909
70.2600 23.4035 1.4892
70.2800 23.4101 1.4976
70.3000 23.4167 1.4961
70.3200 23.4233 1.4913
70.3400 23.4300 1.4994
70.3600 23.4368 1.4977
70.3800 23.4435 1.4895
70.4000 23.4501 1.5025
70.4200 23.4568 1.4984
70.4400 23.4634 1.4929
70.4600 23.4701 1.4992
70.4800 23.4767 1.5003
70.5000 23.4833 1.4885
70.5200 23.4900 1.5104
70.5400 23.4967 1.4995
70.5600 23.5034 1.4905
70.5800 23.5101 1.5083
70.6000 23.5168 1.5012
70.6200 23.5234 1.4942
70.6400 23.5301 1.5055
70.6600 23.5367 1.5045
70.6800 23.5433 1.4960
70.7000 23.5500 1.5070
70.7200 23.5567 1.5071
70.7400 23.5634 1.4946
70.7600 23.5701 1.5075
70.7800 23.5768 1.5038
70.8000 23.5834 1.4959
70.8200 23.5901 1.5120
70.8400 23.5967 1.5038
70.8600 23.6033 1.4979
70.8800 23.6100 1.5086
70.9000 23.6168 1.5087
70.9200 23.6235 1.4966
70.9400 23.6301 1.5087
70.9600 23.6368 1.5091
70.9800 23.6435 1.4969
71.0000 23.6501 1.5095
71.0200 23.6567 1.5158
71.0400 23.6633 1.4998
71.0600 23.6700 1.5162
71.0800 23.6767 1.5135
71.1000 23.6834 1.4997
71.1200 23.6901 1.5202
71.1400 23.6968 1.5142
71.1600 23.7035 1.4967
71.1800 23.7101 1.5211
71.2000 23.7167 1.5152
71.2200 23.7233 1.5026
71.2400 23.7300 1.5252
71.2600 23.7367 1.5156
71.2800 23.7434 1.5044
71.3000 23.7501 1.5217
71.3200 23.7568 1.5148
71.3400 23.7635 1.5023
71.3600 23.7701 1.5272
71.3800 23.7767 1.5162
71.4000 23.7833 1.5049
71.4200 23.7900 1.5260
71.4400 23.7967 1.5163
71.4600 23.8034 1.5041
71.4800 23.8101 1.5284
71.5000 23.8167 1.5192
71.5200 23.8234 1.5114
71.5400 23.8301 1.5267
71.5600 23.8367 1.5179
71.5800 23.8433 1.5091
71.6000 23.8500 1.5307
71.6200 23.8567 1.5173
71.6400 23.8634 1.5102
71.6600 23.8701 1.5264
71.6800 23.8768 1.5207
71.7000 23.8835 1.5137
71.7200 23.8901 1.5300
71.7400 23.8967 1.5196
71.7600 23.9033 1.5204
71.7800 23.9100 1.5314
71.8000 23.9167 1.5200
71.8200 23.9234 1.5227
71.8400 23.9301 1.5292
71.8600 23.9368 1.5192
71.8800 23.9434 1.5233
71.9000 23.9501 1.5344
71.9200 23.9567 1.5211
71.9400 23.9633 1.5287
71.9600 23.9700 1.5267
71.9800 23.9767 1.5254
72.0000 23.9834 1.5287
72.0200 23.9900 1.5317
72.0400 23.9967 1.5282
72.0600 24.0034 1.5310
72.0800 24.0100 1.5233
72.1000 24.0167 1.5308
72.1200 24.0233 1.5308
72.1400 24.0300 1.5309
72.1600 24.0367 1.5320
72.1800 24.0434 1.5293
72.2000 24.0501 1.5310
72.2200 24.0568 1.5343
72.2400 24.0635 1.5297
72.2600 24.0701 1.5341
72.2800 24.0767 1.5338
72.3000 24.0833 1.5312
72.3200 24.0900 1.5339
72.3400 24.0967 1.5390
72.3600 24.1034 1.5338
72.3800 24.1101 1.5318
72.4000 24.1168 1.5379
72.4200 24.1235 1.5346
72.4400 24.1301 1.5381
72.4600 24.1367 1.5401
72.4800 24.1433 1.5403
72.5000 24.1500 1.5314
72.5200 24.1567 1.5405
72.5400 24.1634 1.5401
72.5600 24.1701 1.5355
72.5800 24.1768 1.5396
72.6000 24.1835 1.5406
72.6200 24.1901 1.5311
72.6400 24.1967 1.5459
72.6600 24.2034 1.5437
72.6800 24.2100 1.5334
72.7000 24.2167 1.5443
72.7200 24.2234 1.5448
72.7400 24.2301 1.5338
72.7600 24.2368 1.5432
72.7800 24.2435 1.5470
72.8000 24.2501 1.5312
72.8200 24.2567 1.5478
72.8400 24.2633 1.5518
72.8600 24.2700 1.5372
72.8800 24.2767 1.5527
72.9000 24.2834 1.5485
72.9200 24.2901 1.5350
72.9400 24.2968 1.5537
72.9600 24.3034 1.5505
72.9800 24.3101 1.5372
73.0000 24.3167 1.5494
73.0200 24.3233 1.5520
73.0400 24.3300 1.5398
73.0600 24.3367 1.5562
73.0800 24.3434 1.5533
73.1000 24.3501 1.5433
73.1200 24.3568 1.5577
73.1400 24.3634 1.5534
73.1600 24.3701 1.5397
73.1800 24.3767 1.5616
73.2000 24.3834 1.5547
73.2200 24.3900 1.5456
73.2400 24.3967 1.5588
73.2600 24.4034 1.5554
73.2800 24.4101 1.5448
73.3000 24.4168 1.5580
73.3200 24.4235 1.5562
73.3400 24.4301 1.5474
73.3600 24.4367 1.5612
73.3800 24.4433 1.5551
73.4000 24.4500 1.5499
73.4200 24.4567 1.5604
73.4400 24.4634 1.5575
73.4600 24.4701 1.5457
73.4800 24.4768 1.5623
73.5000 24.4834 1.5640
73.5200 24.4901 1.5527
73.5400 24.4967 1.5605
73.5600 24.5033 1.5671
73.5800 24.5100 1.5504
73.6000 24.5167 1.5650
73.6200 24.5234 1.5661
73.6400 24.5300 1.5580
73.6600 24.5367 1.5649
73.6800 24.5434 1.5688
73.7000 24.5501 1.5505
73.7200 24.5567 1.5645
73.7400 24.5633 1.5694
73.7600 24.5700 1.5559
73.7800 24.5767 1.5677
73.8000 24.5834 1.5726
73.8200 24.5901 1.5569
73.8400 24.5968 1.5679
73.8600 24.6035 1.5738
73.8800 24.6101 1.5527
73.9000 24.6167 1.5714
73.9200 24.6233 1.5729
73.9400 24.6300 1.5544
73.9600 24.6367 1.5712
73.9800 24.6434 1.5723
74.0000 24.6501 1.5548
74.0200 24.6568 1.5753
74.0400 24.6634 1.5721
74.0600 24.6701 1.5589
74.0800 24.6767 1.5722
74.1000 24.6833 1.5744
74.1200 24.6900 1.5635
74.1400 24.6967 1.5765
74.1600 24.7034 1.5733
74.1800 24.7101 1.5624
74.2000 24.7167 1.5761
74.2200 24.7234 1.5775
74.2400 24.7301 1.5633
74.2600 24.7367 1.5799
74.2800 24.7433 1.5751
74.3000 24.7500 1.5664
74.3200 24.7566 1.5777
74.3400 24.7634 1.5758
74.3600 24.7701 1.5721
74.3800 24.7768 1.5763
74.4000 24.7834 1.5787
74.4200 24.7901 1.5711
74.4400 24.7967 1.5782
74.4600 24.8033 1.5827
74.4800 24.8100 1.5752
74.5000 24.8167 1.5785
74.5200 24.8234 1.5820
74.5400 24.8301 1.5735
74.5600 24.8368 1.5796
74.5800 24.8434 1.5837
74.6000 24.8501 1.5804
74.6200 24.8568 1.5813
74.6400 24.8634 1.5879
74.6600 24.8700 1.5764
74.6800 24.8767 1.5836
74.7000 24.8834 1.5886
74.7200 24.8901 1.5781
74.7400 24.8968 1.5822
74.7600 24.9035 1.5937
74.7800 24.9101 1.5747
74.8000 24.9167 1.5861
74.8200 24.9233 1.5922
74.8400 24.9300 1.5761
74.8600 24.9366 1.5903
74.8800 24.9434 1.5906
74.9000 24.9501 1.5778
74.9200 24.9568 1.5928
74.9400 24.9634 1.5920
74.9600 24.9701 1.5818
74.9800 24.9767 1.5926
75.0000 24.9833 1.5906
75.0200 24.9900 1.5894
75.0400 24.9966 1.5938
75.0600 25.0034 1.5903
75.0800 25.0100 1.5924
75.1000 25.0167 1.5954
75.1200 25.0234 1.5868
75.1400 25.0301 1.5967
75.1600 25.0367 1.5928
75.1800 25.0433 1.5906
75.2000 25.0500 1.5965
75.2200 25.0567 1.5935
75.2400 25.0634 1.5919
75.2600 25.0701 1.5985
75.2800 25.0768 1.5933
75.3000 25.0835 1.5950
75.3200 25.0902 1.5994
75.3400 25.0968 1.5908
75.3600 25.1034 1.5960
75.3800 25.1100 1.6092
75.4000 25.1167 1.5929
75.4200 25.1234 1.5971
75.4400 25.1301 1.6080
75.4600 25.1368 1.5898
75.4800 25.1435 1.6017
75.5000 25.1501 1.6048
75.5200 25.1567 1.5906
75.5400 25.1633 1.6046
75.5600 25.1700 1.6073
75.5800 25.1767 1.5893
75.6000 25.1834 1.6088
75.6200 25.1901 1.6054
75.6400 25.1967 1.5910
75.6600 25.2034 1.6097
75.6800 25.2101 1.6091
75.7000 25.2167 1.5902
75.7200 25.2234 1.6147
75.7400 25.2300 1.6097
75.7600 25.2367 1.5937
75.7800 25.2434 1.6119
75.8000 25.2501 1.6120
75.8200 25.2567 1.5943
75.8400 25.2634 1.6178
75.8600 25.2701 1.6046
75.8800 25.2767 1.5978
75.9000 25.2834 1.6170
75.9200 25.2900 1.6092
75.9400 25.2967 1.6042
75.9600 25.3034 1.6166
75.9800 25.3101 1.6111
76.0000 25.3168 1.6019
76.0200 25.3235 1.6195
76.0400 25.3301 1.6122
76.0600 25.3368 1.6033
76.0800 25.3434 1.6160
76.1000 25.3500 1.6166
76.1200 25.3567 1.6059
76.1400 25.3634 1.6167
76.1600 25.3701 1.6137
76.1800 25.3768 1.6097
76.2000 25.3835 1.6113
76.2200 25.3901 1.6174
76.2400 25.3967 1.6135
76.2600 25.4034 1.6217
76.2800 25.4100 1.6176
76.3000 25.4167 1.6124
76.3200 25.4233 1.6189
76.3400 25.4300 1.6212
76.3600 25.4367 1.6137
76.3800 25.4434 1.6216
76.4000 25.4501 1.6217
76.4200 25.4567 1.6134
76.4400 25.4633 1.6209
76.4600 25.4699 1.6265
76.4800 25.4766 1.6182
76.5000 25.4833 1.6179
76.5200 25.4901 1.6250
76.5400 25.4967 1.6241
76.5600 25.5034 1.6195
76.5800 25.5101 1.6275
76.6000 25.5167 1.6241
76.6200 25.5234 1.6171
76.6400 25.5300 1.6294
76.6600 25.5367 1.6256
76.6800 25.5434 1.6252
76.7000 25.5501 1.6266
76.7200 25.5568 1.6262
76.7400 25.5634 1.6252
76.7600 25.5701 1.6321
76.7800 25.5768 1.6204
76.8000 25.5834 1.6280
76.8200 25.5900 1.6368
76.8400 25.5966 1.6261
76.8600 25.6033 1.6267
76.8800 25.6101 1.6347
76.9000 25.6168 1.6269
76.9200 25.6235 1.6306
76.9400 25.6301 1.6305
76.9600 25.6368 1.6295
76.9800 25.6434 1.6327
77.0000 25.6500 1.6314
77.0200 25.6567 1.6309
77.0400 25.6634 1.6362
77.0600 25.6701 1.6318
77.0800 25.6768 1.6290
77.1000 25.6834 1.6409
77.1200 25.6901 1.6309
77.1400 25.6967 1.6373
77.1600 25.7033 1.6362
77.1800 25.7100 1.6342
77.2000 25.7166 1.6434
77.2200 25.7233 1.6316
77.2400 25.7300 1.6350
77.2600 25.7367 1.6460
77.2800 25.7434 1.6297
77.3000 25.7500 1.6414
77.3200 25.7567 1.6445
77.3400 25.7634 1.6293
77.3600 25.7700 1.6442
77.3800 25.7766 1.6519
77.4000 25.7833 1.6222
77.4200 25.7901 1.6492
77.4400 25.7968 1.6488
77.4600 25.8035 1.6289
77.4800 25.8102 1.6486
77.5000 25.8168 1.6438
77.5200 25.8234 1.6324
77.5400 25.8300 1.6566
77.5600 25.8367 1.6439
77.5800 25.8434 1.6310
77.6000 25.8501 1.6612
77.6200 25.8568 1.6398
77.6400 25.8635 1.6341
77.6600 25.8701 1.6620
77.6800 25.8768 1.6466
77.7000 25.8834 1.6363
77.7200 25.8900 1.6567
77.7400 25.8967 1.6477
77.7600 25.9033 1.6433
77.7800 25.9100 1.6587
77.8000 25.9167 1.6452
77.8200 25.9234 1.6432
77.8400 25.9301 1.6660
77.8600 25.9368 1.6444
77.8800 25.9434 1.6441
77.9000 25.9500 1.6635
77.9200 25.9566 1.6534
77.9400 25.9633 1.6444
77.9600 25.9700 1.6593
77.9800 25.9767 1.6535
78.0000 25.9834 1.6461
78.0200 25.9901 1.6552
78.0400 25.9967 1.6578
78.0600 26.0034 1.6505
78.0800 26.0100 1.6568
78.1000 26.0166 1.6600
78.1200 26.0234 1.6510
78.1400 26.0301 1.6623
78.1600 26.0368 1.6663
78.1800 26.0435 1.6501
78.2000 26.0501 1.6582
78.2200 26.0568 1.6684
78.2400 26.0634 1.6495
78.2600 26.0700 1.6629
78.2800 26.0767 1.6703
78.3000 26.0834 1.6482
78.3200 26.0901 1.6641
78.3400 26.0968 1.6700
78.3600 26.1034 1.6483
78.3800 26.1101 1.6719
78.4000 26.1168 1.6672
78.4200 26.1234 1.6518
78.4400 26.1300 1.6729
78.4600 26.1366 1.6684
78.4800 26.1433 1.6544
78.5000 26.1500 1.6699
78.5200 26.1567 1.6670
78.5400 26.1634 1.6632
78.5600 26.1701 1.6755
78.5800 26.1768 1.6629
78.6000 26.1834 1.6618
78.6200 26.1900 1.6784
78.6400 26.1966 1.6699
78.6600 26.2033 1.6620
78.6800 26.2101 1.6783
78.7000 26.2167 1.6678
78.7200 26.2234 1.6687
78.7400 26.2301 1.6769
78.7600 26.2368 1.6726
78.7800 26.2434 1.6677
78.8000 26.2500 1.6725
78.8200 26.2567 1.6730
78.8400 26.2634 1.6748
78.8600 26.2701 1.6741
78.8800 26.2767 1.6756
78.9000 26.2834 1.6704
78.9200 26.2901 1.6748
78.9400 26.2968 1.6789
78.9600 26.3034 1.6731
78.9800 26.3100 1.6767
79.0000 26.3166 1.6836
79.0200 26.3233 1.6756
79.0400 26.3301 1.6765
79.0600 26.3368 1.6854
79.0800 26.3434 1.6782
79.1000 26.3501 1.6793
79.1200 26.3568 1.6871
79.1400 26.3634 1.6762
79.1600 26.3700 1.6821
79.1800 26.3767 1.6868
79.2000 26.3834 1.6782
79.2200 26.3901 1.6855
79.2400 26.3967 1.6867
79.2600 26.4034 1.6788
79.2800 26.4101 1.6886
79.3000 26.4168 1.6871
79.3200 26.4234 1.6764
79.3400 26.4300 1.6918
79.3600 26.4366 1.6873
79.3800 26.4433 1.6799
79.4000 26.4500 1.6910
79.4200 26.4567 1.6916
79.4400 26.4634 1.6802
79.4600 26.4701 1.6921
79.4800 26.4768 1.6877
79.5000 26.4834 1.6839
79.5200 26.4900 1.6965
79.5400 26.4967 1.6940
79.5600 26.5034 1.6865
79.5800 26.5101 1.6948
79.6000 26.5168 1.6836
79.6200 26.5235 1.6923
79.6400 26.5301 1.6979
79.6600 26.5368 1.6842
79.6800 26.5434 1.6951
79.7000 26.5500 1.6966
79.7200 26.5567 1.6906
79.7400 26.5634 1.7006
79.7600 26.5701 1.6951
79.7800 26.5768 1.6898
79.8000 26.5834 1.7043
79.8200 26.5901 1.6941
79.8400 26.5968 1.6948
79.8600 26.6034 1.7036
79.8800 26.6100 1.6935
79.9000 26.6166 1.7005
79.9200 26.6233 1.7072
79.9400 26.6300 1.6885
79.9600 26.6367 1.7054
79.9800 26.6434 1.7055
80.0000 26.6501 1.6885
80.0200 26.6568 1.7025
80.0400 26.6634 1.7131
80.0600 26.6700 1.6864
80.0800 26.6766 1.7073
80.1000 26.6833 1.7142
80.1200 26.6900 1.6879
80.1400 26.6967 1.7146
80.1600 26.7034 1.7113
80.1800 26.7101 1.6891
80.2000 26.7167 1.7161
80.2200 26.7234 1.7109
80.2400 26.7300 1.6921
80.2600 26.7366 1.7199
80.2800 26.7433 1.7069
80.3000 26.7501 1.6951
80.3200 26.7568 1.7207
80.3400 26.7634 1.7076
80.3600 26.7701 1.6975
80.3800 26.7768 1.7205
80.4000 26.7834 1.7052
80.4200 26.7900 1.7050
80.4400 26.7967 1.7226
80.4600 26.8034 1.7098
80.4800 26.8101 1.7044
80.5000 26.8168 1.7218
80.5200 26.8235 1.7133
80.5400 26.8302 1.7142
80.5600 26.8368 1.7214
80.5800 26.8434 1.7121
80.6000 26.8500 1.7139
80.6200 26.8566 1.7207
80.6400 26.8633 1.7161
80.6600 26.8700 1.7144
80.6800 26.8767 1.7186
80.7000 26.8834 1.7205
80.7200 26.8901 1.7147
80.7400 26.8968 1.7201
80.7600 26.9034 1.7213
80.7800 26.9100 1.7130
80.8000 26.9166 1.7277
80.8200 26.9233 1.7183
80.8400 26.9300 1.7201
80.8600 26.9367 1.7218
80.8800 26.9434 1.7214
80.9000 26.9501 1.7211
80.9200 26.9568 1.7254
80.9400 26.9634 1.7234
80.9600 26.9701 1.7207
80.9800 26.9767 1.7275
81.0000 26.9833 1.7271
81.0200 26.9900 1.7194
81.0400 26.9967 1.7298
81.0600 27.0034 1.7259
81.0800 27.0101 1.7271
81.1000 27.0168 1.7253
81.1200 27.0235 1.7264
81.1400 27.0300 1.7303
81.1600 27.0367 1.7299
81.1800 27.0433 1.7302
81.2000 27.0501 1.7316
81.2200 27.0568 1.7276
81.2400 27.0635 1.7283
81.2600 27.0701 1.7346
81.2800 27.0768 1.7322
81.3000 27.0834 1.7349
81.3200 27.0900 1.7305
81.3400 27.0967 1.7368
81.3600 27.1033 1.7367
81.3800 27.1100 1.7301
81.4000 27.1167 1.7337
81.4200 27.1234 1.7450
81.4400 27.1301 1.7279
81.4600 27.1368 1.7323
81.4800 27.1434 1.7433
81.5000 27.1500 1.7304
81.5200 27.1566 1.7351
81.5400 27.1633 1.7490
81.5600 27.1700 1.7330
81.5800 27.1767 1.7405
81.6000 27.1834 1.7438
81.6200 27.1901 1.7303
81.6400 27.1967 1.7368
81.6600 27.2034 1.7473
81.6800 27.2100 1.7335
81.7000 27.2166 1.7459
81.7200 27.2233 1.7494
81.7400 27.2300 1.7339
81.7600 27.2368 1.7396
81.7800 27.2435 1.7471
81.8000 27.2501 1.7411
81.8200 27.2568 1.7429
81.8400 27.2635 1.7459
81.8600 27.2701 1.7430
81.8800 27.2767 1.7466
81.9000 27.2834 1.7501
81.9200 27.2901 1.7449
81.9400 27.2968 1.7459
81.9600 27.3035 1.7534
81.9800 27.3101 1.7444
82.0000 27.3168 1.7478
82.0200 27.3234 1.7518
82.0400 27.3300 1.7503
82.0600 27.3366 1.7456
82.0800 27.3433 1.7563
82.1000 27.3500 1.7513
82.1200 27.3567 1.7496
82.1400 27.3634 1.7565
82.1600 27.3701 1.7516
82.1800 27.3768 1.7553
82.2000 27.3834 1.7558
82.2200 27.3900 1.7510
82.2400 27.3966 1.7578
82.2600 27.4033 1.7622
82.2800 27.4100 1.7504
82.3000 27.4168 1.7566
82.3200 27.4234 1.7631
82.3400 27.4301 1.7568
82.3600 27.4368 1.7547
82.3800 27.4434 1.7648
82.4000 27.4501 1.7554
82.4200 27.4567 1.7612
82.4400 27.4634 1.7614
82.4600 27.4700 1.7602
82.4800 27.4767 1.7596
82.5000 27.4834 1.7623
82.5200 27.4901 1.7620
82.5400 27.4968 1.7599
82.5600 27.5035 1.7653
82.5800 27.5101 1.7648
82.6000 27.5167 1.7587
82.6200 27.5233 1.7728
82.6400 27.5300 1.7659
82.6600 27.5368 1.7655
82.6800 27.5435 1.7662
82.7000 27.5501 1.7651
82.7200 27.5568 1.7592
82.7400 27.5634 1.7729
82.7600 27.5700 1.7691
82.7800 27.5766 1.7652
82.8000 27.5833 1.7790
82.8200 27.5900 1.7675
82.8400 27.5967 1.7656
82.8600 27.6034 1.7757
82.8800 27.6101 1.7722
82.9000 27.6167 1.7723
82.9200 27.6234 1.7771
82.9400 27.6301 1.7661
82.9600 27.6367 1.7751
82.9800 27.6433 1.7771
83.0000 27.6500 1.7711
83.0200 27.6567 1.7716
83.0400 27.6634 1.7759
83.0600 27.6701 1.7718
83.0800 27.6768 1.7743
83.1000 27.6834 1.7774
83.1200 27.6901 1.7779
83.1400 27.6967 1.7748
83.1600 27.7033 1.7799
83.1800 27.7100 1.7819
83.2000 27.7168 1.7779
83.2200 27.7235 1.7797
83.2400 27.7301 1.7842
83.2600 27.7368 1.7743
83.2800 27.7434 1.7844
83.3000 27.7501 1.7846
83.3200 27.7567 1.7770
83.3400 27.7633 1.7872
83.3600 27.7700 1.7870
83.3800 27.7767 1.7755
83.4000 27.7834 1.7853
83.4200 27.7901 1.7907
83.4400 27.7968 1.7787
83.4600 27.8035 1.7880
83.4800 27.8101 1.7861
83.5000 27.8167 1.7870
83.5200 27.8233 1.7925
83.5400 27.8300 1.7898
83.5600 27.8367 1.7844
83.5800 27.8434 1.7887
83.6000 27.8501 1.7902
83.6200 27.8568 1.7890
83.6400 27.8635 1.7909
83.6600 27.8700 1.7961
83.6800 27.8766 1.7898
83.7000 27.8832 1.7885
83.7200 27.8899 1.7968
83.7400 27.8967 1.7928
83.7600 27.9034 1.7902
83.7800 27.9101 1.7981
83.8000 27.9167 1.7935
83.8200 27.9234 1.7915
83.8400 27.9301 1.7999
83.8600 27.9367 1.7963
83.8800 27.9433 1.7974
83.9000 27.9500 1.7999
83.9200 27.9567 1.7984
83.9400 27.9634 1.7972
83.9600 27.9701 1.8035
83.9800 27.9768 1.7960
84.0000 27.9835 1.8002
84.0200 27.9901 1.8040
84.0400 27.9967 1.7957
84.0600 28.0033 1.8013
84.0800 28.0100 1.8095
84.1000 28.0167 1.7964
84.1200 28.0234 1.8046
84.1400 28.0301 1.8088
84.1600 28.0368 1.8010
84.1800 28.0434 1.8016
84.2000 28.0501 1.8086
84.2200 28.0567 1.8020
84.2400 28.0633 1.8059
84.2600 28.0700 1.8100
84.2800 28.0767 1.8063
84.3000 28.0834 1.8063
84.3200 28.0901 1.8125
84.3400 28.0968 1.8084
84.3600 28.1034 1.8030
84.3800 28.1101 1.8151
84.4000 28.1167 1.8132
84.4200 28.1233 1.8081
84.4400 28.1300 1.8148
84.4600 28.1367 1.8127
84.4800 28.1434 1.8041
84.5000 28.1501 1.8214
84.5200 28.1567 1.8155
84.5400 28.1634 1.8029
84.5600 28.1701 1.8191
84.5800 28.1767 1.8182
84.6000 28.1833 1.8049
84.6200 28.1900 1.8266
84.6400 28.1967 1.8157
84.6600 28.2034 1.8067
84.6800 28.2101 1.8245
84.7000 28.2168 1.8168
84.7200 28.2234 1.8158
84.7400 28.2301 1.8250
84.7600 28.2367 1.8161
84.7800 28.2433 1.8204
84.8000 28.2500 1.8258
84.8200 28.2567 1.8138
84.8400 28.2634 1.8214
84.8600 28.2701 1.8261
84.8800 28.2768 1.8214
84.9000 28.2835 1.8252
84.9200 28.2901 1.8238
84.9400 28.2967 1.8239
84.9600 28.3033 1.8310
84.9800 28.3100 1.8192
85.0000 28.3167 1.8276
85.0200 28.3234 1.8318
85.0400 28.3301 1.8274
85.0600 28.3367 1.8300
85.0800 28.3434 1.8264
85.1000 28.3501 1.8240
85.1200 28.3567 1.8398
85.1400 28.3633 1.8239
85.1600 28.3700 1.8251
85.1800 28.3767 1.8398
85.2000 28.3834 1.8246
85.2200 28.3901 1.8267
85.2400 28.3968 1.8436
85.2600 28.4034 1.8238
85.2800 28.4101 1.8309
85.3000 28.4167 1.8443
85.3200 28.4233 1.8281
85.3400 28.4300 1.8326
85.3600 28.4368 1.8454
85.3800 28.4435 1.8247
85.4000 28.4501 1.8369
85.4200 28.4568 1.8494
85.4400 28.4635 1.8216
85.4600 28.4701 1.8410
85.4800 28.4767 1.8465
85.5000 28.4833 1.8300
85.5200 28.4900 1.8483
85.5400 28.4967 1.8416
85.5600 28.5034 1.8263
85.5800 28.5101 1.8536
85.6000 28.5168 1.8416
85.6200 28.5235 1.8332
85.6400 28.5301 1.8511
85.6600 28.5367 1.8420
85.6800 28.5433 1.8349
85.7000 28.5500 1.8545
85.7200 28.5567 1.8478
85.7400 28.5634 1.8388
85.7600 28.5701 1.8482
85.7800 28.5768 1.8497
85.8000 28.5835 1.8423
85.8200 28.5901 1.8515
85.8400 28.5967 1.8475
85.8600 28.6033 1.8448
85.8800 28.6099 1.8563
85.9000 28.6167 1.8475
85.9200 28.6234 1.8466
85.9400 28.6301 1.8548
85.9600 28.6367 1.8504
85.9800 28.6434 1.8450
86.0000 28.6501 1.8576
86.0200 28.6567 1.8591
86.0400 28.6633 1.8470
86.0600 28.6700 1.8560
86.0800 28.6767 1.8584
86.1000 28.6834 1.8486
86.1200 28.6901 1.8585
86.1400 28.6968 1.8628
86.1600 28.7035 1.8497
86.1800 28.7101 1.8541
86.2000 28.7167 1.8685
86.2200 28.7233 1.8469
86.2400 28.7300 1.8589
86.2600 28.7367 1.8672
86.2800 28.7434 1.8487
86.3000 28.7501 1.8579
86.3200 28.7568 1.8689
86.3400 28.7635 1.8502
86.3600 28.7701 1.8647
86.3800 28.7767 1.8684
86.4000 28.7833 1.8496
86.4200 28.7900 1.8701
86.4400 28.7967 1.8737
86.4600 28.8034 1.8468
86.4800 28.8101 1.8714
86.5000 28.8167 1.8760
86.5200 28.8234 1.8546
86.5400 28.8301 1.8736
86.5600 28.8367 1.8718
86.5800 28.8433 1.8642
86.6000 28.8500 1.8761
86.6200 28.8567 1.8714
86.6400 28.8634 1.8624
86.6600 28.8701 1.8744
86.6800 28.8767 1.8686
86.7000 28.8835 1.8682
86.7200 28.8901 1.8750
86.7400 28.8968 1.8727
86.7600 28.9034 1.8660
86.7800 28.9100 1.8787
86.8000 28.9167 1.8767
86.8200 28.9234 1.8724
86.8400 28.9301 1.8754
86.8600 28.9368 1.8800
86.8800 28.9435 1.8728
86.9000 28.9501 1.8745
86.9200 28.9567 1.8792
86.9400 28.9633 1.8810
86.9600 28.9700 1.8796
86.9800 28.9767 1.8801
87.0000 28.9834 1.8794
87.0200 28.9901 1.8812
87.0400 28.9968 1.8848
87.0600 29.0034 1.8797
87.0800 29.0101 1.8833
87.1000 29.0168 1.8880
87.1200 29.0234 1.8802
87.1400 29.0300 1.8813
87.1600 29.0367 1.8911
87.1800 29.0434 1.8799
87.2000 29.0501 1.8859
87.2200 29.0568 1.8920
87.2400 29.0635 1.8865
87.2600 29.0701 1.8854
87.2800 29.0767 1.8892
87.3000 29.0833 1.8854
87.3200 29.0899 1.8915
87.3400 29.0966 1.8899
87.3600 29.1034 1.8868
87.3800 29.1101 1.8869
87.4000 29.1167 1.8993
87.4200 29.1234 1.8843
87.4400 29.1301 1.8919
87.4600 29.1367 1.8996
87.4800 29.1433 1.8913
87.5000 29.1500 1.8987
87.5200 29.1567 1.8944
87.5400 29.1634 1.8914
87.5600 29.1701 1.9003
87.5800 29.1768 1.9009
87.6000 29.1835 1.8901
87.6200 29.1901 1.8994
87.6400 29.1968 1.9005
87.6600 29.2034 1.8931
87.6800 29.2100 1.9043
87.7000 29.2167 1.9035
87.7200 29.2234 1.8986
87.7400 29.2301 1.8974
87.7600 29.2368 1.9015
87.7800 29.2435 1.9070
87.8000 29.2501 1.8964
87.8200 29.2567 1.9056
87.8400 29.2633 1.9029
87.8600 29.2699 1.9024
87.8800 29.2767 1.9056
87.9000 29.2834 1.9037
87.9200 29.2901 1.9035
87.9400 29.2968 1.9054
87.9600 29.3034 1.9078
87.9800 29.3101 1.9055
88.0000 29.3167 1.9049
88.0200 29.3233 1.9158
88.0400 29.3300 1.9089
88.0600 29.3367 1.9074
88.0800 29.3434 1.9138
88.1000 29.3500 1.9129
88.1200 29.3567 1.9113
88.1400 29.3634 1.9137
88.1600 29.3701 1.9171
88.1800 29.3767 1.9048
88.2000 29.3833 1.9228
88.2200 29.3900 1.9162
88.2400 29.3967 1.9142
88.2600 29.4034 1.9181
88.2800 29.4101 1.9102
88.3000 29.4168 1.9161
88.3200 29.4235 1.9234
88.3400 29.4301 1.9154
88.3600 29.4368 1.9190
88.3800 29.4434 1.9206
88.4000 29.4500 1.9173
88.4200 29.4567 1.9187
88.4400 29.4634 1.9250
88.4600 29.4701 1.9184
88.4800 29.4768 1.9200
88.5000 29.4835 1.9203
88.5200 29.4901 1.9237
88.5400 29.4967 1.9237
88.5600 29.5033 1.9247
88.5800 29.5100 1.9318
88.6000 29.5167 1.9269
88.6200 29.5234 1.9206
88.6400 29.5301 1.9326
88.6600 29.5367 1.9297
88.6800 29.5434 1.9235
88.7000 29.5501 1.9287
88.7200 29.5567 1.9275
88.7400 29.5633 1.9288
88.7600 29.5699 1.9323
88.7800 29.5766 1.9277
88.8000 29.5834 1.9305
88.8200 29.5901 1.9393
88.8400 29.5968 1.9232
88.8600 29.6034 1.9364
88.8800 29.6101 1.9353
88.9000 29.6167 1.9303
88.9200 29.6234 1.9369
88.9400 29.6300 1.9387
88.9600 29.6367 1.9323
88.9800 29.6434 1.9396
89.0000 29.6501 1.9345
89.0200 29.6568 1.9388
89.0400 29.6634 1.9401
89.0600 29.6701 1.9351
89.0800 29.6768 1.9395
89.1000 29.6834 1.9440
89.1200 29.6900 1.9357
89.1400 29.6967 1.9414
89.1600 29.7034 1.9418
89.1800 29.7101 1.9387
89.2000 29.7168 1.9456
89.2200 29.7235 1.9423
89.2400 29.7301 1.9403
89.2600 29.7368 1.9493
89.2800 29.7434 1.9455
89.3000 29.7500 1.9432
89.3200 29.7566 1.9512
89.3400 29.7634 1.9422
89.3600 29.7701 1.9465
89.3800 29.7768 1.9498
89.4000 29.7834 1.9439
89.4200 29.7901 1.9464
89.4400 29.7967 1.9544
89.4600 29.8033 1.9454
89.4800 29.8099 1.9552
89.5000 29.8166 1.9523
89.5200 29.8233 1.9496
89.5400 29.8300 1.9586
89.5600 29.8367 1.9500
89.5800 29.8434 1.9521
89.6000 29.8501 1.9606
89.6200 29.8567 1.9516
89.6400 29.8634 1.9554
89.6600 29.8700 1.9612
89.6800 29.8767 1.9567
89.7000 29.8834 1.9574
89.7200 29.8901 1.9599
89.7400 29.8968 1.9530
89.7600 29.9035 1.9605
89.7800 29.9102 1.9621
89.8000 29.9168 1.9504
89.8200 29.9234 1.9676
89.8400 29.9300 1.9677
89.8600 29.9366 1.9553
89.8800 29.9434 1.9636
89.9000 29.9501 1.9687
89.9200 29.9568 1.9545
89.9400 29.9635 1.9650
89.9600 29.9701 1.9644
89.9800 29.9768 1.9607
90.0000 29.9833 1.9730
90.0200 29.9900 1.9714
90.0400 29.9967 1.9614
90.0600 30.0034 1.9716
90.0800 30.0101 1.9681
90.1000 30.0167 1.9661
90.1200 30.0234 1.9722
90.1400 30.0301 1.9721
90.1600 30.0368 1.9633
90.1800 30.0434 1.9738
90.2000 30.0500 1.9685
90.2200 30.0567 1.9658
90.2400 30.0634 1.9847
90.2600 30.0700 1.9717
90.2800 30.0767 1.9674
90.3000 30.0834 1.9789
90.3200 30.0901 1.9782
90.3400 30.0967 1.9685
90.3600 30.1033 1.9786
90.3800 30.1100 1.9830
90.4000 30.1166 1.9763
90.4200 30.1234 1.9729
90.4400 30.1301 1.9865
90.4600 30.1368 1.9749
90.4800 30.1435 1.9832
90.5000 30.1501 1.9814
90.5200 30.1568 1.9722
90.5400 30.1634 1.9859
90.5600 30.1700 1.9872
90.5800 30.1767 1.9767
90.6000 30.1834 1.9835
90.6200 30.1901 1.9896
90.6400 30.1968 1.9786
90.6600 30.2034 1.9833
90.6800 30.2101 1.9954
90.7000 30.2167 1.9766
90.7200 30.2234 1.9880
90.7400 30.2300 1.9939
90.7600 30.2366 1.9780
90.7800 30.2433 1.9964
90.8000 30.2500 1.9910
90.8200 30.2567 1.9872
90.8400 30.2634 1.9946
90.8600 30.2701 1.9911
90.8800 30.2768 1.9896
90.9000 30.2834 1.9998
90.9200 30.2900 1.9900
90.9400 30.2966 1.9923
90.9600 30.3033 2.0066
90.9800 30.3101 1.9864
91.0000 30.3168 1.9913
91.0200 30.3234 2.0044
91.0400 30.3301 1.9921
91.0600 30.3367 2.0023
91.0800 30.3434 1.9988
91.1000 30.3500 1.9963
91.1200 30.3567 2.0003
91.1400 30.3634 2.0006
91.1600 30.3701 1.9975
91.1800 30.3768 2.0077
91.2000 30.3834 2.0067
91.2200 30.3901 1.9980
91.2400 30.3968 2.0061
91.2600 30.4034 2.0066
91.2800 30.4100 2.0029
91.3000 30.4166 2.0104
91.3200 30.4233 2.0094
91.3400 30.4300 2.0030
91.3600 30.4368 2.0118
91.3800 30.4434 2.0048
91.4000 30.4501 2.0038
91.4200 30.4568 2.0183
91.4400 30.4634 2.0066
91.4600 30.4700 2.0035
91.4800 30.4767 2.0183
91.5000 30.4834 2.0120
91.5200 30.4901 2.0086
91.5400 30.4968 2.0135
91.5600 30.5034 2.0204
91.5800 30.5101 2.0066
91.6000 30.5168 2.0176
91.6200 30.5234 2.0184
91.6400 30.5300 2.0107
91.6600 30.5366 2.0210
91.6800 30.5433 2.0232
91.7000 30.5500 2.0094
91.7200 30.5567 2.0214
91.7400 30.5634 2.0275
91.7600 30.5700 2.0094
91.7800 30.5767 2.0251
91.8000 30.5834 2.0305
91.8200 30.5900 2.0128
91.8400 30.5966 2.0264
91.8600 30.6033 2.0285
91.8800 30.6101 2.0125
91.9000 30.6168 2.0340
91.9200 30.6235 2.0326
91.9400 30.6302 2.0135
91.9600 30.6368 2.0358
91.9800 30.6434 2.0310
92.0000 30.6500 2.0151
92.0200 30.6567 2.0405
92.0400 30.6634 2.0317
92.0600 30.6701 2.0136
92.0800 30.6768 2.0405
92.1000 30.6835 2.0365
92.1200 30.6901 2.0158
92.1400 30.6968 2.0419
92.1600 30.7034 2.0301
92.1800 30.7100 2.0259
92.2000 30.7167 2.0486
92.2200 30.7234 2.0289
92.2400 30.7301 2.0279
92.2600 30.7367 2.0483
92.2800 30.7434 2.0309
92.3000 30.7501 2.0326
92.3200 30.7568 2.0497
92.3400 30.7634 2.0352
92.3600 30.7700 2.0382
92.3800 30.7766 2.0448
92.4000 30.7833 2.0391
92.4200 30.7900 2.0403
92.4400 30.7967 2.0437
92.4600 30.8034 2.0404
92.4800 30.8101 2.0506
92.5000 30.8168 2.0409
92.5200 30.8234 2.0435
92.5400 30.8300 2.0483
92.5600 30.8367 2.0452
92.5800 30.8434 2.0448
92.6000 30.8501 2.0514
92.6200 30.8568 2.0426
92.6400 30.8635 2.0505
92.6600 30.8701 2.0558
92.6800 30.8768 2.0522
92.7000 30.8834 2.0470
92.7200 30.8900 2.0535
92.7400 30.8967 2.0514
92.7600 30.9034 2.0514
92.7800 30.9101 2.0640
92.8000 30.9168 2.0523
92.8200 30.9234 2.0437
92.8400 30.9301 2.0633
92.8600 30.9368 2.0547
92.8800 30.9434 2.0530
92.9000 30.9500 2.0614
92.9200 30.9566 2.0528
92.9400 30.9633 2.0559
92.9600 30.9700 2.0636
92.9800 30.9767 2.0605
93.0000 30.9834 2.0581
93.0200 30.9901 2.0633
93.0400 30.9968 2.0574
93.0600 31.0034 2.0645
93.0800 31.0100 2.0658
93.1000 31.0166 2.0611
93.1200 31.0233 2.0689
93.1400 31.0300 2.0721
93.1600 31.0367 2.0592
93.1800 31.0434 2.0619
93.2000 31.0501 2.0706
93.2200 31.0568 2.0716
93.2400 31.0634 2.0690
93.2600 31.0700 2.0677
93.2800 31.0767 2.0648
93.3000 31.0833 2.0666
93.3200 31.0900 2.0775
93.3400 31.0967 2.0807
93.3600 31.1034 2.0591
93.3800 31.1101 2.0703
93.4000 31.1168 2.0868
93.4200 31.1234 2.0614
93.4400 31.1300 2.0786
93.4600 31.1367 2.0883
93.4800 31.1434 2.0628
93.5000 31.1501 2.0719
93.5200 31.1568 2.0896
93.5400 31.1635 2.0704
93.5600 31.1701 2.0749
93.5800 31.1768 2.0832
93.6000 31.1834 2.0745
93.6200 31.1900 2.0848
93.6400 31.1966 2.0881
93.6600 31.2033 2.0688
93.6800 31.2101 2.0892
93.7000 31.2168 2.0925
93.7200 31.2234 2.0756
93.7400 31.2301 2.0843
93.7600 31.2368 2.0878
93.7800 31.2434 2.0740
93.8000 31.2500 2.0886
93.8200 31.2566 2.1015
93.8400 31.2633 2.0847
93.8600 31.2700 2.0897
93.8800 31.2767 2.0946
93.9000 31.2834 2.0821
93.9200 31.2901 2.0827
93.9400 31.2968 2.1062
93.9600 31.3034 2.1028
93.9800 31.3100 2.0841
94.0000 31.3166 2.0845
94.0200 31.3233 2.0905
94.0400 31.3300 2.0985
94.0600 31.3368 2.1202
94.0800 31.3435 2.0907
94.1000 31.3502 2.0816
94.1200 31.3568 2.0994
94.1400 31.3634 2.0949
94.1600 31.3700 2.1045
94.1800 31.3767 2.1257
94.2000 31.3834 2.0817
94.2200 31.3901 2.0755
94.2400 31.3968 2.1235
94.2600 31.4034 2.1175
94.2800 31.4101 2.0936
94.3000 31.4168 2.1055
94.3200 31.4234 2.0924
94.3400 31.4300 2.1073
94.3600 31.4366 2.1201
94.3800 31.4433 2.1024
94.4000 31.4500 2.1048
94.4200 31.4567 2.1142
94.4400 31.4634 2.1099
94.4600 31.4701 2.1094
94.4800 31.4768 2.1098
94.5000 31.4834 2.1037
94.5200 31.4900 2.1185
94.5400 31.4966 2.1182
94.5600 31.5033 2.1102
94.5800 31.5100 2.1148
94.6000 31.5167 2.1076
94.6200 31.5234 2.1095
94.6400 31.5301 2.1329
94.6600 31.5367 2.1171
94.6800 31.5434 2.1055
94.7000 31.5500 2.1274
94.7200 31.5566 2.1225
94.7400 31.5633 2.1023
94.7600 31.5701 2.1354
94.7800 31.5768 2.1312
94.8000 31.5835 2.1097
94.8200 31.5901 2.1240
94.8400 31.5968 2.1280
94.8600 31.6035 2.1116
94.8800 31.6101 2.1342
94.9000 31.6167 2.1356
94.9200 31.6233 2.1113
94.9400 31.6300 2.1321
94.9600 31.6368 2.1263
94.9800 31.6435 2.1163
95.0000 31.6502 2.1437
95.0200 31.6568 2.1322
95.0400 31.6635 2.1105
95.0600 31.6701 2.1386
95.0800 31.6766 2.1419
95.1000 31.6833 2.1206
95.1200 31.6900 2.1438
95.1400 31.6967 2.1370
95.1600 31.7034 2.1171
95.1800 31.7101 2.1472
95.2000 31.7168 2.1363
95.2200 31.7234 2.1243
95.2400 31.7300 2.1494
95.2600 31.7366 2.1371
95.2800 31.7433 2.1292
95.3000 31.7500 2.1502
95.3200 31.7567 2.1401
95.3400 31.7634 2.1316
95.3600 31.7700 2.1498
95.3800 31.7767 2.1435
95.4000 31.7834 2.1349
95.4200 31.7901 2.1426
95.4400 31.7967 2.1485
95.4600 31.8033 2.1468
95.4800 31.8100 2.1468
95.5000 31.8167 2.1429
95.5200 31.8234 2.1425
95.5400 31.8301 2.1558
95.5600 31.8368 2.1508
95.5800 31.8435 2.1385
95.6000 31.8500 2.1501
95.6200 31.8566 2.1574
95.6400 31.8633 2.1468
95.6600 31.8700 2.1448
95.6800 31.8768 2.1664
95.7000 31.8835 2.1493
95.7200 31.8901 2.1448
95.7400 31.8968 2.1604
95.7600 31.9034 2.1586
95.7800 31.9101 2.1566
95.8000 31.9167 2.1576
95.8200 31.9233 2.1521
95.8400 31.9300 2.1657
95.8600 31.9367 2.1642
95.8800 31.9434 2.1481
95.9000 31.9501 2.1535
95.9200 31.9568 2.1722
95.9400 31.9634 2.1527
95.9600 31.9700 2.1549
95.9800 31.9766 2.1767
96.0000 31.9833 2.1592
96.0200 31.9900 2.1567
96.0400 31.9967 2.1755
96.0600 32.0034 2.1744
96.0800 32.0101 2.1545
96.1000 32.0167 2.1653
96.1200 32.0234 2.1714
96.1400 32.0300 2.1688
96.1600 32.0366 2.1708
96.1800 32.0433 2.1772
96.2000 32.0500 2.1665
96.2200 32.0567 2.1620
96.2400 32.0634 2.1813
96.2600 32.0701 2.1831
96.2800 32.0768 2.1601
96.3000 32.0835 2.1701
96.3200 32.0901 2.1848
96.3400 32.0967 2.1726
96.3600 32.1034 2.1736
96.3800 32.1101 2.1859
96.4000 32.1168 2.1770
96.4200 32.1234 2.1762
96.4400 32.1301 2.1714
96.4600 32.1368 2.1967
96.4800 32.1435 2.1940
96.5000 32.1501 2.1476
96.5200 32.1567 2.1868
96.5400 32.1633 2.2227
96.5600 32.1700 2.1600
96.5800 32.1767 2.1680
96.6000 32.1834 2.2184
96.6200 32.1901 2.1806
96.6400 32.1968 2.1723
96.6600 32.2034 2.2051
96.6800 32.2100 2.1787
96.7000 32.2166 2.1842
96.7200 32.2233 2.2121
96.7400 32.2300 2.1788
96.7600 32.2368 2.1972
96.7800 32.2434 2.1981
96.8000 32.2501 2.1710
96.8200 32.2567 2.2126
96.8400 32.2634 2.2167
96.8600 32.2701 2.1733
96.8800 32.2767 2.1950
96.9000 32.2834 2.2031
96.9200 32.2901 2.1885
96.9400 32.2967 2.2215
96.9600 32.3034 2.2016
96.9800 32.3101 2.1691
97.0000 32.3168 2.2113
97.0200 32.3235 2.2154
97.0400 32.3301 2.2048
97.0600 32.3367 2.2079
97.0800 32.3433 2.1910
97.1000 32.3500 2.1937
97.1200 32.3567 2.2207
97.1400 32.3634 2.2137
97.1600 32.3701 2.1961
97.1800 32.3768 2.2142
97.2000 32.3834 2.2000
97.2200 32.3901 2.1981
97.2400 32.3967 2.2298
97.2600 32.4033 2.2239
97.2800 32.4100 2.1874
97.3000 32.4167 2.2097
97.3200 32.4234 2.2251
97.3400 32.4301 2.2131
97.3600 32.4367 2.2152
97.3800 32.4434 2.2158
97.4000 32.4501 2.2109
97.4200 32.4567 2.2181
97.4400 32.4633 2.2175
97.4600 32.4700 2.2152
97.4800 32.4767 2.2233
97.5000 32.4834 2.2241
97.5200 32.4901 2.2145
97.5400 32.4968 2.2258
97.5600 32.5035 2.2254
97.5800 32.5101 2.2033
97.6000 32.5167 2.2329
97.6200 32.5233 2.2392
97.6400 32.5300 2.2241
97.6600 32.5367 2.2205
97.6800 32.5435 2.2277
97.7000 32.5501 2.2176
97.7200 32.5568 2.2312
97.7400 32.5634 2.2526
97.7600 32.5701 2.2306
97.7800 32.5767 2.2083
97.8000 32.5833 2.2196
97.8200 32.5900 2.2480
97.8400 32.5968 2.2482
97.8600 32.6034 2.2309
97.8800 32.6101 2.2293
97.9000 32.6168 2.2267
97.9200 32.6235 2.2262
97.9400 32.6301 2.2476
97.9600 32.6367 2.2614
97.9800 32.6433 2.2308
98.0000 32.6500 2.2215
98.0200 32.6567 2.2371
98.0400 32.6634 2.2473
98.0600 32.6701 2.2506
98.0800 32.6768 2.2490
98.1000 32.6835 2.2381
98.1200 32.6901 2.2260
98.1400 32.6966 2.2442
98.1600 32.7033 2.2655
98.1800 32.7099 2.2486
98.2000 32.7167 2.2351
98.2200 32.7234 2.2438
98.2400 32.7301 2.2537
98.2600 32.7367 2.2520
98.2800 32.7434 2.2415
98.3000 32.7501 2.2524
98.3200 32.7567 2.2555
98.3400 32.7633 2.2558
98.3600 32.7700 2.2462
98.3800 32.7767 2.2512
98.4000 32.7834 2.2638
98.4200 32.7901 2.2523
98.4400 32.7968 2.2529
98.4600 32.8035 2.2666
98.4800 32.8101 2.2545
98.5000 32.8167 2.2436
98.5200 32.8234 2.2598
98.5400 32.8300 2.2916
98.5600 32.8367 2.2496
98.5800 32.8435 2.2383
98.6000 32.8501 2.2686
98.6200 32.8568 2.2850
98.6400 32.8635 2.2464
98.6600 32.8701 2.2689
98.6800 32.8767 2.2711
98.7000 32.8833 2.2452
98.7200 32.8900 2.2809
98.7400 32.8967 2.2789
98.7600 32.9034 2.2558
98.7800 32.9101 2.2740
98.8000 32.9167 2.2767
98.8200 32.9234 2.2569
98.8400 32.9301 2.2823
98.8600 32.9367 2.2747
98.8800 32.9433 2.2687
98.9000 32.9500 2.2762
98.9200 32.9567 2.2707
98.9400 32.9634 2.2807
98.9600 32.9700 2.2872
98.9800 32.9767 2.2649
99.0000 32.9834 2.2764
99.0200 32.9901 2.2864
99.0400 32.9967 2.2721
99.0600 33.0033 2.2889
99.0800 33.0100 2.2863
99.1000 33.0167 2.2667
99.1200 33.0234 2.2952
99.1400 33.0301 2.2810
99.1600 33.0368 2.2726
99.1800 33.0435 2.2974
99.2000 33.0501 2.2821
99.2200 33.0567 2.2782
99.2400 33.0633 2.2903
99.2600 33.0700 2.2915
99.2800 33.0767 2.2889
99.3000 33.0834 2.2961
99.3200 33.0901 2.2900
99.3400 33.0968 2.2825
99.3600 33.1035 2.2966
99.3800 33.1101 2.3005
99.4000 33.1167 2.2877
99.4200 33.1233 2.2953
99.4400 33.1300 2.2995
99.4600 33.1367 2.2930
99.4800 33.1434 2.2931
99.5000 33.1501 2.3050
99.5200 33.1567 2.2970
99.5400 33.1634 2.2994
99.5600 33.1701 2.2959
99.5800 33.1767 2.3003
99.6000 33.1833 2.3108
99.6200 33.1900 2.3027
99.6400 33.1967 2.2962
99.6600 33.2034 2.3108
99.6800 33.2101 2.3105
99.7000 33.2168 2.2973
99.7200 33.2234 2.3051
99.7400 33.2301 2.3105
99.7600 33.2367 2.3087
99.7800 33.2433 2.3134
99.8000 33.2500 2.3058
99.8200 33.2567 2.3112
99.8400 33.2634 2.3172
99.8600 33.2701 2.3069
99.8800 33.2768 2.3118
99.9000 33.2835 2.3190
99.9200 33.2901 2.3151
99.9400 33.2967 2.3107
99.9600 33.3033 2.3164
99.9800 33.3100 2.3197
100.0000 33.3167 2.3213
100.0200 33.3234 2.3160
100.0400 33.3301 2.3192
100.0600 33.3368 2.3207
100.0800 33.3435 2.3247
100.1000 33.3501 2.3194
100.1200 33.3567 2.3245
100.1400 33.3633 2.3248
100.1600 33.3700 2.3293
100.1800 33.3767 2.3191
100.2000 33.3834 2.3232
100.2200 33.3901 2.3331
100.2400 33.3968 2.3258
100.2600 33.4034 2.3243
100.2800 33.4101 2.3322
100.3000 33.4167 2.3286
100.3200 33.4233 2.3281
100.3400 33.4299 2.3404
100.3600 33.4366 2.3389
100.3800 33.4434 2.3244
100.4000 33.4501 2.3317
100.4200 33.4567 2.3385
100.4400 33.4634 2.3373
100.4600 33.4701 2.3358
100.4800 33.4767 2.3396
100.5000 33.4833 2.3416
100.5200 33.4900 2.3348
100.5400 33.4967 2.3438
100.5600 33.5034 2.3366
100.5800 33.5101 2.3445
100.6000 33.5168 2.3479
100.6200 33.5235 2.3351
100.6400 33.5302 2.3418
100.6600 33.5368 2.3552
100.6800 33.5433 2.3422
100.7000 33.5500 2.3502
100.7200 33.5567 2.3485
100.7400 33.5634 2.3482
100.7600 33.5701 2.3499
100.7800 33.5768 2.3555
100.8000 33.5835 2.3460
100.8200 33.5901 2.3508
100.8400 33.5967 2.3580
100.8600 33.6033 2.3506
100.8800 33.6100 2.3556
100.9000 33.6167 2.3560
100.9200 33.6234 2.3608
100.9400 33.6301 2.3543
100.9600 33.6367 2.3515
100.9800 33.6434 2.3615
101.0000 33.6501 2.3733
101.0200 33.6567 2.3526
101.0400 33.6633 2.3479
101.0600 33.6700 2.3836
101.0800 33.6767 2.3678
101.1000 33.6834 2.3490
101.1200 33.6901 2.3755
101.1400 33.6967 2.3609
101.1600 33.7034 2.3685
101.1800 33.7101 2.3826
101.2000 33.7168 2.3493
101.2200 33.7234 2.3510
101.2400 33.7300 2.4138
101.2600 33.7367 2.3661
101.2800 33.7434 2.3198
101.3000 33.7501 2.4153
101.3200 33.7568 2.3899
101.3400 33.7635 2.3294
101.3600 33.7701 2.3870
101.3800 33.7767 2.4058
101.4000 33.7833 2.3505
101.4200 33.7900 2.3832
101.4400 33.7967 2.3844
101.4600 33.8034 2.3713
101.4800 33.8101 2.3949
101.5000 33.8168 2.3783
101.5200 33.8234 2.3512
101.5400 33.8301 2.4112
101.5600 33.8368 2.4027
101.5800 33.8434 2.3451
101.6000 33.8500 2.3780
101.6200 33.8567 2.4202
101.6400 33.8634 2.4058
101.6600 33.8701 2.3392
101.6800 33.8768 2.3947
101.7000 33.8834 2.4394
101.7200 33.8901 2.3295
101.7400 33.8967 2.3640
101.7600 33.9033 2.4919
101.7800 33.9099 2.4103
101.8000 33.9167 2.2727
101.8200 33.9234 2.4270
101.8400 33.9301 2.4593
101.8600 33.9368 2.3619
101.8800 33.9434 2.4066
101.9000 33.9501 2.3814
101.9200 33.9567 2.3766
101.9400 33.9633 2.4254
101.9600 33.9700 2.3958
101.9800 33.9767 2.4055
102.0000 33.9834 2.4078
102.0200 33.9901 2.3817
102.0400 33.9968 2.4090
102.0600 34.0034 2.4090
102.0800 34.0101 2.3999
102.1000 34.0168 2.4251
102.1200 34.0234 2.3987
102.1400 34.0300 2.3865
102.1600 34.0367 2.4423
102.1800 34.0434 2.3909
102.2000 34.0501 2.3985
102.2200 34.0568 2.4340
102.2400 34.0635 2.4110
102.2600 34.0701 2.4132
102.2800 34.0768 2.3923
102.3000 34.0833 2.4043
102.3200 34.0900 2.4610
102.3400 34.0967 2.4077
102.3600 34.1034 2.3908
102.3800 34.1101 2.4280
102.4000 34.1168 2.4346
102.4200 34.1234 2.4196
102.4400 34.1301 2.4078
102.4600 34.1367 2.4302
102.4800 34.1433 2.4270
102.5000 34.1500 2.4179
102.5200 34.1567 2.3924
102.5400 34.1634 2.4647
102.5600 34.1700 2.4561
102.5800 34.1767 2.3588
102.6000 34.1834 2.4344
102.6200 34.1901 2.4770
102.6400 34.1967 2.4234
102.6600 34.2033 2.3846
102.6800 34.2100 2.4725
102.7000 34.2167 2.4357
102.7200 34.2234 2.3780
102.7400 34.2301 2.4958
102.7600 34.2368 2.4442
102.7800 34.2435 2.3678
102.8000 34.2501 2.4822
102.8200 34.2568 2.4582
102.8400 34.2634 2.3841
102.8600 34.2700 2.4910
102.8800 34.2767 2.4548
102.9000 34.2834 2.3723
102.9200 34.2901 2.4864
102.9400 34.2968 2.4562
102.9600 34.3034 2.4131
102.9800 34.3101 2.4863
103.0000 34.3167 2.4152
103.0200 34.3234 2.4430
103.0400 34.3300 2.4845
103.0600 34.3367 2.4065
103.0800 34.3434 2.4626
103.1000 34.3501 2.4953
103.1200 34.3567 2.4040
103.1400 34.3634 2.4465
103.1600 34.3701 2.4989
103.1800 34.3768 2.4307
103.2000 34.3834 2.4556
103.2200 34.3900 2.4623
103.2400 34.3966 2.4452
103.2600 34.4034 2.4781
103.2800 34.4101 2.4497
103.3000 34.4168 2.4438
103.3200 34.4234 2.4947
103.3400 34.4301 2.4436
103.3600 34.4367 2.4524
103.3800 34.4433 2.4827
103.4000 34.4500 2.4588
103.4200 34.4567 2.4684
103.4400 34.4634 2.4718
103.4600 34.4701 2.4584
103.4800 34.4768 2.4701
103.5000 34.4835 2.4821
103.5200 34.4901 2.4596
103.5400 34.4968 2.4712
103.5600 34.5034 2.4777
103.5800 34.5100 2.4692
103.6000 34.5167 2.4794
103.6200 34.5234 2.4611
103.6400 34.5301 2.4743
103.6600 34.5368 2.4860
103.6800 34.5435 2.4707
103.7000 34.5501 2.4796
103.7200 34.5568 2.4775
103.7400 34.5634 2.4822
103.7600 34.5700 2.4849
103.7800 34.5767 2.4851
103.8000 34.5834 2.4783
103.8200 34.5901 2.4842
103.8400 34.5967 2.4888
103.8600 34.6034 2.4816
103.8800 34.6101 2.4900
103.9000 34.6167 2.4870
103.9200 34.6233 2.4863
103.9400 34.6300 2.4959
103.9600 34.6366 2.4908
103.9800 34.6433 2.4910
104.0000 34.6500 2.4816
104.0200 34.6567 2.5002
104.0400 34.6634 2.5001
104.0600 34.6701 2.4859
104.0800 34.6767 2.4969
104.1000 34.6834 2.5042
104.1200 34.6900 2.4982
104.1400 34.6967 2.4953
104.1600 34.7034 2.5052
104.1800 34.7101 2.4963
104.2000 34.7168 2.5034
104.2200 34.7235 2.5064
104.2400 34.7301 2.4927
104.2600 34.7368 2.5177
104.2800 34.7434 2.5109
104.3000 34.7500 2.4876
104.3200 34.7566 2.5228
104.3400 34.7634 2.5151
104.3600 34.7701 2.4894
104.3800 34.7768 2.5201
104.4000 34.7835 2.5204
104.4200 34.7901 2.4983
104.4400 34.7968 2.5207
104.4600 34.8034 2.5082
104.4800 34.8100 2.5135
104.5000 34.8166 2.5412
104.5200 34.8233 2.4941
104.5400 34.8300 2.4929
104.5600 34.8367 2.5590
104.5800 34.8434 2.5228
104.6000 34.8501 2.4995
104.6200 34.8568 2.5181
104.6400 34.8634 2.5366
104.6600 34.8700 2.5240
104.6800 34.8766 2.5040
104.7000 34.8833 2.5388
104.7200 34.8900 2.5454
104.7400 34.8967 2.5002
104.7600 34.9034 2.5208
104.7800 34.9101 2.5623
104.8000 34.9167 2.5254
104.8200 34.9234 2.5143
104.8400 34.9300 2.5271
104.8600 34.9367 2.5351
104.8800 34.9434 2.5629
104.9000 34.9501 2.5251
104.9200 34.9568 2.5059
104.9400 34.9635 2.5554
104.9600 34.9701 2.5409
104.9800 34.9768 2.5226
105.0000 34.9834 2.5571
105.0200 34.9900 2.5410
105.0400 34.9967 2.5212
105.0600 35.0034 2.5602
105.0800 35.0101 2.5361
105.1000 35.0168 2.5348
105.1200 35.0235 2.5767
105.1400 35.0301 2.5277
105.1600 35.0368 2.5277
105.1800 35.0434 2.5726
105.2000 35.0500 2.5453
105.2200 35.0567 2.5477
105.2400 35.0633 2.5550
105.2600 35.0700 2.5287
105.2800 35.0767 2.5719
105.3000 35.0834 2.5647
105.3200 35.0901 2.5322
105.3400 35.0967 2.5566
105.3600 35.1034 2.5735
105.3800 35.1100 2.5523
105.4000 35.1166 2.5611
105.4200 35.1233 2.5459
105.4400 35.1301 2.5650
105.4600 35.1368 2.5802
105.4800 35.1434 2.5456
105.5000 35.1501 2.5388
105.5200 35.1567 2.5910
105.5400 35.1634 2.5765
105.5600 35.1700 2.5346
105.5800 35.1767 2.5745
105.6000 35.1834 2.5924
105.6200 35.1901 2.5499
105.6400 35.1968 2.5587
105.6600 35.2034 2.5855
105.6800 35.2101 2.5787
105.7000 35.2168 2.5587
105.7200 35.2234 2.5707
105.7400 35.2300 2.5900
105.7600 35.2366 2.5593
105.7800 35.2433 2.5826
105.8000 35.2501 2.5891
105.8200 35.2568 2.5551
105.8400 35.2634 2.5916
105.8600 35.2701 2.5959
105.8800 35.2768 2.5498
105.9000 35.2834 2.6001
105.9200 35.2900 2.5935
105.9400 35.2967 2.5545
105.9600 35.3034 2.6157
105.9800 35.3101 2.5859
106.0000 35.3168 2.5584
106.0200 35.3235 2.6256
106.0400 35.3301 2.5828
106.0600 35.3368 2.5630
106.0800 35.3434 2.6299
106.1000 35.3500 2.5802
106.1200 35.3566 2.5720
106.1400 35.3633 2.6287
106.1600 35.3700 2.5745
106.1800 35.3767 2.5879
106.2000 35.3834 2.6330
106.2200 35.3901 2.5719
106.2400 35.3967 2.5927
106.2600 35.4034 2.6281
106.2800 35.4100 2.5809
106.3000 35.4166 2.6057
106.3200 35.4233 2.6210
106.3400 35.4301 2.5825
106.3600 35.4368 2.6169
106.3800 35.4435 2.6181
106.4000 35.4502 2.5786
106.4200 35.4568 2.6203
106.4400 35.4634 2.6263
106.4600 35.4700 2.5804
106.4800 35.4766 2.6138
106.5000 35.4833 2.6346
106.5200 35.4901 2.5991
106.5400 35.4968 2.6014
106.5600 35.5035 2.6323
106.5800 35.5102 2.6161
106.6000 35.5168 2.6018
106.6200 35.5234 2.6295
106.6400 35.5300 2.6251
106.6600 35.5367 2.6053
106.6800 35.5433 2.6348
106.7000 35.5500 2.6196
106.7200 35.5567 2.6108
106.7400 35.5634 2.6485
106.7600 35.5701 2.6134
106.7800 35.5768 2.6072
106.8000 35.5834 2.6584
106.8200 35.5900 2.6190
106.8400 35.5966 2.6139
106.8600 35.6033 2.6569
106.8800 35.6100 2.6133
106.9000 35.6167 2.6236
106.9200 35.6234 2.6527
106.9400 35.6301 2.6174
106.9600 35.6367 2.6358
106.9800 35.6434 2.6503
107.0000 35.6500 2.6215
107.0200 35.6567 2.6477
107.0400 35.6634 2.6449
107.0600 35.6701 2.6310
107.0800 35.6768 2.6483
107.1000 35.6834 2.6414
107.1200 35.6901 2.6345
107.1400 35.6968 2.6536
107.1600 35.7034 2.6391
107.1800 35.7100 2.6472
107.2000 35.7167 2.6553
107.2200 35.7234 2.6410
107.2400 35.7301 2.6511
107.2600 35.7368 2.6553
107.2800 35.7434 2.6479
107.3000 35.7501 2.6506
107.3200 35.7568 2.6579
107.3400 35.7634 2.6556
107.3600 35.7700 2.6547
107.3800 35.7766 2.6621
107.4000 35.7833 2.6578
107.4200 35.7900 2.6585
107.4400 35.7967 2.6638
107.4600 35.8034 2.6581
107.4800 35.8101 2.6661
107.5000 35.8168 2.6653
107.5200 35.8234 2.6601
107.5400 35.8300 2.6639
107.5600 35.8366 2.6738
107.5800 35.8433 2.6623
107.6000 35.8500 2.6697
107.6200 35.8567 2.6699
107.6400 35.8634 2.6642
107.6600 35.8701 2.6704
107.6800 35.8768 2.6738
107.7000 35.8834 2.6687
107.7200 35.8900 2.6783
107.7400 35.8967 2.6747
107.7600 35.9034 2.6741
107.7800 35.9100 2.6817
107.8000 35.9167 2.6771
107.8200 35.9234 2.6739
107.8400 35.9301 2.6893
107.8600 35.9368 2.6769
107.8800 35.9435 2.6730
107.9000 35.9500 2.6929
107.9200 35.9567 2.6824
107.9400 35.9633 2.6860
107.9600 35.9701 2.6939
107.9800 35.9768 2.6740
108.0000 35.9835 2.6966
108.0200 35.9901 2.6981
108.0400 35.9968 2.6680
108.0600 36.0034 2.7001
108.0800 36.0100 2.7048
108.1000 36.0167 2.6774
108.1200 36.0233 2.6999
108.1400 36.0301 2.7046
108.1600 36.0368 2.6834
108.1800 36.0434 2.7070
108.2000 36.0501 2.6989
108.2200 36.0568 2.6941
108.2400 36.0634 2.7107
108.2600 36.0700 2.6975
108.2800 36.0766 2.6986
108.3000 36.0833 2.7113
108.3200 36.0900 2.7049
108.3400 36.0967 2.7069
108.3600 36.1034 2.7083
108.3800 36.1101 2.7049
108.4000 36.1168 2.7096
108.4200 36.1234 2.7152
108.4400 36.1300 2.7094
108.4600 36.1367 2.7074
108.4800 36.1433 2.7150
108.5000 36.1500 2.7168
108.5200 36.1568 2.7139
108.5400 36.1635 2.7124
108.5600 36.1702 2.7220
108.5800 36.1768 2.7157
108.6000 36.1835 2.7234
108.6200 36.1901 2.7211
108.6400 36.1967 2.7181
108.6600 36.2034 2.7251
108.6800 36.2101 2.7301
108.7000 36.2168 2.7206
108.7200 36.2234 2.7254
108.7400 36.2301 2.7254
108.7600 36.2368 2.7310
108.7800 36.2434 2.7297
108.8000 36.2500 2.7324
108.8200 36.2566 2.7310
108.8400 36.2633 2.7327
108.8600 36.2700 2.7351
108.8800 36.2767 2.7359
108.9000 36.2834 2.7331
108.9200 36.2901 2.7347
108.9400 36.2968 2.7463
108.9600 36.3034 2.7360
108.9800 36.3100 2.7340
109.0000 36.3166 2.7513
109.0200 36.3233 2.7463
109.0400 36.3300 2.7351
109.0600 36.3367 2.7519
109.0800 36.3434 2.7400
109.1000 36.3501 2.7472
109.1200 36.3568 2.7606
109.1400 36.3634 2.7367
109.1600 36.3700 2.7454
109.1800 36.3767 2.7727
109.2000 36.3833 2.7365
109.2200 36.3900 2.7494
109.2400 36.3968 2.7730
109.2600 36.4034 2.7397
109.2800 36.4101 2.7583
109.3000 36.4168 2.7741
109.3200 36.4235 2.7381
109.3400 36.4301 2.7694
109.3600 36.4367 2.7734
109.3800 36.4433 2.7438
109.4000 36.4500 2.7728
109.4200 36.4568 2.7721
109.4400 36.4635 2.7508
109.4600 36.4701 2.7771
109.4800 36.4768 2.7688
109.5000 36.4835 2.7573
109.5200 36.4901 2.7817
109.5400 36.4966 2.7648
109.5600 36.5033 2.7685
109.5800 36.5100 2.7811
109.6000 36.5167 2.7642
109.6200 36.5234 2.7769
109.6400 36.5301 2.7849
109.6600 36.5367 2.7662
109.6800 36.5434 2.7809
109.7000 36.5500 2.7811
109.7200 36.5566 2.7752
109.7400 36.5633 2.7853
109.7600 36.5700 2.7895
109.7800 36.5767 2.7754
109.8000 36.5834 2.7888
109.8200 36.5900 2.7895
109.8400 36.5967 2.7840
109.8600 36.6034 2.7818
109.8800 36.6101 2.7935
109.9000 36.6167 2.7975
109.9200 36.6233 2.7806
109.9400 36.6300 2.7942
109.9600 36.6367 2.8068
109.9800 36.6434 2.7889
110.0000 36.6501 2.7978
110.0200 36.6568 2.8051
110.0400 36.6635 2.7898
110.0600 36.6701 2.8033
110.0800 36.6767 2.8064
110.1000 36.6833 2.7907
110.1200 36.6900 2.8091
110.1400 36.6968 2.8131
110.1600 36.7034 2.7891
110.1800 36.7101 2.8163
110.2000 36.7168 2.8115
110.2200 36.7235 2.7994
110.2400 36.7301 2.8152
110.2600 36.7367 2.8117
110.2800 36.7433 2.8051
110.3000 36.7500 2.8174
110.3200 36.7567 2.8126
110.3400 36.7634 2.8144
110.3600 36.7701 2.8201
110.3800 36.7768 2.8104
110.4000 36.7834 2.8139
110.4200 36.7901 2.8323
110.4400 36.7967 2.8166
110.4600 36.8033 2.8176
110.4800 36.8099 2.8300
110.5000 36.8167 2.8200
110.5200 36.8234 2.8236
110.5400 36.8300 2.8282
110.5600 36.8367 2.8258
110.5800 36.8434 2.8319
110.6000 36.8500 2.8288
110.6200 36.8566 2.8299
110.6400 36.8633 2.8369
110.6600 36.8700 2.8316
110.6800 36.8768 2.8312
110.7000 36.8834 2.8363
110.7200 36.8901 2.8338
110.7400 36.8968 2.8410
110.7600 36.9035 2.8439
110.7800 36.9101 2.8257
110.8000 36.9167 2.8420
110.8200 36.9234 2.8494
110.8400 36.9301 2.8355
110.8600 36.9368 2.8470
110.8800 36.9434 2.8494
110.9000 36.9501 2.8373
110.9200 36.9568 2.8544
110.9400 36.9635 2.8548
110.9600 36.9701 2.8412
110.9800 36.9767 2.8558
111.0000 36.9833 2.8561
111.0200 36.9900 2.8425
111.0400 36.9967 2.8663
111.0600 37.0034 2.8560
111.0800 37.0101 2.8466
111.1000 37.0168 2.8667
111.1200 37.0234 2.8572
111.1400 37.0300 2.8547
111.1600 37.0367 2.8685
111.1800 37.0433 2.8627
111.2000 37.0500 2.8596
111.2200 37.0567 2.8689
111.2400 37.0634 2.8636
111.2600 37.0701 2.8648
111.2800 37.0768 2.8668
111.3000 37.0834 2.8730
111.3200 37.0901 2.8635
111.3400 37.0967 2.8719
111.3600 37.1034 2.8776
111.3800 37.1100 2.8701
111.4000 37.1167 2.8749
111.4200 37.1234 2.8816
111.4400 37.1301 2.8652
111.4600 37.1368 2.8874
111.4800 37.1435 2.8861
111.5000 37.1501 2.8641
111.5200 37.1567 2.8921
111.5400 37.1633 2.8943
111.5600 37.1700 2.8714
111.5800 37.1767 2.8935
111.6000 37.1834 2.8888
111.6200 37.1901 2.8802
111.6400 37.1968 2.9012
111.6600 37.2034 2.8887
111.6800 37.2101 2.8806
111.7000 37.2167 2.9064
111.7200 37.2233 2.8945
111.7400 37.2300 2.8888
111.7600 37.2367 2.9071
111.7800 37.2434 2.8919
111.8000 37.2501 2.9007
111.8200 37.2567 2.9033
111.8400 37.2634 2.8996
111.8600 37.2701 2.9050
111.8800 37.2767 2.9085
111.9000 37.2833 2.8986
111.9200 37.2900 2.9089
111.9400 37.2967 2.9090
111.9600 37.3034 2.9095
111.9800 37.3100 2.9068
112.0000 37.3167 2.9100
112.0200 37.3234 2.9158
112.0400 37.3301 2.9102
112.0600 37.3367 2.9117
112.0800 37.3433 2.9222
112.1000 37.3500 2.9164
112.1200 37.3567 2.9126
112.1400 37.3634 2.9238
112.1600 37.3701 2.9194
112.1800 37.3768 2.9155
112.2000 37.3835 2.9282
112.2200 37.3901 2.9193
112.2400 37.3967 2.9222
112.2600 37.4033 2.9362
112.2800 37.4100 2.9190
112.3000 37.4167 2.9265
112.3200 37.4234 2.9342
112.3400 37.4301 2.9259
112.3600 37.4368 2.9324
112.3800 37.4435 2.9414
112.4000 37.4501 2.9255
112.4200 37.4567 2.9362
112.4400 37.4633 2.9425
112.4600 37.4700 2.9324
112.4800 37.4767 2.9423
112.5000 37.4834 2.9475
112.5200 37.4901 2.9278
112.5400 37.4968 2.9509
112.5600 37.5035 2.9467
112.5800 37.5101 2.9318
112.6000 37.5167 2.9553
112.6200 37.5233 2.9526
112.6400 37.5299 2.9382
112.6600 37.5367 2.9547
112.6800 37.5434 2.9538
112.7000 37.5501 2.9469
112.7200 37.5567 2.9617
112.7400 37.5634 2.9517
112.7600 37.5701 2.9540
112.7800 37.5767 2.9638
112.8000 37.5833 2.9535
112.8200 37.5900 2.9621
112.8400 37.5967 2.9643
112.8600 37.6034 2.9560
112.8800 37.6101 2.9710
112.9000 37.6168 2.9641
112.9200 37.6235 2.9666
112.9400 37.6302 2.9692
112.9600 37.6368 2.9647
112.9800 37.6434 2.9735
113.0000 37.6500 2.9760
113.0200 37.6567 2.9620
113.0400 37.6634 2.9767
113.0600 37.6701 2.9768
113.0800 37.6768 2.9634
113.1000 37.6835 2.9875
113.1200 37.6901 2.9820
113.1400 37.6967 2.9690
113.1600 37.7033 2.9924
113.1800 37.7100 2.9757
113.2000 37.7167 2.9761
113.2200 37.7234 2.9950
113.2400 37.7301 2.9788
113.2600 37.7367 2.9818
113.2800 37.7434 3.0023
113.3000 37.7501 2.9818
113.3200 37.7567 2.9848
113.3400 37.7633 3.0065
113.3600 37.7700 2.9845
113.3800 37.7767 2.9898
113.4000 37.7834 3.0019
113.4200 37.7901 2.9934
113.4400 37.7967 3.0001
113.4600 37.8034 3.0062
113.4800 37.8101 2.9944
113.5000 37.8167 3.0012
113.5200 37.8233 3.0103
113.5400 37.8300 3.0022
113.5600 37.8367 3.0038
113.5800 37.8434 3.0093
113.6000 37.8501 3.0026
113.6200 37.8568 3.0126
113.6400 37.8635 3.0151
113.6600 37.8701 3.0081
113.6800 37.8767 3.0086
113.7000 37.8833 3.0218
113.7200 37.8900 3.0114
113.7400 37.8967 3.0094
113.7600 37.9034 3.0264
113.7800 37.9101 3.0181
113.8000 37.9168 3.0128
113.8200 37.9235 3.0277
113.8400 37.9301 3.0223
113.8600 37.9367 3.0148
113.8800 37.9433 3.0381
113.9000 37.9500 3.0248
113.9200 37.9567 3.0222
113.9400 37.9634 3.0390
113.9600 37.9701 3.0295
113.9800 37.9767 3.0226
114.0000 37.9834 3.0458
114.0200 37.9901 3.0294
114.0400 37.9967 3.0240
114.0600 38.0033 3.0485
114.0800 38.0100 3.0363
114.1000 38.0167 3.0322
114.1200 38.0233 3.0518
114.1400 38.0300 3.0399
114.1600 38.0367 3.0382
114.1800 38.0434 3.0514
114.2000 38.0501 3.0427
114.2200 38.0567 3.0447
114.2400 38.0633 3.0564
114.2600 38.0700 3.0440
114.2800 38.0767 3.0468
114.3000 38.0834 3.0606
114.3200 38.0901 3.0496
114.3400 38.0968 3.0526
114.3600 38.1035 3.0629
114.3800 38.1101 3.0522
114.4000 38.1167 3.0544
114.4200 38.1233 3.0666
114.4400 38.1300 3.0587
114.4600 38.1367 3.0624
114.4800 38.1434 3.0651
114.5000 38.1501 3.0610
114.5200 38.1568 3.0629
114.5400 38.1635 3.0704
114.5600 38.1701 3.0647
114.5800 38.1767 3.0685
114.6000 38.1833 3.0726
114.6200 38.1900 3.0761
114.6400 38.1966 3.0772
114.6600 38.2034 3.0751
114.6800 38.2101 3.0709
114.7000 38.2168 3.0802
114.7200 38.2235 3.0816
114.7400 38.2301 3.0757
114.7600 38.2367 3.0783
114.7800 38.2433 3.0842
114.8000 38.2499 3.0863
114.8200 38.2566 3.0808
114.8400 38.2634 3.0873
114.8600 38.2701 3.0926
114.8800 38.2767 3.0833
114.9000 38.2834 3.0879
114.9200 38.2901 3.1018
114.9400 38.2967 3.0857
114.9600 38.3033 3.0995
114.9800 38.3100 3.1030
115.0000 38.3167 3.0902
115.0200 38.3234 3.0975
115.0400 38.3301 3.1014
115.0600 38.3368 3.0933
115.0800 38.3435 3.1054
115.1000 38.3502 3.1058
115.1200 38.3568 3.0972
115.1400 38.3634 3.1049
115.1600 38.3700 3.1170
115.1800 38.3767 3.0987
115.2000 38.3834 3.1142
115.2200 38.3901 3.1155
115.2400 38.3968 3.1087
115.2600 38.4035 3.1097
115.2800 38.4101 3.1187
115.3000 38.4167 3.1162
115.3200 38.4233 3.1148
115.3400 38.4300 3.1214
115.3600 38.4367 3.1161
115.3800 38.4434 3.1182
115.4000 38.4500 3.1259
115.4200 38.4567 3.1192
115.4400 38.4634 3.1231
115.4600 38.4701 3.1276
115.4800 38.4767 3.1214
115.5000 38.4833 3.1290
115.5200 38.4900 3.1378
115.5400 38.4966 3.1277
115.5600 38.5034 3.1262
115.5800 38.5101 3.1439
115.6000 38.5168 3.1300
115.6200 38.5235 3.1355
115.6400 38.5301 3.1467
115.6600 38.5368 3.1377
115.6800 38.5434 3.1347
115.7000 38.5500 3.1516
115.7200 38.5567 3.1430
115.7400 38.5634 3.1370
115.7600 38.5701 3.1519
115.7800 38.5768 3.1484
115.8000 38.5835 3.1420
115.8200 38.5901 3.1566
115.8400 38.5968 3.1486
115.8600 38.6033 3.1506
115.8800 38.6100 3.1647
115.9000 38.6167 3.1517
115.9200 38.6234 3.1506
115.9400 38.6301 3.1657
115.9600 38.6368 3.1576
115.9800 38.6435 3.1552
116.0000 38.6502 3.1682
116.0200 38.6568 3.1585
116.0400 38.6634 3.1626
116.0600 38.6700 3.1730
116.0800 38.6767 3.1660
116.1000 38.6834 3.1651
116.1200 38.6901 3.1766
116.1400 38.6967 3.1669
116.1600 38.7034 3.1712
116.1800 38.7101 3.1740
116.2000 38.7168 3.1726
116.2200 38.7233 3.1766
116.2400 38.7300 3.1842
116.2600 38.7366 3.1770
116.2800 38.7434 3.1821
116.3000 38.7501 3.1864
116.3200 38.7568 3.1797
116.3400 38.7634 3.1834
116.3600 38.7701 3.1948
116.3800 38.7767 3.1856
116.4000 38.7833 3.1792
116.4200 38.7900 3.1977
116.4400 38.7967 3.1954
116.4600 38.8034 3.1859
116.4800 38.8101 3.1985
116.5000 38.8167 3.1970
116.5200 38.8234 3.1882
116.5400 38.8301 3.2045
116.5600 38.8368 3.2019
116.5800 38.8434 3.1964
116.6000 38.8500 3.2082
116.6200 38.8567 3.2062
116.6400 38.8634 3.1937
116.6600 38.8701 3.2146
116.6800 38.8768 3.2149
116.7000 38.8835 3.1956
116.7200 38.8902 3.2102
116.7400 38.8968 3.2161
116.7600 38.9033 3.2047
116.7800 38.9099 3.2218
116.8000 38.9166 3.2182
116.8200 38.9233 3.2095
116.8400 38.9301 3.2209
116.8600 38.9368 3.2214
116.8800 38.9434 3.2092
116.9000 38.9501 3.2291
116.9200 38.9567 3.2245
116.9400 38.9633 3.2200
116.9600 38.9700 3.2318
116.9800 38.9766 3.2325
117.0000 38.9833 3.2245
117.0200 38.9900 3.2321
117.0400 38.9967 3.2359
117.0600 39.0034 3.2255
117.0800 39.0101 3.2398
117.1000 39.0167 3.2377
117.1200 39.0234 3.2314
117.1400 39.0300 3.2432
117.1600 39.0367 3.2485
117.1800 39.0434 3.2344
117.2000 39.0501 3.2398
117.2200 39.0568 3.2501
117.2400 39.0635 3.2432
117.2600 39.0702 3.2435
117.2800 39.0768 3.2537
117.3000 39.0834 3.2444
117.3200 39.0900 3.2497
117.3400 39.0967 3.2580
117.3600 39.1034 3.2502
117.3800 39.1101 3.2551
117.4000 39.1168 3.2633
117.4200 39.1234 3.2490
117.4400 39.1301 3.2595
117.4600 39.1367 3.2712
117.4800 39.1434 3.2549
117.5000 39.1500 3.2693
117.5200 39.1567 3.2711
117.5400 39.1633 3.2570
117.5600 39.1700 3.2722
117.5800 39.1767 3.2728
117.6000 39.1834 3.2661
117.6200 39.1901 3.2783
117.6400 39.1968 3.2732
117.6600 39.2034 3.2662
117.6800 39.2100 3.2841
117.7000 39.2166 3.2878
117.7200 39.2233 3.2682
117.7400 39.2300 3.2876
117.7600 39.2368 3.2809
117.7800 39.2435 3.2768
117.8000 39.2501 3.2891
117.8200 39.2568 3.2875
117.8400 39.2634 3.2812
117.8600 39.2700 3.2897
117.8800 39.2767 3.2949
117.9000 39.2834 3.2871
117.9200 39.2901 3.2940
117.9400 39.2968 3.2958
117.9600 39.3034 3.2900
117.9800 39.3101 3.3009
118.0000 39.3168 3.2972
118.0200 39.3234 3.2966
118.0400 39.3300 3.3086
118.0600 39.3367 3.3025
118.0800 39.3434 3.3033
118.1000 39.3501 3.3071
118.1200 39.3568 3.3047
118.1400 39.3635 3.3094
118.1600 39.3701 3.3117
118.1800 39.3768 3.3082
118.2000 39.3834 3.3169
118.2200 39.3900 3.3129
118.2400 39.3966 3.3134
118.2600 39.4033 3.3223
118.2800 39.4101 3.3145
118.3000 39.4168 3.3187
118.3200 39.4234 3.3322
118.3400 39.4301 3.3147
118.3600 39.4368 3.3263
118.3800 39.4434 3.3314
118.4000 39.4499 3.3275
118.4200 39.4566 3.3321
118.4400 39.4633 3.3371
118.4600 39.4700 3.3254
118.4800 39.4767 3.3350
118.5000 39.4834 3.3406
118.5200 39.4901 3.3271
118.5400 39.4967 3.3402
118.5600 39.5033 3.3403
118.5800 39.5100 3.3330
118.6000 39.5167 3.3495
118.6200 39.5234 3.3469
118.6400 39.5301 3.3400
118.6600 39.5368 3.3501
118.6800 39.5435 3.3494
118.7000 39.5501 3.3467
118.7200 39.5568 3.3512
118.7400 39.5634 3.3531
118.7600 39.5700 3.3470
118.7800 39.5766 3.3596
118.8000 39.5834 3.3565
118.8200 39.5901 3.3569
118.8400 39.5968 3.3613
118.8600 39.6035 3.3616
118.8800 39.6102 3.3596
118.9000 39.6168 3.3648
118.9200 39.6234 3.3691
118.9400 39.6300 3.3660
118.9600 39.6367 3.3621
118.9800 39.6434 3.3729
119.0000 39.6501 3.3689
119.0200 39.6568 3.3698
119.0400 39.6634 3.3741
119.0600 39.6701 3.3758
119.0800 39.6768 3.3696
119.1000 39.6834 3.3806
119.1200 39.6900 3.3814
119.1400 39.6967 3.3768
119.1600 39.7033 3.3901
119.1800 39.7100 3.3811
119.2000 39.7167 3.3822
119.2200 39.7234 3.3950
119.2400 39.7301 3.3798
119.2600 39.7367 3.3871
119.2800 39.7434 3.3979
119.3000 39.7500 3.3829
119.3200 39.7566 3.3984
119.3400 39.7633 3.4023
119.3600 39.7701 3.3910
119.3800 39.7768 3.3975
119.4000 39.7835 3.4043
119.4200 39.7901 3.3953
119.4400 39.7968 3.4034
119.4600 39.8034 3.4051
119.4800 39.8100 3.4079
119.5000 39.8166 3.4061
119.5200 39.8234 3.4073
119.5400 39.8301 3.4121
119.5600 39.8368 3.4147
119.5800 39.8435 3.4113
119.6000 39.8501 3.4113
119.6200 39.8568 3.4175
119.6400 39.8634 3.4187
119.6600 39.8700 3.4208
119.6800 39.8767 3.4200
119.7000 39.8833 3.4238
119.7200 39.8900 3.4264
119.7400 39.8967 3.4192
119.7600 39.9034 3.4294
119.7800 39.9101 3.4355
119.8000 39.9168 3.4214
119.8200 39.9234 3.4359
119.8400 39.9300 3.4323
119.8600 39.9366 3.4312
119.8800 39.9433 3.4402
119.9000 39.9500 3.4371
119.9200 39.9567 3.4321
119.9400 39.9634 3.4456
119.9600 39.9701 3.4437
119.9800 39.9768 3.4372
120.0000 39.9834 3.4485
120.0200 39.9900 3.4504
120.0400 39.9967 3.4411
120.0510 40.0003 3.4404
