Raw Data
Time Displacement Force
(s) (mm) (N)
0.0000 0.0000 0.0034
0.0200 0.0000 -0.0003
0.0400 0.0008 0.0281
0.0600 0.0040 0.0408
0.0800 0.0095 0.0022
0.1000 0.0153 -0.0151
0.1200 0.0212 0.0229
0.1400 0.0277 0.0124
0.1600 0.0350 -0.0062
0.1800 0.0424 0.0030
0.2000 0.0497 -0.0057
0.2200 0.0567 -0.0078
0.2400 0.0634 0.0066
0.2600 0.0700 -0.0037
0.2800 0.0767 -0.0073
0.3000 0.0834 0.0086
0.3200 0.0900 -0.0006
0.3400 0.0967 -0.0017
0.3600 0.1034 0.0063
0.3800 0.1101 -0.0042
0.4000 0.1168 -0.0019
0.4200 0.1234 0.0054
0.4400 0.1301 -0.0052
0.4600 0.1368 -0.0026
0.4800 0.1435 0.0072
0.5000 0.1500 -0.0069
0.5200 0.1566 -0.0033
0.5400 0.1633 0.0133
0.5600 0.1700 -0.0046
0.5800 0.1767 -0.0044
0.6000 0.1834 0.0035
0.6200 0.1901 -0.0030
0.6400 0.1967 -0.0038
0.6600 0.2034 0.0036
0.6800 0.2100 -0.0037
0.7000 0.2167 -0.0008
0.7200 0.2233 0.0032
0.7400 0.2300 -0.0014
0.7600 0.2367 0.0020
0.7800 0.2434 0.0053
0.8000 0.2501 -0.0003
0.8200 0.2568 -0.0047
0.8400 0.2635 0.0010
0.8600 0.2701 0.0015
0.8800 0.2767 -0.0045
0.9000 0.2834 0.0056
0.9200 0.2900 0.0045
0.9400 0.2967 -0.0033
0.9600 0.3034 0.0082
0.9800 0.3101 0.0019
1.0000 0.3168 -0.0043
1.0200 0.3235 0.0066
1.0400 0.3301 0.0003
1.0600 0.3367 -0.0075
1.0800 0.3433 0.0106
1.1000 0.3500 0.0022
1.1200 0.3568 -0.0038
1.1400 0.3634 0.0067
1.1600 0.3701 0.0013
1.1800 0.3768 -0.0055
1.2000 0.3834 0.0089
1.2200 0.3901 -0.0030
1.2400 0.3967 -0.0005
1.2600 0.4033 0.0120
1.2800 0.4100 -0.0041
1.3000 0.4167 0.0002
1.3200 0.4234 0.0147
1.3400 0.4300 -0.0031
1.3600 0.4367 0.0030
1.3800 0.4434 0.0087
1.4000 0.4501 -0.0009
1.4200 0.4567 0.0066
1.4400 0.4633 0.0062
1.4600 0.4700 0.0008
1.4800 0.4767 0.0041
1.5000 0.4834 0.0110
1.5200 0.4901 0.0000
1.5400 0.4968 0.0060
1.5600 0.5035 0.0107
1.5800 0.5101 0.0090
1.6000 0.5167 0.0025
1.6200 0.5234 0.0150
1.6400 0.5301 0.0080
1.6600 0.5368 0.0039
1.6800 0.5434 0.0102
1.7000 0.5501 0.0126
1.7200 0.5567 0.0072
1.7400 0.5634 0.0104
1.7600 0.5700 0.0138
1.7800 0.5767 0.0089
1.8000 0.5833 0.0090
1.8200 0.5900 0.0168
1.8400 0.5967 0.0085
1.8600 0.6034 0.0158
1.8800 0.6101 0.0154
1.9000 0.6168 0.0071
1.9200 0.6235 0.0200
1.9400 0.6301 0.0164
1.9600 0.6367 0.0070
1.9800 0.6433 0.0214
2.0000 0.6500 0.0190
2.0200 0.6567 0.0078
2.0400 0.6634 0.0248
2.0600 0.6701 0.0233
2.0800 0.6768 0.0098
2.1000 0.6835 0.0227
2.1200 0.6901 0.0225
2.1400 0.6967 0.0099
2.1600 0.7033 0.0289
2.1800 0.7100 0.0225
2.2000 0.7167 0.0139
2.2200 0.7234 0.0236
2.2400 0.7301 0.0238
2.2600 0.7368 0.0206
2.2800 0.7435 0.0292
2.3000 0.7501 0.0235
2.3200 0.7567 0.0215
2.3400 0.7634 0.0299
2.3600 0.7701 0.0306
2.3800 0.7768 0.0218
2.4000 0.7834 0.0299
2.4200 0.7901 0.0352
2.4400 0.7968 0.0251
2.4600 0.8035 0.0275
2.4800 0.8101 0.0359
2.5000 0.8167 0.0346
2.5200 0.8233 0.0333
2.5400 0.8300 0.0386
2.5600 0.8367 0.0305
2.5800 0.8434 0.0395
2.6000 0.8501 0.0396
2.6200 0.8568 0.0341
2.6400 0.8634 0.0346
2.6600 0.8700 0.0420
2.6800 0.8766 0.0364
2.7000 0.8833 0.0366
2.7200 0.8900 0.0434
2.7400 0.8967 0.0442
2.7600 0.9034 0.0396
2.7800 0.9100 0.0461
2.8000 0.9167 0.0454
2.8200 0.9234 0.0482
2.8400 0.9301 0.0408
2.8600 0.9367 0.0532
2.8800 0.9433 0.0506
2.9000 0.9500 0.0503
2.9200 0.9568 0.0512
2.9400 0.9635 0.0541
2.9600 0.9701 0.0508
2.9800 0.9768 0.0533
3.0000 0.9835 0.0646
3.0200 0.9901 0.0494
3.0400 0.9967 0.0567
3.0600 1.0033 0.0653
3.0800 1.0100 0.0608
3.1000 1.0168 0.0611
3.1200 1.0235 0.0651
3.1400 1.0301 0.0600
3.1600 1.0368 0.0671
3.1800 1.0435 0.0669
3.2000 1.0501 0.0688
3.2200 1.0567 0.0636
3.2400 1.0633 0.0759
3.2600 1.0700 0.0703
3.2800 1.0767 0.0740
3.3000 1.0834 0.0761
3.3200 1.0901 0.0729
3.3400 1.0968 0.0795
3.3600 1.1035 0.0789
3.3800 1.1101 0.0801
3.4000 1.1167 0.0838
3.4200 1.1233 0.0833
3.4400 1.1300 0.0858
3.4600 1.1367 0.0855
3.4800 1.1434 0.0909
3.5000 1.1501 0.0876
3.5200 1.1567 0.0881
3.5400 1.1634 0.0860
3.5600 1.1701 0.0911
3.5800 1.1767 0.0941
3.6000 1.1833 0.0942
3.6200 1.1900 0.0981
3.6400 1.1968 0.0931
3.6600 1.2035 0.1007
3.6800 1.2101 0.1014
3.7000 1.2168 0.0982
3.7200 1.2235 0.1059
3.7400 1.2301 0.1071
3.7600 1.2367 0.1019
3.7800 1.2434 0.1087
3.8000 1.2501 0.1136
3.8200 1.2568 0.1101
3.8400 1.2635 0.1104
3.8600 1.2701 0.1099
3.8800 1.2768 0.1121
3.9000 1.2835 0.1163
3.9200 1.2901 0.1125
3.9400 1.2967 0.1206
3.9600 1.3033 0.1203
3.9800 1.3100 0.1119
4.0000 1.3167 0.1293
4.0200 1.3234 0.1261
4.0400 1.3301 0.1142
4.0600 1.3368 0.1326
4.0800 1.3434 0.1266
4.1000 1.3501 0.1193
4.1200 1.3567 0.1376
4.1400 1.3633 0.1280
4.1600 1.3700 0.1274
4.1800 1.3767 0.1394
4.2000 1.3834 0.1323
4.2200 1.3901 0.1314
4.2400 1.3968 0.1464
4.2600 1.4034 0.1335
4.2800 1.4101 0.1373
4.3000 1.4167 0.1414
4.3200 1.4233 0.1406
4.3400 1.4300 0.1473
4.3600 1.4367 0.1444
4.3800 1.4434 0.1375
4.4000 1.4501 0.1543
4.4200 1.4568 0.1482
4.4400 1.4635 0.1441
4.4600 1.4701 0.1519
4.4800 1.4767 0.1507
4.5000 1.4833 0.1525
4.5200 1.4900 0.1602
4.5400 1.4967 0.1516
4.5600 1.5034 0.1567
4.5800 1.5101 0.1623
4.6000 1.5168 0.1545
4.6200 1.5235 0.1625
4.6400 1.5301 0.1610
4.6600 1.5367 0.1614
4.6800 1.5433 0.1687
4.7000 1.5500 0.1680
4.7200 1.5567 0.1657
4.7400 1.5635 0.1717
4.7600 1.5701 0.1654
4.7800 1.5768 0.1714
4.8000 1.5835 0.1733
4.8200 1.5901 0.1711
4.8400 1.5967 0.1711
4.8600 1.6033 0.1769
4.8800 1.6100 0.1756
4.9000 1.6167 0.1790
4.9200 1.6234 0.1753
4.9400 1.6301 0.1794
4.9600 1.6367 0.1855
4.9800 1.6434 0.1800
5.0000 1.6501 0.1809
5.0200 1.6567 0.1863
5.0400 1.6633 0.1854
5.0600 1.6700 0.1882
5.0800 1.6767 0.1879
5.1000 1.6834 0.1858
5.1200 1.6902 0.1909
5.1400 1.6969 0.1910
5.1600 1.7035 0.1857
5.1800 1.7102 0.1926
5.2000 1.7167 0.1990
5.2200 1.7234 0.1929
5.2400 1.7300 0.1952
5.2600 1.7368 0.1995
5.2800 1.7435 0.1983
5.3000 1.7502 0.1948
5.3200 1.7568 0.2052
5.3400 1.7635 0.2023
5.3600 1.7701 0.1992
5.3800 1.7767 0.2075
5.4000 1.7833 0.2031
5.4200 1.7900 0.2001
5.4400 1.7967 0.2126
5.4600 1.8034 0.2053
5.4800 1.8101 0.2087
5.5000 1.8167 0.2117
5.5200 1.8234 0.2063
5.5400 1.8301 0.2117
5.5600 1.8367 0.2204
5.5800 1.8433 0.2076
5.6000 1.8500 0.2141
5.6200 1.8567 0.2251
5.6400 1.8634 0.2085
5.6600 1.8701 0.2177
5.6800 1.8767 0.2260
5.7000 1.8834 0.2154
5.7200 1.8901 0.2196
5.7400 1.8967 0.2307
5.7600 1.9033 0.2197
5.7800 1.9100 0.2280
5.8000 1.9167 0.2326
5.8200 1.9235 0.2170
5.8400 1.9301 0.2338
5.8600 1.9368 0.2355
5.8800 1.9435 0.2211
5.9000 1.9501 0.2341
5.9200 1.9568 0.2324
5.9400 1.9634 0.2270
5.9600 1.9701 0.2354
5.9800 1.9768 0.2405
6.0000 1.9834 0.2273
6.0200 1.9901 0.2426
6.0400 1.9968 0.2400
6.0600 2.0035 0.2334
6.0800 2.0102 0.2479
6.1000 2.0168 0.2390
6.1200 2.0233 0.2364
6.1400 2.0300 0.2504
6.1600 2.0367 0.2448
6.1800 2.0434 0.2384
6.2000 2.0501 0.2523
6.2200 2.0568 0.2476
6.2400 2.0635 0.2437
6.2600 2.0701 0.2514
6.2800 2.0767 0.2491
6.3000 2.0833 0.2508
6.3200 2.0900 0.2542
6.3400 2.0967 0.2526
6.3600 2.1034 0.2553
6.3800 2.1101 0.2555
6.4000 2.1167 0.2573
6.4200 2.1234 0.2526
6.4400 2.1301 0.2619
6.4600 2.1368 0.2567
6.4800 2.1434 0.2586
6.5000 2.1500 0.2645
6.5200 2.1567 0.2636
6.5400 2.1634 0.2570
6.5600 2.1701 0.2664
6.5800 2.1768 0.2657
6.6000 2.1835 0.2625
6.6200 2.1902 0.2736
6.6400 2.1968 0.2631
6.6600 2.2034 0.2624
6.6800 2.2100 0.2785
6.7000 2.2167 0.2680
6.7200 2.2234 0.2641
6.7400 2.2301 0.2745
6.7600 2.2368 0.2698
6.7800 2.2435 0.2776
6.8000 2.2501 0.2750
6.8200 2.2568 0.2749
6.8400 2.2634 0.2772
6.8600 2.2700 0.2804
6.8800 2.2767 0.2804
6.9000 2.2834 0.2789
6.9200 2.2901 0.2769
6.9400 2.2968 0.2853
6.9600 2.3034 0.2802
6.9800 2.3101 0.2815
7.0000 2.3167 0.2823
7.0200 2.3233 0.2890
7.0400 2.3300 0.2841
7.0600 2.3366 0.2843
7.0800 2.3434 0.2878
7.1000 2.3501 0.2892
7.1200 2.3568 0.2868
7.1400 2.3634 0.2911
7.1600 2.3701 0.2890
7.1800 2.3768 0.2911
7.2000 2.3834 0.2940
7.2200 2.3900 0.2928
7.2400 2.3967 0.2935
7.2600 2.4034 0.2970
7.2800 2.4102 0.2955
7.3000 2.4168 0.2986
7.3200 2.4235 0.3004
7.3400 2.4302 0.2949
7.3600 2.4368 0.3003
7.3800 2.4434 0.3011
7.4000 2.4500 0.3026
7.4200 2.4567 0.2992
7.4400 2.4634 0.3053
7.4600 2.4701 0.3020
7.4800 2.4768 0.3067
7.5000 2.4835 0.3086
7.5200 2.4902 0.3062
7.5400 2.4968 0.3080
7.5600 2.5034 0.3039
7.5800 2.5100 0.3112
7.6000 2.5167 0.3130
7.6200 2.5234 0.3061
7.6400 2.5301 0.3128
7.6600 2.5368 0.3187
7.6800 2.5434 0.3131
7.7000 2.5501 0.3101
7.7200 2.5567 0.3188
7.7400 2.5633 0.3160
7.7600 2.5700 0.3190
7.7800 2.5767 0.3182
7.8000 2.5834 0.3173
7.8200 2.5901 0.3232
7.8400 2.5968 0.3142
7.8600 2.6034 0.3192
7.8800 2.6101 0.3313
7.9000 2.6167 0.3190
7.9200 2.6234 0.3208
7.9400 2.6300 0.3299
7.9600 2.6367 0.3267
7.9800 2.6434 0.3300
8.0000 2.6501 0.3256
8.0200 2.6568 0.3272
8.0400 2.6635 0.3307
8.0600 2.6702 0.3302
8.0800 2.6768 0.3245
8.1000 2.6834 0.3366
8.1200 2.6900 0.3286
8.1400 2.6967 0.3307
8.1600 2.7034 0.3374
8.1800 2.7101 0.3314
8.2000 2.7168 0.3351
8.2200 2.7235 0.3394
8.2400 2.7302 0.3336
8.2600 2.7368 0.3372
8.2800 2.7434 0.3394
8.3000 2.7500 0.3410
8.3200 2.7567 0.3417
8.3400 2.7634 0.3424
8.3600 2.7701 0.3405
8.3800 2.7768 0.3428
8.4000 2.7834 0.3497
8.4200 2.7901 0.3384
8.4400 2.7968 0.3460
8.4600 2.8034 0.3479
8.4800 2.8100 0.3422
8.5000 2.8167 0.3476
8.5200 2.8234 0.3538
8.5400 2.8301 0.3453
8.5600 2.8367 0.3476
8.5800 2.8434 0.3510
8.6000 2.8501 0.3523
8.6200 2.8568 0.3496
8.6400 2.8634 0.3581
8.6600 2.8700 0.3528
8.6800 2.8767 0.3579
8.7000 2.8834 0.3553
8.7200 2.8901 0.3529
8.7400 2.8968 0.3601
8.7600 2.9035 0.3575
8.7800 2.9102 0.3534
8.8000 2.9168 0.3638
8.8200 2.9234 0.3628
8.8400 2.9300 0.3601
8.8600 2.9367 0.3629
8.8800 2.9434 0.3631
8.9000 2.9501 0.3620
8.9200 2.9568 0.3625
8.9400 2.9635 0.3618
8.9600 2.9701 0.3676
8.9800 2.9768 0.3684
9.0000 2.9834 0.3671
9.0200 2.9900 0.3675
9.0400 2.9967 0.3649
9.0600 3.0034 0.3734
9.0800 3.0101 0.3689
9.1000 3.0167 0.3690
9.1200 3.0234 0.3685
9.1400 3.0301 0.3753
9.1600 3.0368 0.3707
9.1800 3.0434 0.3763
9.2000 3.0500 0.3749
9.2200 3.0566 0.3742
9.2400 3.0633 0.3775
9.2600 3.0701 0.3757
9.2800 3.0767 0.3747
9.3000 3.0834 0.3842
9.3200 3.0901 0.3787
9.3400 3.0967 0.3778
9.3600 3.1033 0.3861
9.3800 3.1100 0.3798
9.4000 3.1167 0.3820
9.4200 3.1234 0.3864
9.4400 3.1301 0.3776
9.4600 3.1368 0.3809
9.4800 3.1435 0.3910
9.5000 3.1502 0.3794
9.5200 3.1568 0.3874
9.5400 3.1635 0.3923
9.5600 3.1701 0.3877
9.5800 3.1767 0.3870
9.6000 3.1834 0.3933
9.6200 3.1901 0.3895
9.6400 3.1968 0.3918
9.6600 3.2035 0.3927
9.6800 3.2101 0.3933
9.7000 3.2168 0.3868
9.7200 3.2234 0.3984
9.7400 3.2300 0.3976
9.7600 3.2366 0.3902
9.7800 3.2433 0.4009
9.8000 3.2501 0.3986
9.8200 3.2567 0.3907
9.8400 3.2634 0.4053
9.8600 3.2701 0.3973
9.8800 3.2768 0.3926
9.9000 3.2834 0.4055
9.9200 3.2900 0.3981
9.9400 3.2967 0.3986
9.9600 3.3034 0.4121
9.9800 3.3101 0.3994
10.0000 3.3168 0.3957
10.0200 3.3234 0.4154
10.0400 3.3301 0.3968
10.0600 3.3368 0.4043
10.0800 3.3434 0.4138
10.1000 3.3501 0.3990
10.1200 3.3567 0.4083
10.1400 3.3634 0.4218
10.1600 3.3701 0.4021
10.1800 3.3768 0.4121
10.2000 3.3835 0.4179
10.2200 3.3902 0.4057
10.2400 3.3968 0.4124
10.2600 3.4034 0.4201
10.2800 3.4100 0.4080
10.3000 3.4167 0.4176
10.3200 3.4234 0.4174
10.3400 3.4301 0.4117
10.3600 3.4368 0.4191
10.3800 3.4435 0.4209
10.4000 3.4501 0.4127
10.4200 3.4568 0.4219
10.4400 3.4634 0.4201
10.4600 3.4700 0.4166
10.4800 3.4767 0.4252
10.5000 3.4834 0.4245
10.5200 3.4901 0.4189
10.5400 3.4967 0.4219
10.5600 3.5034 0.4237
10.5800 3.5101 0.4231
10.6000 3.5167 0.4259
10.6200 3.5234 0.4260
10.6400 3.5300 0.4273
10.6600 3.5367 0.4267
10.6800 3.5434 0.4323
10.7000 3.5501 0.4299
10.7200 3.5567 0.4297
10.7400 3.5634 0.4319
10.7600 3.5701 0.4310
10.7800 3.5768 0.4260
10.8000 3.5834 0.4387
10.8200 3.5900 0.4340
10.8400 3.5967 0.4295
10.8600 3.6034 0.4363
10.8800 3.6101 0.4334
10.9000 3.6168 0.4303
10.9200 3.6235 0.4441
10.9400 3.6302 0.4329
10.9600 3.6368 0.4300
10.9800 3.6434 0.4465
11.0000 3.6500 0.4394
11.0200 3.6567 0.4346
11.0400 3.6634 0.4479
11.0600 3.6701 0.4365
11.0800 3.6768 0.4362
11.1000 3.6835 0.4514
11.1200 3.6901 0.4366
11.1400 3.6968 0.4438
11.1600 3.7034 0.4491
11.1800 3.7100 0.4410
11.2000 3.7167 0.4509
11.2200 3.7234 0.4535
11.2400 3.7301 0.4382
11.2600 3.7368 0.4557
11.2800 3.7435 0.4492
11.3000 3.7501 0.4450
11.3200 3.7568 0.4500
11.3400 3.7634 0.4466
11.3600 3.7700 0.4514
11.3800 3.7766 0.4591
11.4000 3.7833 0.4480
11.4200 3.7901 0.4570
11.4400 3.7968 0.4575
11.4600 3.8034 0.4498
11.4800 3.8101 0.4578
11.5000 3.8168 0.4591
11.5200 3.8234 0.4495
11.5400 3.8300 0.4577
11.5600 3.8367 0.4605
11.5800 3.8434 0.4517
11.6000 3.8501 0.4636
11.6200 3.8568 0.4576
11.6400 3.8635 0.4565
11.6600 3.8702 0.4617
11.6800 3.8769 0.4590
11.7000 3.8835 0.4639
11.7200 3.8901 0.4640
11.7400 3.8967 0.4583
11.7600 3.9034 0.4691
11.7800 3.9101 0.4647
11.8000 3.9168 0.4603
11.8200 3.9235 0.4674
11.8400 3.9302 0.4746
11.8600 3.9368 0.4573
11.8800 3.9434 0.4642
11.9000 3.9500 0.4734
11.9200 3.9567 0.4686
11.9400 3.9634 0.4707
11.9600 3.9701 0.4679
11.9800 3.9768 0.4679
12.0000 3.9834 0.4775
12.0200 3.9901 0.4686
12.0400 3.9968 0.4697
12.0600 4.0034 0.4790
12.0800 4.0100 0.4736
12.1000 4.0167 0.4710
12.1200 4.0233 0.4779
12.1400 4.0301 0.4743
12.1600 4.0367 0.4754
12.1800 4.0434 0.4800
12.2000 4.0501 0.4710
12.2200 4.0568 0.4791
12.2400 4.0634 0.4769
12.2600 4.0701 0.4764
12.2800 4.0767 0.4834
12.3000 4.0834 0.4850
12.3200 4.0901 0.4766
12.3400 4.0968 0.4841
12.3600 4.1035 0.4835
12.3800 4.1101 0.4773
12.4000 4.1168 0.4839
12.4200 4.1234 0.4827
12.4400 4.1300 0.4856
12.4600 4.1367 0.4924
12.4800 4.1434 0.4841
12.5000 4.1501 0.4868
12.5200 4.1568 0.4899
12.5400 4.1635 0.4854
12.5600 4.1702 0.4873
12.5800 4.1768 0.4923
12.6000 4.1835 0.4850
12.6200 4.1901 0.4904
12.6400 4.1967 0.4950
12.6600 4.2034 0.4889
12.6800 4.2101 0.4943
12.7000 4.2167 0.4917
12.7200 4.2234 0.4935
12.7400 4.2301 0.4909
12.7600 4.2368 0.5010
12.7800 4.2434 0.4914
12.8000 4.2500 0.4969
12.8200 4.2566 0.4951
12.8400 4.2633 0.4973
12.8600 4.2700 0.5015
12.8800 4.2767 0.4957
12.9000 4.2834 0.4955
12.9200 4.2901 0.5033
12.9400 4.2968 0.5021
12.9600 4.3034 0.4957
12.9800 4.3100 0.4997
13.0000 4.3167 0.5121
13.0200 4.3234 0.4985
13.0400 4.3301 0.4987
13.0600 4.3368 0.5085
13.0800 4.3435 0.5029
13.1000 4.3502 0.5002
13.1200 4.3568 0.5102
13.1400 4.3634 0.5035
13.1600 4.3700 0.5057
13.1800 4.3767 0.5181
13.2000 4.3834 0.5034
13.2200 4.3901 0.5087
13.2400 4.3968 0.5145
13.2600 4.4035 0.5020
13.2800 4.4102 0.5112
13.3000 4.4168 0.5153
13.3200 4.4235 0.5030
13.3400 4.4301 0.5144
13.3600 4.4367 0.5196
13.3800 4.4433 0.5076
13.4000 4.4500 0.5148
13.4200 4.4567 0.5232
13.4400 4.4635 0.5042
13.4600 4.4701 0.5191
13.4800 4.4768 0.5210
13.5000 4.4834 0.5087
13.5200 4.4900 0.5181
13.5400 4.4966 0.5220
13.5600 4.5033 0.5144
13.5800 4.5100 0.5209
13.6000 4.5167 0.5230
13.6200 4.5234 0.5135
13.6400 4.5301 0.5271
13.6600 4.5367 0.5249
13.6800 4.5434 0.5101
13.7000 4.5500 0.5253
13.7200 4.5567 0.5303
13.7400 4.5634 0.5173
13.7600 4.5701 0.5232
13.7800 4.5768 0.5283
13.8000 4.5835 0.5213
13.8200 4.5901 0.5239
13.8400 4.5968 0.5281
13.8600 4.6035 0.5234
13.8800 4.6101 0.5316
13.9000 4.6167 0.5285
13.9200 4.6234 0.5216
13.9400 4.6301 0.5317
13.9600 4.6368 0.5349
13.9800 4.6435 0.5222
14.0000 4.6501 0.5333
14.0200 4.6568 0.5300
14.0400 4.6634 0.5267
14.0600 4.6700 0.5343
14.0800 4.6767 0.5346
14.1000 4.6833 0.5286
14.1200 4.6900 0.5341
14.1400 4.6967 0.5365
14.1600 4.7034 0.5277
14.1800 4.7101 0.5396
14.2000 4.7168 0.5405
14.2200 4.7234 0.5258
14.2400 4.7300 0.5371
14.2600 4.7367 0.5452
14.2800 4.7433 0.5317
14.3000 4.7500 0.5448
14.3200 4.7567 0.5459
14.3400 4.7634 0.5319
14.3600 4.7701 0.5452
14.3800 4.7768 0.5467
14.4000 4.7835 0.5309
14.4200 4.7901 0.5483
14.4400 4.7967 0.5485
14.4600 4.8034 0.5370
14.4800 4.8101 0.5399
14.5000 4.8168 0.5518
14.5200 4.8235 0.5371
14.5400 4.8301 0.5464
14.5600 4.8368 0.5533
14.5800 4.8435 0.5376
14.6000 4.8501 0.5449
14.6200 4.8567 0.5554
14.6400 4.8634 0.5428
14.6600 4.8701 0.5471
14.6800 4.8768 0.5539
14.7000 4.8834 0.5462
14.7200 4.8901 0.5494
14.7400 4.8968 0.5557
14.7600 4.9035 0.5454
14.7800 4.9101 0.5524
14.8000 4.9167 0.5571
14.8200 4.9234 0.5458
14.8400 4.9300 0.5555
14.8600 4.9367 0.5572
14.8800 4.9434 0.5462
14.9000 4.9501 0.5552
14.9200 4.9568 0.5593
14.9400 4.9635 0.5487
14.9600 4.9701 0.5568
14.9800 4.9767 0.5566
15.0000 4.9833 0.5567
15.0200 4.9900 0.5590
15.0400 4.9967 0.5618
15.0600 5.0034 0.5553
15.0800 5.0101 0.5600
15.1000 5.0168 0.5605
15.1200 5.0234 0.5568
15.1400 5.0301 0.5611
15.1600 5.0367 0.5615
15.1800 5.0433 0.5633
15.2000 5.0500 0.5621
15.2200 5.0568 0.5601
15.2400 5.0634 0.5667
15.2600 5.0701 0.5632
15.2800 5.0768 0.5611
15.3000 5.0835 0.5688
15.3200 5.0901 0.5615
15.3400 5.0967 0.5621
15.3600 5.1034 0.5757
15.3800 5.1100 0.5636
15.4000 5.1167 0.5637
15.4200 5.1234 0.5777
15.4400 5.1301 0.5597
15.4600 5.1368 0.5667
15.4800 5.1435 0.5759
15.5000 5.1501 0.5648
15.5200 5.1567 0.5662
15.5400 5.1633 0.5815
15.5600 5.1700 0.5657
15.5800 5.1768 0.5721
15.6000 5.1835 0.5763
15.6200 5.1901 0.5631
15.6400 5.1968 0.5766
15.6600 5.2034 0.5729
15.6800 5.2101 0.5681
15.7000 5.2167 0.5819
15.7200 5.2233 0.5776
15.7400 5.2300 0.5716
15.7600 5.2367 0.5764
15.7800 5.2434 0.5784
15.8000 5.2501 0.5778
15.8200 5.2567 0.5759
15.8400 5.2634 0.5776
15.8600 5.2701 0.5826
15.8800 5.2767 0.5757
15.9000 5.2834 0.5815
15.9200 5.2900 0.5881
15.9400 5.2968 0.5725
15.9600 5.3035 0.5839
15.9800 5.3101 0.5832
16.0000 5.3168 0.5763
16.0200 5.3235 0.5905
16.0400 5.3301 0.5857
16.0600 5.3367 0.5722
16.0800 5.3434 0.5978
16.1000 5.3501 0.5834
16.1200 5.3568 0.5766
16.1400 5.3635 0.6001
16.1600 5.3701 0.5836
16.1800 5.3768 0.5784
16.2000 5.3834 0.6002
16.2200 5.3901 0.5806
16.2400 5.3967 0.5780
16.2600 5.4033 0.6058
16.2800 5.4100 0.5865
16.3000 5.4167 0.5841
16.3200 5.4234 0.6045
16.3400 5.4301 0.5835
16.3600 5.4368 0.5891
16.3800 5.4434 0.6031
16.4000 5.4501 0.5821
16.4200 5.4567 0.5912
16.4400 5.4633 0.6020
16.4600 5.4700 0.5916
16.4800 5.4767 0.5902
16.5000 5.4834 0.6098
16.5200 5.4901 0.5911
16.5400 5.4968 0.5923
16.5600 5.5035 0.6043
16.5800 5.5101 0.5942
16.6000 5.5167 0.5915
16.6200 5.5233 0.6072
16.6400 5.5300 0.5915
16.6600 5.5368 0.5972
16.6800 5.5435 0.6073
16.7000 5.5501 0.5945
16.7200 5.5568 0.5977
16.7400 5.5635 0.6095
16.7600 5.5701 0.5907
16.7800 5.5767 0.6001
16.8000 5.5834 0.6139
16.8200 5.5901 0.5956
16.8400 5.5968 0.5973
16.8600 5.6034 0.6124
16.8800 5.6101 0.5998
16.9000 5.6168 0.5997
16.9200 5.6235 0.6162
16.9400 5.6301 0.6002
16.9600 5.6367 0.6031
16.9800 5.6433 0.6189
17.0000 5.6500 0.6018
17.0200 5.6567 0.5989
17.0400 5.6634 0.6205
17.0600 5.6701 0.6060
17.0800 5.6768 0.5987
17.1000 5.6835 0.6161
17.1200 5.6901 0.6089
17.1400 5.6967 0.6015
17.1600 5.7033 0.6232
17.1800 5.7100 0.6074
17.2000 5.7167 0.6058
17.2200 5.7234 0.6244
17.2400 5.7301 0.6074
17.2600 5.7367 0.6089
17.2800 5.7434 0.6255
17.3000 5.7501 0.6069
17.3200 5.7567 0.6095
17.3400 5.7634 0.6268
17.3600 5.7700 0.6074
17.3800 5.7767 0.6126
17.4000 5.7834 0.6258
17.4200 5.7901 0.6100
17.4400 5.7968 0.6164
17.4600 5.8035 0.6261
17.4800 5.8101 0.6080
17.5000 5.8167 0.6163
17.5200 5.8234 0.6315
17.5400 5.8300 0.6153
17.5600 5.8368 0.6121
17.5800 5.8435 0.6322
17.6000 5.8501 0.6168
17.6200 5.8568 0.6160
17.6400 5.8635 0.6288
17.6600 5.8701 0.6218
17.6800 5.8767 0.6177
17.7000 5.8833 0.6306
17.7200 5.8900 0.6175
17.7400 5.8967 0.6240
17.7600 5.9034 0.6317
17.7800 5.9101 0.6203
17.8000 5.9168 0.6257
17.8200 5.9235 0.6314
17.8400 5.9301 0.6175
17.8600 5.9367 0.6322
17.8800 5.9434 0.6312
17.9000 5.9500 0.6227
17.9200 5.9567 0.6332
17.9400 5.9634 0.6332
17.9600 5.9701 0.6200
17.9800 5.9767 0.6305
18.0000 5.9834 0.6342
18.0200 5.9901 0.6248
18.0400 5.9967 0.6366
18.0600 6.0033 0.6316
18.0800 6.0100 0.6312
18.1000 6.0167 0.6324
18.1200 6.0234 0.6318
18.1400 6.0301 0.6338
18.1600 6.0368 0.6333
18.1800 6.0435 0.6303
18.2000 6.0501 0.6346
18.2200 6.0567 0.6306
18.2400 6.0633 0.6385
18.2600 6.0700 0.6360
18.2800 6.0768 0.6309
18.3000 6.0835 0.6360
18.3200 6.0901 0.6415
18.3400 6.0968 0.6321
18.3600 6.1035 0.6385
18.3800 6.1101 0.6397
18.4000 6.1167 0.6341
18.4200 6.1233 0.6443
18.4400 6.1300 0.6394
18.4600 6.1367 0.6358
18.4800 6.1434 0.6475
18.5000 6.1501 0.6395
18.5200 6.1568 0.6365
18.5400 6.1635 0.6504
18.5600 6.1701 0.6431
18.5800 6.1767 0.6361
18.6000 6.1833 0.6453
18.6200 6.1900 0.6506
18.6400 6.1967 0.6410
18.6600 6.2034 0.6457
18.6800 6.2101 0.6469
18.7000 6.2168 0.6454
18.7200 6.2234 0.6440
18.7400 6.2301 0.6456
18.7600 6.2367 0.6468
18.7800 6.2434 0.6484
18.8000 6.2500 0.6485
18.8200 6.2567 0.6470
18.8400 6.2634 0.6457
18.8600 6.2701 0.6532
18.8800 6.2768 0.6515
18.9000 6.2835 0.6483
18.9200 6.2901 0.6504
18.9400 6.2967 0.6543
18.9600 6.3033 0.6497
18.9800 6.3100 0.6531
19.0000 6.3167 0.6512
19.0200 6.3234 0.6532
19.0400 6.3301 0.6574
19.0600 6.3368 0.6496
19.0800 6.3435 0.6543
19.1000 6.3501 0.6595
19.1200 6.3567 0.6520
19.1400 6.3633 0.6516
19.1600 6.3700 0.6642
19.1800 6.3767 0.6530
19.2000 6.3835 0.6581
19.2200 6.3901 0.6586
19.2400 6.3968 0.6601
19.2600 6.4035 0.6580
19.2800 6.4101 0.6615
19.3000 6.4167 0.6538
19.3200 6.4233 0.6609
19.3400 6.4300 0.6613
19.3600 6.4367 0.6623
19.3800 6.4434 0.6553
19.4000 6.4501 0.6597
19.4200 6.4567 0.6656
19.4400 6.4634 0.6560
19.4600 6.4701 0.6571
19.4800 6.4767 0.6692
19.5000 6.4833 0.6601
19.5200 6.4900 0.6606
19.5400 6.4967 0.6680
19.5600 6.5034 0.6581
19.5800 6.5101 0.6662
19.6000 6.5168 0.6722
19.6200 6.5235 0.6579
19.6400 6.5302 0.6677
19.6600 6.5368 0.6756
19.6800 6.5434 0.6548
19.7000 6.5500 0.6750
19.7200 6.5568 0.6743
19.7400 6.5635 0.6544
19.7600 6.5702 0.6729
19.7800 6.5768 0.6776
19.8000 6.5835 0.6542
19.8200 6.5901 0.6751
19.8400 6.5968 0.6773
19.8600 6.6034 0.6607
19.8800 6.6100 0.6753
19.9000 6.6167 0.6766
19.9200 6.6234 0.6602
19.9400 6.6301 0.6779
19.9600 6.6368 0.6773
19.9800 6.6435 0.6640
20.0000 6.6501 0.6775
20.0200 6.6567 0.6768
20.0400 6.6633 0.6666
20.0600 6.6699 0.6798
20.0800 6.6766 0.6777
20.1000 6.6834 0.6661
20.1200 6.6901 0.6791
20.1400 6.6967 0.6812
20.1600 6.7034 0.6710
20.1800 6.7101 0.6759
20.2000 6.7167 0.6826
20.2200 6.7233 0.6741
20.2400 6.7300 0.6787
20.2600 6.7367 0.6817
20.2800 6.7435 0.6739
20.3000 6.7502 0.6744
20.3200 6.7568 0.6874
20.3400 6.7635 0.6744
20.3600 6.7701 0.6812
20.3800 6.7768 0.6905
20.4000 6.7834 0.6709
20.4200 6.7900 0.6800
20.4400 6.7967 0.6964
20.4600 6.8034 0.6686
20.4800 6.8101 0.6815
20.5000 6.8168 0.6934
20.5200 6.8235 0.6697
20.5400 6.8302 0.6866
20.5600 6.8368 0.6930
20.5800 6.8433 0.6776
20.6000 6.8500 0.6938
20.6200 6.8567 0.6910
20.6400 6.8634 0.6735
20.6600 6.8701 0.6937
20.6800 6.8768 0.6899
20.7000 6.8835 0.6801
20.7200 6.8901 0.6925
20.7400 6.8967 0.6931
20.7600 6.9033 0.6787
20.7800 6.9100 0.6978
20.8000 6.9167 0.6922
20.8200 6.9234 0.6845
20.8400 6.9301 0.6935
20.8600 6.9367 0.6927
20.8800 6.9434 0.6838
20.9000 6.9501 0.6918
20.9200 6.9568 0.6958
20.9400 6.9634 0.6911
20.9600 6.9700 0.6888
20.9800 6.9767 0.7000
21.0000 6.9834 0.6893
21.0200 6.9901 0.6963
21.0400 6.9968 0.6984
21.0600 7.0035 0.6892
21.0800 7.0102 0.6972
21.1000 7.0168 0.6980
21.1200 7.0234 0.6870
21.1400 7.0300 0.7046
21.1600 7.0367 0.7028
21.1800 7.0434 0.6830
21.2000 7.0501 0.7006
21.2200 7.0568 0.7007
21.2400 7.0635 0.6910
21.2600 7.0701 0.7024
21.2800 7.0768 0.7013
21.3000 7.0834 0.6928
21.3200 7.0900 0.7055
21.3400 7.0967 0.7000
21.3600 7.1034 0.6965
21.3800 7.1101 0.7072
21.4000 7.1168 0.6991
21.4200 7.1234 0.6939
21.4400 7.1301 0.7081
21.4600 7.1368 0.7011
21.4800 7.1434 0.7031
21.5000 7.1500 0.7066
21.5200 7.1566 0.7031
21.5400 7.1634 0.7041
21.5600 7.1701 0.7040
21.5800 7.1767 0.7047
21.6000 7.1834 0.7091
21.6200 7.1901 0.6988
21.6400 7.1968 0.7031
21.6600 7.2033 0.7118
21.6800 7.2100 0.7040
21.7000 7.2167 0.7088
21.7200 7.2234 0.7124
21.7400 7.2302 0.6987
21.7600 7.2368 0.7103
21.7800 7.2435 0.7172
21.8000 7.2502 0.6952
21.8200 7.2568 0.7154
21.8400 7.2634 0.7192
21.8600 7.2700 0.6996
21.8800 7.2767 0.7142
21.9000 7.2834 0.7173
21.9200 7.2901 0.7016
21.9400 7.2968 0.7183
21.9600 7.3035 0.7102
21.9800 7.3101 0.7054
22.0000 7.3168 0.7253
22.0200 7.3234 0.7098
22.0400 7.3300 0.7019
22.0600 7.3367 0.7270
22.0800 7.3434 0.7081
22.1000 7.3501 0.7088
22.1200 7.3567 0.7235
22.1400 7.3634 0.7104
22.1600 7.3701 0.7100
22.1800 7.3768 0.7233
22.2000 7.3834 0.7108
22.2200 7.3900 0.7169
22.2400 7.3967 0.7227
22.2600 7.4034 0.7122
22.2800 7.4101 0.7190
22.3000 7.4168 0.7169
22.3200 7.4234 0.7212
22.3400 7.4301 0.7214
22.3600 7.4368 0.7172
22.3800 7.4434 0.7191
22.4000 7.4500 0.7259
22.4200 7.4567 0.7197
22.4400 7.4634 0.7206
22.4600 7.4701 0.7198
22.4800 7.4768 0.7202
22.5000 7.4835 0.7242
22.5200 7.4902 0.7188
22.5400 7.4968 0.7196
22.5600 7.5034 0.7340
22.5800 7.5100 0.7153
22.6000 7.5167 0.7231
22.6200 7.5234 0.7305
22.6400 7.5301 0.7213
22.6600 7.5368 0.7249
22.6800 7.5435 0.7260
22.7000 7.5502 0.7207
22.7200 7.5568 0.7311
22.7400 7.5634 0.7276
22.7600 7.5700 0.7208
22.7800 7.5767 0.7297
22.8000 7.5834 0.7315
22.8200 7.5901 0.7249
22.8400 7.5968 0.7293
22.8600 7.6034 0.7303
22.8800 7.6101 0.7260
22.9000 7.6168 0.7298
22.9200 7.6234 0.7267
22.9400 7.6300 0.7325
22.9600 7.6367 0.7323
22.9800 7.6434 0.7294
23.0000 7.6501 0.7285
23.0200 7.6567 0.7357
23.0400 7.6634 0.7330
23.0600 7.6701 0.7262
23.0800 7.6768 0.7304
23.1000 7.6834 0.7412
23.1200 7.6900 0.7265
23.1400 7.6967 0.7342
23.1600 7.7034 0.7414
23.1800 7.7101 0.7278
23.2000 7.7168 0.7311
23.2200 7.7235 0.7470
23.2400 7.7302 0.7337
23.2600 7.7368 0.7273
23.2800 7.7434 0.7434
23.3000 7.7500 0.7350
23.3200 7.7567 0.7370
23.3400 7.7634 0.7425
23.3600 7.7701 0.7349
23.3800 7.7768 0.7359
23.4000 7.7835 0.7414
23.4200 7.7901 0.7326
23.4400 7.7968 0.7442
23.4600 7.8034 0.7418
23.4800 7.8100 0.7288
23.5000 7.8167 0.7449
23.5200 7.8234 0.7513
23.5400 7.8301 0.7301
23.5600 7.8368 0.7449
23.5800 7.8434 0.7452
23.6000 7.8501 0.7351
23.6200 7.8568 0.7432
23.6400 7.8634 0.7507
23.6600 7.8700 0.7355
23.6800 7.8766 0.7472
23.7000 7.8833 0.7451
23.7200 7.8900 0.7367
23.7400 7.8967 0.7442
23.7600 7.9034 0.7513
23.7800 7.9101 0.7383
23.8000 7.9167 0.7419
23.8200 7.9233 0.7545
23.8400 7.9300 0.7420
23.8600 7.9366 0.7474
23.8800 7.9434 0.7533
23.9000 7.9501 0.7397
23.9200 7.9568 0.7460
23.9400 7.9635 0.7576
23.9600 7.9701 0.7377
23.9800 7.9768 0.7479
24.0000 7.9834 0.7556
24.0200 7.9901 0.7428
24.0400 7.9967 0.7486
24.0600 8.0034 0.7543
24.0800 8.0101 0.7444
24.1000 8.0168 0.7533
24.1200 8.0235 0.7500
24.1400 8.0302 0.7513
24.1600 8.0368 0.7515
24.1800 8.0434 0.7591
24.2000 8.0500 0.7484
24.2200 8.0566 0.7490
24.2400 8.0633 0.7593
24.2600 8.0701 0.7537
24.2800 8.0767 0.7475
24.3000 8.0834 0.7616
24.3200 8.0901 0.7558
24.3400 8.0968 0.7433
24.3600 8.1034 0.7616
24.3800 8.1100 0.7625
24.4000 8.1167 0.7497
24.4200 8.1234 0.7601
24.4400 8.1301 0.7600
24.4600 8.1368 0.7481
24.4800 8.1434 0.7683
24.5000 8.1501 0.7560
24.5200 8.1568 0.7535
24.5400 8.1634 0.7671
24.5600 8.1701 0.7566
24.5800 8.1767 0.7518
24.6000 8.1834 0.7699
24.6200 8.1901 0.7574
24.6400 8.1968 0.7525
24.6600 8.2035 0.7688
24.6800 8.2102 0.7621
24.7000 8.2168 0.7569
24.7200 8.2235 0.7697
24.7400 8.2300 0.7587
24.7600 8.2367 0.7587
24.7800 8.2434 0.7699
24.8000 8.2501 0.7603
24.8200 8.2568 0.7576
24.8400 8.2635 0.7707
24.8600 8.2701 0.7651
24.8800 8.2768 0.7555
24.9000 8.2834 0.7749
24.9200 8.2900 0.7665
24.9400 8.2966 0.7607
24.9600 8.3034 0.7715
24.9800 8.3101 0.7655
25.0000 8.3168 0.7561
25.0200 8.3234 0.7751
25.0400 8.3301 0.7698
25.0600 8.3368 0.7595
25.0800 8.3434 0.7756
25.1000 8.3500 0.7672
25.1200 8.3567 0.7603
25.1400 8.3633 0.7825
25.1600 8.3700 0.7652
25.1800 8.3767 0.7651
25.2000 8.3834 0.7780
25.2200 8.3901 0.7684
25.2400 8.3968 0.7664
25.2600 8.4034 0.7782
25.2800 8.4100 0.7691
25.3000 8.4167 0.7728
25.3200 8.4234 0.7745
25.3400 8.4301 0.7699
25.3600 8.4368 0.7747
25.3800 8.4435 0.7720
25.4000 8.4502 0.7703
25.4200 8.4568 0.7736
25.4400 8.4634 0.7723
25.4600 8.4700 0.7748
25.4800 8.4767 0.7762
25.5000 8.4834 0.7743
25.5200 8.4901 0.7822
25.5400 8.4968 0.7725
25.5600 8.5035 0.7760
25.5800 8.5101 0.7843
25.6000 8.5168 0.7779
25.6200 8.5234 0.7695
25.6400 8.5300 0.7861
25.6600 8.5366 0.7775
25.6800 8.5433 0.7740
25.7000 8.5500 0.7831
25.7200 8.5568 0.7772
25.7400 8.5634 0.7740
25.7600 8.5701 0.7864
25.7800 8.5768 0.7715
25.8000 8.5834 0.7796
25.8200 8.5900 0.7839
25.8400 8.5966 0.7754
25.8600 8.6033 0.7844
25.8800 8.6101 0.7861
25.9000 8.6168 0.7779
25.9200 8.6234 0.7832
25.9400 8.6301 0.7862
25.9600 8.6368 0.7794
25.9800 8.6434 0.7861
26.0000 8.6501 0.7850
26.0200 8.6567 0.7809
26.0400 8.6634 0.7859
26.0600 8.6701 0.7849
26.0800 8.6768 0.7814
26.1000 8.6834 0.7849
26.1200 8.6901 0.7886
26.1400 8.6969 0.7886
26.1600 8.7035 0.7768
26.1800 8.7101 0.7875
26.2000 8.7167 0.7945
26.2200 8.7234 0.7770
26.2400 8.7301 0.7907
26.2600 8.7368 0.7951
26.2800 8.7435 0.7773
26.3000 8.7502 0.7961
26.3200 8.7568 0.7920
26.3400 8.7634 0.7801
26.3600 8.7700 0.7981
26.3800 8.7766 0.7923
26.4000 8.7833 0.7752
26.4200 8.7901 0.8019
26.4400 8.7968 0.7949
26.4600 8.8034 0.7736
26.4800 8.8101 0.8039
26.5000 8.8168 0.7949
26.5200 8.8234 0.7792
26.5400 8.8300 0.8043
26.5600 8.8367 0.7966
26.5800 8.8433 0.7786
26.6000 8.8501 0.8053
26.6200 8.8567 0.7928
26.6400 8.8634 0.7837
26.6600 8.8701 0.8073
26.6800 8.8768 0.7936
26.7000 8.8834 0.7856
26.7200 8.8900 0.8026
26.7400 8.8967 0.7919
26.7600 8.9033 0.7950
26.7800 8.9101 0.7989
26.8000 8.9168 0.7935
26.8200 8.9235 0.7943
26.8400 8.9302 0.7996
26.8600 8.9368 0.7926
26.8800 8.9435 0.7954
26.9000 8.9501 0.8044
26.9200 8.9567 0.7989
26.9400 8.9634 0.7936
26.9600 8.9701 0.8053
26.9800 8.9768 0.7996
27.0000 8.9835 0.7908
27.0200 8.9902 0.8049
27.0400 8.9968 0.8080
27.0600 9.0035 0.7898
27.0800 9.0101 0.8072
27.1000 9.0167 0.8103
27.1200 9.0234 0.7886
27.1400 9.0301 0.8069
27.1600 9.0368 0.8107
27.1800 9.0434 0.7881
27.2000 9.0501 0.8120
27.2200 9.0568 0.8086
27.2400 9.0634 0.7825
27.2600 9.0700 0.8166
27.2800 9.0766 0.8096
27.3000 9.0833 0.7904
27.3200 9.0900 0.8144
27.3400 9.0967 0.8105
27.3600 9.1034 0.7909
27.3800 9.1101 0.8163
27.4000 9.1168 0.8053
27.4200 9.1235 0.7951
27.4400 9.1301 0.8142
27.4600 9.1367 0.8059
27.4800 9.1434 0.8013
27.5000 9.1501 0.8131
27.5200 9.1568 0.8024
27.5400 9.1635 0.8052
27.5600 9.1702 0.8117
27.5800 9.1768 0.8037
27.6000 9.1835 0.8018
27.6200 9.1901 0.8116
27.6400 9.1967 0.8118
27.6600 9.2033 0.8019
27.6800 9.2100 0.8121
27.7000 9.2168 0.8150
27.7200 9.2235 0.8038
27.7400 9.2302 0.8014
27.7600 9.2368 0.8168
27.7800 9.2435 0.8069
27.8000 9.2501 0.8121
27.8200 9.2567 0.8124
27.8400 9.2633 0.8025
27.8600 9.2700 0.8166
27.8800 9.2768 0.8164
27.9000 9.2835 0.7981
27.9200 9.2901 0.8221
27.9400 9.2968 0.8141
27.9600 9.3035 0.7998
27.9800 9.3100 0.8199
28.0000 9.3166 0.8164
28.0200 9.3233 0.8048
28.0400 9.3300 0.8229
28.0600 9.3367 0.8097
28.0800 9.3434 0.8060
28.1000 9.3501 0.8317
28.1200 9.3568 0.8043
28.1400 9.3634 0.8129
28.1600 9.3700 0.8336
28.1800 9.3767 0.8022
28.2000 9.3833 0.8181
28.2200 9.3900 0.8282
28.2400 9.3967 0.8045
28.2600 9.4034 0.8253
28.2800 9.4102 0.8229
28.3000 9.4169 0.8074
28.3200 9.4235 0.8275
28.3400 9.4301 0.8217
28.3600 9.4367 0.8057
28.3800 9.4433 0.8359
28.4000 9.4500 0.8191
28.4200 9.4568 0.8105
28.4400 9.4635 0.8310
28.4600 9.4701 0.8178
28.4800 9.4768 0.8212
28.5000 9.4834 0.8280
28.5200 9.4900 0.8083
28.5400 9.4967 0.8328
28.5600 9.5033 0.8314
28.5800 9.5100 0.8077
28.6000 9.5167 0.8297
28.6200 9.5234 0.8302
28.6400 9.5301 0.8143
28.6600 9.5367 0.8339
28.6800 9.5434 0.8208
28.7000 9.5500 0.8200
28.7200 9.5567 0.8412
28.7400 9.5633 0.8180
28.7600 9.5700 0.8233
28.7800 9.5767 0.8419
28.8000 9.5834 0.8148
28.8200 9.5901 0.8235
28.8400 9.5968 0.8446
28.8600 9.6035 0.8136
28.8800 9.6101 0.8302
28.9000 9.6167 0.8372
28.9200 9.6234 0.8155
28.9400 9.6300 0.8367
28.9600 9.6368 0.8393
28.9800 9.6434 0.8163
29.0000 9.6501 0.8347
29.0200 9.6568 0.8348
29.0400 9.6635 0.8221
29.0600 9.6701 0.8303
29.0800 9.6767 0.8332
29.1000 9.6833 0.8272
29.1200 9.6900 0.8330
29.1400 9.6968 0.8329
29.1600 9.7034 0.8269
29.1800 9.7101 0.8304
29.2000 9.7168 0.8402
29.2200 9.7235 0.8281
29.2400 9.7301 0.8283
29.2600 9.7367 0.8448
29.2800 9.7434 0.8365
29.3000 9.7500 0.8248
29.3200 9.7567 0.8399
29.3400 9.7634 0.8415
29.3600 9.7701 0.8246
29.3800 9.7768 0.8432
29.4000 9.7835 0.8341
29.4200 9.7901 0.8254
29.4400 9.7967 0.8435
29.4600 9.8033 0.8426
29.4800 9.8100 0.8270
29.5000 9.8167 0.8467
29.5200 9.8234 0.8416
29.5400 9.8301 0.8266
29.5600 9.8368 0.8440
29.5800 9.8434 0.8425
29.6000 9.8501 0.8328
29.6200 9.8567 0.8433
29.6400 9.8634 0.8446
29.6600 9.8700 0.8345
29.6800 9.8767 0.8422
29.7000 9.8834 0.8483
29.7200 9.8901 0.8333
29.7400 9.8968 0.8447
29.7600 9.9035 0.8462
29.7800 9.9101 0.8330
29.8000 9.9167 0.8472
29.8200 9.9234 0.8487
29.8400 9.9300 0.8356
29.8600 9.9367 0.8447
29.8800 9.9435 0.8536
29.9000 9.9501 0.8333
29.9200 9.9568 0.8482
29.9400 9.9635 0.8490
29.9600 9.9701 0.8336
29.9800 9.9767 0.8504
30.0000 9.9833 0.8540
30.0200 9.9900 0.8363
30.0400 9.9968 0.8526
30.0600 10.0035 0.8483
30.0800 10.0101 0.8406
30.1000 10.0168 0.8538
30.1200 10.0234 0.8503
30.1400 10.0301 0.8378
30.1600 10.0367 0.8565
30.1800 10.0433 0.8522
30.2000 10.0500 0.8342
30.2200 10.0567 0.8593
30.2400 10.0634 0.8518
30.2600 10.0701 0.8383
30.2800 10.0767 0.8585
30.3000 10.0834 0.8479
30.3200 10.0901 0.8429
30.3400 10.0967 0.8552
30.3600 10.1034 0.8521
30.3800 10.1100 0.8471
30.4000 10.1168 0.8510
30.4200 10.1235 0.8558
30.4400 10.1301 0.8473
30.4600 10.1368 0.8516
30.4800 10.1435 0.8552
30.5000 10.1501 0.8530
30.5200 10.1567 0.8455
30.5400 10.1634 0.8634
30.5600 10.1701 0.8533
30.5800 10.1768 0.8454
30.6000 10.1835 0.8602
30.6200 10.1901 0.8553
30.6400 10.1968 0.8463
30.6600 10.2035 0.8644
30.6800 10.2101 0.8504
30.7000 10.2167 0.8472
30.7200 10.2234 0.8699
30.7400 10.2300 0.8528
30.7600 10.2367 0.8491
30.7800 10.2434 0.8711
30.8000 10.2501 0.8512
30.8200 10.2567 0.8468
30.8400 10.2634 0.8716
30.8600 10.2701 0.8517
30.8800 10.2767 0.8517
30.9000 10.2833 0.8748
30.9200 10.2900 0.8520
30.9400 10.2967 0.8528
30.9600 10.3034 0.8810
30.9800 10.3101 0.8477
31.0000 10.3168 0.8533
31.0200 10.3235 0.8804
31.0400 10.3301 0.8468
31.0600 10.3367 0.8529
31.0800 10.3433 0.8831
31.1000 10.3500 0.8473
31.1200 10.3567 0.8613
31.1400 10.3634 0.8762
31.1600 10.3701 0.8495
31.1800 10.3768 0.8633
31.2000 10.3835 0.8796
31.2200 10.3902 0.8507
31.2400 10.3968 0.8614
31.2600 10.4034 0.8769
31.2800 10.4100 0.8537
31.3000 10.4167 0.8678
31.3200 10.4234 0.8710
31.3400 10.4301 0.8581
31.3600 10.4368 0.8703
31.3800 10.4435 0.8677
31.4000 10.4502 0.8576
31.4200 10.4568 0.8742
31.4400 10.4633 0.8658
31.4600 10.4700 0.8573
31.4800 10.4767 0.8731
31.5000 10.4834 0.8738
31.5200 10.4901 0.8650
31.5400 10.4968 0.8717
31.5600 10.5035 0.8670
31.5800 10.5101 0.8697
31.6000 10.5167 0.8660
31.6200 10.5233 0.8735
31.6400 10.5300 0.8709
31.6600 10.5367 0.8674
31.6800 10.5434 0.8711
31.7000 10.5501 0.8734
31.7200 10.5567 0.8689
31.7400 10.5634 0.8754
31.7600 10.5701 0.8719
31.7800 10.5767 0.8705
31.8000 10.5833 0.8767
31.8200 10.5900 0.8741
31.8400 10.5967 0.8662
31.8600 10.6035 0.8750
31.8800 10.6101 0.8749
31.9000 10.6168 0.8735
31.9200 10.6235 0.8768
31.9400 10.6302 0.8724
31.9600 10.6368 0.8749
31.9800 10.6434 0.8787
32.0000 10.6500 0.8717
32.0200 10.6567 0.8744
32.0400 10.6634 0.8842
32.0600 10.6701 0.8698
32.0800 10.6768 0.8793
32.1000 10.6835 0.8779
32.1200 10.6901 0.8731
32.1400 10.6967 0.8770
32.1600 10.7033 0.8818
32.1800 10.7100 0.8769
32.2000 10.7167 0.8788
32.2200 10.7234 0.8818
32.2400 10.7301 0.8791
32.2600 10.7368 0.8777
32.2800 10.7435 0.8829
32.3000 10.7501 0.8737
32.3200 10.7567 0.8765
32.3400 10.7634 0.8850
32.3600 10.7700 0.8817
32.3800 10.7767 0.8725
32.4000 10.7834 0.8876
32.4200 10.7901 0.8824
32.4400 10.7967 0.8724
32.4600 10.8034 0.8865
32.4800 10.8101 0.8835
32.5000 10.8167 0.8791
32.5200 10.8233 0.8898
32.5400 10.8300 0.8813
32.5600 10.8367 0.8752
32.5800 10.8435 0.8958
32.6000 10.8501 0.8820
32.6200 10.8568 0.8783
32.6400 10.8635 0.8947
32.6600 10.8701 0.8839
32.6800 10.8768 0.8751
32.7000 10.8834 0.8970
32.7200 10.8900 0.8903
32.7400 10.8967 0.8839
32.7600 10.9035 0.8893
32.7800 10.9101 0.8916
32.8000 10.9168 0.8807
32.8200 10.9235 0.8923
32.8400 10.9301 0.8950
32.8600 10.9367 0.8801
32.8800 10.9433 0.8888
32.9000 10.9500 0.8952
32.9200 10.9567 0.8863
32.9400 10.9634 0.8869
32.9600 10.9701 0.8974
32.9800 10.9768 0.8827
33.0000 10.9834 0.8865
33.0200 10.9901 0.8985
33.0400 10.9967 0.8832
33.0600 11.0033 0.8895
33.0800 11.0100 0.9010
33.1000 11.0167 0.8823
33.1200 11.0234 0.8905
33.1400 11.0301 0.9019
33.1600 11.0368 0.8882
33.1800 11.0435 0.8897
33.2000 11.0501 0.8993
33.2200 11.0568 0.8847
33.2400 11.0634 0.8962
33.2600 11.0700 0.8949
33.2800 11.0767 0.8919
33.3000 11.0834 0.9005
33.3200 11.0901 0.8971
33.3400 11.0968 0.8870
33.3600 11.1035 0.9019
33.3800 11.1102 0.8956
33.4000 11.1168 0.8919
33.4200 11.1234 0.8986
33.4400 11.1300 0.8951
33.4600 11.1367 0.9016
33.4800 11.1434 0.8970
33.5000 11.1501 0.8924
33.5200 11.1568 0.9054
33.5400 11.1635 0.8938
33.5600 11.1702 0.8913
33.5800 11.1768 0.9078
33.6000 11.1834 0.8946
33.6200 11.1900 0.8988
33.6400 11.1967 0.9055
33.6600 11.2034 0.8958
33.6800 11.2101 0.8996
33.7000 11.2168 0.9059
33.7200 11.2235 0.8926
33.7400 11.2301 0.9066
33.7600 11.2367 0.9026
33.7800 11.2433 0.8945
33.8000 11.2500 0.9087
33.8200 11.2567 0.9073
33.8400 11.2634 0.8914
33.8600 11.2701 0.9134
33.8800 11.2767 0.9026
33.9000 11.2834 0.8914
33.9200 11.2901 0.9114
33.9400 11.2967 0.9079
33.9600 11.3033 0.8951
33.9800 11.3100 0.9123
34.0000 11.3167 0.9087
34.0200 11.3234 0.8962
34.0400 11.3301 0.9112
34.0600 11.3368 0.9088
34.0800 11.3435 0.8988
34.1000 11.3502 0.9129
34.1200 11.3568 0.9064
34.1400 11.3634 0.9014
34.1600 11.3700 0.9179
34.1800 11.3767 0.9040
34.2000 11.3834 0.9046
34.2200 11.3902 0.9123
34.2400 11.3968 0.9089
34.2600 11.4035 0.9013
34.2800 11.4102 0.9155
34.3000 11.4168 0.9103
34.3200 11.4234 0.9057
34.3400 11.4300 0.9099
34.3600 11.4367 0.9162
34.3800 11.4434 0.9090
34.4000 11.4501 0.9070
34.4200 11.4568 0.9185
34.4400 11.4634 0.9070
34.4600 11.4701 0.9069
34.4800 11.4767 0.9194
34.5000 11.4833 0.9092
34.5200 11.4900 0.9121
34.5400 11.4966 0.9219
34.5600 11.5034 0.9022
34.5800 11.5100 0.9142
34.6000 11.5167 0.9229
34.6200 11.5234 0.9044
34.6400 11.5301 0.9175
34.6600 11.5367 0.9217
34.6800 11.5433 0.8991
34.7000 11.5500 0.9213
34.7200 11.5567 0.9221
34.7400 11.5634 0.9020
34.7600 11.5701 0.9192
34.7800 11.5768 0.9238
34.8000 11.5835 0.9040
34.8200 11.5902 0.9249
34.8400 11.5968 0.9200
34.8600 11.6034 0.9080
34.8800 11.6101 0.9254
34.9000 11.6167 0.9219
34.9200 11.6234 0.9053
34.9400 11.6301 0.9216
34.9600 11.6368 0.9227
34.9800 11.6435 0.9153
35.0000 11.6502 0.9175
35.0200 11.6568 0.9185
35.0400 11.6634 0.9145
35.0600 11.6700 0.9211
35.0800 11.6767 0.9244
35.1000 11.6834 0.9086
35.1200 11.6901 0.9158
35.1400 11.6968 0.9235
35.1600 11.7034 0.9118
35.1800 11.7101 0.9207
35.2000 11.7167 0.9269
35.2200 11.7233 0.9131
35.2400 11.7300 0.9202
35.2600 11.7367 0.9266
35.2800 11.7434 0.9152
35.3000 11.7501 0.9203
35.3200 11.7567 0.9283
35.3400 11.7634 0.9102
35.3600 11.7701 0.9252
35.3800 11.7768 0.9291
35.4000 11.7834 0.9135
35.4200 11.7900 0.9263
35.4400 11.7967 0.9330
35.4600 11.8034 0.9147
35.4800 11.8101 0.9255
35.5000 11.8168 0.9246
35.5200 11.8235 0.9213
35.5400 11.8302 0.9222
35.5600 11.8368 0.9275
35.5800 11.8434 0.9202
35.6000 11.8500 0.9303
35.6200 11.8567 0.9303
35.6400 11.8634 0.9163
35.6600 11.8701 0.9260
35.6800 11.8768 0.9319
35.7000 11.8835 0.9201
35.7200 11.8901 0.9274
35.7400 11.8968 0.9330
35.7600 11.9034 0.9179
35.7800 11.9100 0.9335
35.8000 11.9167 0.9349
35.8200 11.9234 0.9209
35.8400 11.9301 0.9320
35.8600 11.9368 0.9355
35.8800 11.9434 0.9215
35.9000 11.9501 0.9341
35.9200 11.9568 0.9361
35.9400 11.9634 0.9240
35.9600 11.9700 0.9277
35.9800 11.9766 0.9406
36.0000 11.9833 0.9261
36.0200 11.9901 0.9263
36.0400 11.9967 0.9359
36.0600 12.0034 0.9317
36.0800 12.0101 0.9326
36.1000 12.0168 0.9346
36.1200 12.0234 0.9318
36.1400 12.0300 0.9306
36.1600 12.0367 0.9345
36.1800 12.0434 0.9362
36.2000 12.0501 0.9389
36.2200 12.0568 0.9301
36.2400 12.0635 0.9323
36.2600 12.0702 0.9371
36.2800 12.0768 0.9375
36.3000 12.0834 0.9289
36.3200 12.0900 0.9396
36.3400 12.0967 0.9424
36.3600 12.1034 0.9304
36.3800 12.1101 0.9332
36.4000 12.1168 0.9496
36.4200 12.1235 0.9250
36.4400 12.1301 0.9350
36.4600 12.1368 0.9540
36.4800 12.1434 0.9242
36.5000 12.1500 0.9328
36.5200 12.1567 0.9548
36.5400 12.1634 0.9272
36.5600 12.1701 0.9426
36.5800 12.1767 0.9494
36.6000 12.1834 0.9281
36.6200 12.1901 0.9422
36.6400 12.1968 0.9487
36.6600 12.2034 0.9341
36.6800 12.2100 0.9459
36.7000 12.2167 0.9423
36.7200 12.2234 0.9304
36.7400 12.2301 0.9516
36.7600 12.2368 0.9481
36.7800 12.2434 0.9392
36.8000 12.2501 0.9505
36.8200 12.2568 0.9406
36.8400 12.2634 0.9426
36.8600 12.2700 0.9577
36.8800 12.2767 0.9373
36.9000 12.2834 0.9448
36.9200 12.2901 0.9472
36.9400 12.2968 0.9389
36.9600 12.3035 0.9523
36.9800 12.3101 0.9488
37.0000 12.3168 0.9375
37.0200 12.3234 0.9534
37.0400 12.3301 0.9438
37.0600 12.3367 0.9417
37.0800 12.3434 0.9601
37.1000 12.3501 0.9423
37.1200 12.3568 0.9381
37.1400 12.3635 0.9605
37.1600 12.3702 0.9383
37.1800 12.3768 0.9474
37.2000 12.3834 0.9602
37.2200 12.3900 0.9375
37.2400 12.3967 0.9543
37.2600 12.4034 0.9601
37.2800 12.4101 0.9379
37.3000 12.4167 0.9528
37.3200 12.4234 0.9590
37.3400 12.4301 0.9414
37.3600 12.4368 0.9534
37.3800 12.4434 0.9522
37.4000 12.4500 0.9451
37.4200 12.4567 0.9585
37.4400 12.4634 0.9530
37.4600 12.4701 0.9468
37.4800 12.4767 0.9581
37.5000 12.4834 0.9524
37.5200 12.4901 0.9537
37.5400 12.4968 0.9557
37.5600 12.5034 0.9528
37.5800 12.5100 0.9542
37.6000 12.5167 0.9585
37.6200 12.5234 0.9495
37.6400 12.5301 0.9606
37.6600 12.5368 0.9550
37.6800 12.5435 0.9531
37.7000 12.5502 0.9623
37.7200 12.5568 0.9511
37.7400 12.5634 0.9524
37.7600 12.5700 0.9640
37.7800 12.5767 0.9520
37.8000 12.5834 0.9561
37.8200 12.5901 0.9644
37.8400 12.5968 0.9510
37.8600 12.6035 0.9630
37.8800 12.6101 0.9659
37.9000 12.6168 0.9499
37.9200 12.6234 0.9627
37.9400 12.6300 0.9672
37.9600 12.6367 0.9499
37.9800 12.6434 0.9693
38.0000 12.6501 0.9591
38.0200 12.6568 0.9517
38.0400 12.6634 0.9742
38.0600 12.6701 0.9594
38.0800 12.6768 0.9486
38.1000 12.6834 0.9753
38.1200 12.6900 0.9618
38.1400 12.6966 0.9543
38.1600 12.7033 0.9765
38.1800 12.7100 0.9555
38.2000 12.7167 0.9569
38.2200 12.7234 0.9789
38.2400 12.7301 0.9501
38.2600 12.7367 0.9636
38.2800 12.7434 0.9789
38.3000 12.7500 0.9511
38.3200 12.7567 0.9680
38.3400 12.7634 0.9757
38.3600 12.7701 0.9561
38.3800 12.7768 0.9712
38.4000 12.7835 0.9712
38.4200 12.7902 0.9545
38.4400 12.7968 0.9721
38.4600 12.8035 0.9686
38.4800 12.8101 0.9624
38.5000 12.8167 0.9691
38.5200 12.8234 0.9689
38.5400 12.8301 0.9633
38.5600 12.8368 0.9687
38.5800 12.8435 0.9688
38.6000 12.8502 0.9705
38.6200 12.8568 0.9641
38.6400 12.8634 0.9696
38.6600 12.8700 0.9706
38.6800 12.8766 0.9726
38.7000 12.8833 0.9681
38.7200 12.8900 0.9758
38.7400 12.8967 0.9659
38.7600 12.9034 0.9723
38.7800 12.9101 0.9803
38.8000 12.9168 0.9597
38.8200 12.9234 0.9750
38.8400 12.9300 0.9893
38.8600 12.9367 0.9560
38.8800 12.9434 0.9728
38.9000 12.9501 0.9893
38.9200 12.9568 0.9588
38.9400 12.9634 0.9740
38.9600 12.9701 0.9871
38.9800 12.9768 0.9590
39.0000 12.9834 0.9762
39.0200 12.9901 0.9826
39.0400 12.9967 0.9645
39.0600 13.0034 0.9886
39.0800 13.0101 0.9777
39.1000 13.0168 0.9620
39.1200 13.0235 0.9890
39.1400 13.0301 0.9798
39.1600 13.0368 0.9597
39.1800 13.0434 0.9910
39.2000 13.0500 0.9755
39.2200 13.0567 0.9649
39.2400 13.0634 0.9919
39.2600 13.0701 0.9784
39.2800 13.0768 0.9694
39.3000 13.0835 0.9886
39.3200 13.0901 0.9743
39.3400 13.0968 0.9769
39.3600 13.1034 0.9833
39.3800 13.1100 0.9732
39.4000 13.1166 0.9835
39.4200 13.1233 0.9833
39.4400 13.1301 0.9752
39.4600 13.1368 0.9844
39.4800 13.1434 0.9869
39.5000 13.1501 0.9736
39.5200 13.1568 0.9857
39.5400 13.1634 0.9850
39.5600 13.1700 0.9783
39.5800 13.1767 0.9841
39.6000 13.1833 0.9847
39.6200 13.1900 0.9815
39.6400 13.1967 0.9849
39.6600 13.2034 0.9796
39.6800 13.2101 0.9885
39.7000 13.2168 0.9881
39.7200 13.2234 0.9796
39.7400 13.2300 0.9890
39.7600 13.2367 0.9891
39.7800 13.2433 0.9822
39.8000 13.2501 0.9904
39.8200 13.2568 0.9822
39.8400 13.2635 0.9870
39.8600 13.2702 0.9890
39.8800 13.2768 0.9810
39.9000 13.2834 0.9905
39.9200 13.2901 0.9908
39.9400 13.2967 0.9800
39.9600 13.3034 0.9938
39.9800 13.3101 0.9897
40.0000 13.3168 0.9819
40.0200 13.3235 0.9970
40.0400 13.3301 0.9932
40.0600 13.3368 0.9803
40.0800 13.3435 0.9970
40.1000 13.3501 0.9897
40.1200 13.3567 0.9842
40.1400 13.3633 1.0043
40.1600 13.3700 0.9823
40.1800 13.3767 0.9867
40.2000 13.3834 1.0011
40.2200 13.3901 0.9851
40.2400 13.3968 0.9900
40.2600 13.4034 0.9997
40.2800 13.4100 0.9867
40.3000 13.4166 0.9983
40.3200 13.4233 0.9947
40.3400 13.4300 0.9930
40.3600 13.4367 0.9957
40.3800 13.4434 0.9904
40.4000 13.4501 0.9931
40.4200 13.4567 1.0022
40.4400 13.4634 0.9948
40.4600 13.4700 0.9974
40.4800 13.4767 1.0004
40.5000 13.4834 0.9912
40.5200 13.4901 0.9972
40.5400 13.4968 0.9990
40.5600 13.5035 0.9898
40.5800 13.5102 1.0049
40.6000 13.5169 0.9966
40.6200 13.5235 0.9869
40.6400 13.5301 1.0079
40.6600 13.5367 1.0011
40.6800 13.5434 0.9909
40.7000 13.5501 1.0048
40.7200 13.5568 0.9971
40.7400 13.5635 0.9917
40.7600 13.5702 1.0117
40.7800 13.5768 0.9932
40.8000 13.5835 0.9917
40.8200 13.5900 1.0103
40.8400 13.5966 1.0028
40.8600 13.6033 0.9924
40.8800 13.6100 1.0092
40.9000 13.6168 1.0004
40.9200 13.6234 0.9915
40.9400 13.6301 1.0095
40.9600 13.6368 1.0010
40.9800 13.6434 0.9983
41.0000 13.6500 1.0102
41.0200 13.6567 0.9991
41.0400 13.6633 0.9982
41.0600 13.6700 1.0131
41.0800 13.6768 1.0001
41.1000 13.6834 0.9965
41.1200 13.6901 1.0114
41.1400 13.6968 1.0036
41.1600 13.7035 0.9959
41.1800 13.7101 1.0109
41.2000 13.7167 1.0062
41.2200 13.7234 1.0069
41.2400 13.7301 1.0081
41.2600 13.7368 1.0046
41.2800 13.7435 1.0031
41.3000 13.7502 1.0153
41.3200 13.7568 1.0029
41.3400 13.7635 1.0013
41.3600 13.7701 1.0142
41.3800 13.7767 1.0091
41.4000 13.7834 1.0033
41.4200 13.7901 1.0146
41.4400 13.7968 1.0116
41.4600 13.8035 1.0023
41.4800 13.8102 1.0121
41.5000 13.8168 1.0143
41.5200 13.8235 1.0072
41.5400 13.8301 1.0133
41.5600 13.8367 1.0150
41.5800 13.8434 1.0132
41.6000 13.8501 1.0095
41.6200 13.8568 1.0118
41.6400 13.8634 1.0125
41.6600 13.8701 1.0123
41.6800 13.8768 1.0119
41.7000 13.8834 1.0141
41.7200 13.8901 1.0136
41.7400 13.8967 1.0104
41.7600 13.9033 1.0136
41.7800 13.9100 1.0116
41.8000 13.9167 1.0118
41.8200 13.9234 1.0158
41.8400 13.9301 1.0163
41.8600 13.9368 1.0111
41.8800 13.9434 1.0201
41.9000 13.9501 1.0126
41.9200 13.9567 1.0173
41.9400 13.9634 1.0156
41.9600 13.9701 1.0179
41.9800 13.9768 1.0122
42.0000 13.9835 1.0195
42.0200 13.9902 1.0181
42.0400 13.9968 1.0139
42.0600 14.0035 1.0183
42.0800 14.0101 1.0228
42.1000 14.0167 1.0162
42.1200 14.0233 1.0209
42.1400 14.0301 1.0206
42.1600 14.0368 1.0192
42.1800 14.0435 1.0188
42.2000 14.0501 1.0201
42.2200 14.0568 1.0210
42.2400 14.0635 1.0192
42.2600 14.0701 1.0203
42.2800 14.0767 1.0203
42.3000 14.0833 1.0244
42.3200 14.0900 1.0173
42.3400 14.0967 1.0221
42.3600 14.1034 1.0171
42.3800 14.1101 1.0203
42.4000 14.1168 1.0269
42.4200 14.1235 1.0207
42.4400 14.1301 1.0217
42.4600 14.1366 1.0310
42.4800 14.1433 1.0210
42.5000 14.1500 1.0245
42.5200 14.1567 1.0289
42.5400 14.1634 1.0169
42.5600 14.1701 1.0231
42.5800 14.1767 1.0314
42.6000 14.1834 1.0174
42.6200 14.1901 1.0253
42.6400 14.1967 1.0310
42.6600 14.2033 1.0188
42.6800 14.2100 1.0261
42.7000 14.2168 1.0339
42.7200 14.2234 1.0233
42.7400 14.2301 1.0216
42.7600 14.2368 1.0357
42.7800 14.2435 1.0256
42.8000 14.2501 1.0249
42.8200 14.2567 1.0323
42.8400 14.2634 1.0243
42.8600 14.2701 1.0286
42.8800 14.2768 1.0333
42.9000 14.2835 1.0222
42.9200 14.2902 1.0315
42.9400 14.2968 1.0389
42.9600 14.3035 1.0238
42.9800 14.3101 1.0253
43.0000 14.3167 1.0423
43.0200 14.3233 1.0248
43.0400 14.3300 1.0338
43.0600 14.3367 1.0365
43.0800 14.3434 1.0261
43.1000 14.3501 1.0336
43.1200 14.3567 1.0372
43.1400 14.3634 1.0252
43.1600 14.3700 1.0363
43.1800 14.3766 1.0416
43.2000 14.3833 1.0312
43.2200 14.3900 1.0349
43.2400 14.3967 1.0374
43.2600 14.4034 1.0288
43.2800 14.4101 1.0400
43.3000 14.4168 1.0357
43.3200 14.4235 1.0271
43.3400 14.4301 1.0425
43.3600 14.4367 1.0318
43.3800 14.4434 1.0369
43.4000 14.4500 1.0441
43.4200 14.4568 1.0352
43.4400 14.4635 1.0304
43.4600 14.4701 1.0407
43.4800 14.4768 1.0342
43.5000 14.4835 1.0318
43.5200 14.4901 1.0421
43.5400 14.4967 1.0396
43.5600 14.5033 1.0344
43.5800 14.5100 1.0421
43.6000 14.5168 1.0372
43.6200 14.5235 1.0406
43.6400 14.5301 1.0386
43.6600 14.5368 1.0383
43.6800 14.5435 1.0394
43.7000 14.5501 1.0397
43.7200 14.5567 1.0384
43.7400 14.5633 1.0417
43.7600 14.5700 1.0430
43.7800 14.5767 1.0367
43.8000 14.5834 1.0447
43.8200 14.5901 1.0443
43.8400 14.5968 1.0401
43.8600 14.6035 1.0413
43.8800 14.6101 1.0420
43.9000 14.6167 1.0439
43.9200 14.6233 1.0472
43.9400 14.6300 1.0395
43.9600 14.6367 1.0466
43.9800 14.6434 1.0428
44.0000 14.6501 1.0428
44.0200 14.6568 1.0469
44.0400 14.6634 1.0450
44.0600 14.6701 1.0421
44.0800 14.6767 1.0465
44.1000 14.6834 1.0474
44.1200 14.6900 1.0461
44.1400 14.6967 1.0487
44.1600 14.7034 1.0466
44.1800 14.7101 1.0442
44.2000 14.7168 1.0521
44.2200 14.7235 1.0429
44.2400 14.7301 1.0476
44.2600 14.7368 1.0502
44.2800 14.7434 1.0451
44.3000 14.7500 1.0526
44.3200 14.7567 1.0511
44.3400 14.7634 1.0443
44.3600 14.7701 1.0501
44.3800 14.7768 1.0524
44.4000 14.7835 1.0454
44.4200 14.7901 1.0519
44.4400 14.7967 1.0527
44.4600 14.8033 1.0493
44.4800 14.8100 1.0519
44.5000 14.8167 1.0508
44.5200 14.8234 1.0535
44.5400 14.8301 1.0554
44.5600 14.8368 1.0476
44.5800 14.8435 1.0539
44.6000 14.8501 1.0529
44.6200 14.8567 1.0522
44.6400 14.8633 1.0503
44.6600 14.8700 1.0573
44.6800 14.8767 1.0517
44.7000 14.8834 1.0532
44.7200 14.8901 1.0601
44.7400 14.8967 1.0498
44.7600 14.9034 1.0584
44.7800 14.9101 1.0593
44.8000 14.9167 1.0451
44.8200 14.9234 1.0601
44.8400 14.9300 1.0627
44.8600 14.9367 1.0496
44.8800 14.9434 1.0564
44.9000 14.9501 1.0607
44.9200 14.9568 1.0572
44.9400 14.9635 1.0618
44.9600 14.9701 1.0586
44.9800 14.9767 1.0465
45.0000 14.9833 1.0725
45.0200 14.9900 1.0598
45.0400 14.9968 1.0499
45.0600 15.0035 1.0685
45.0800 15.0101 1.0586
45.1000 15.0168 1.0524
45.1200 15.0235 1.0767
45.1400 15.0301 1.0511
45.1600 15.0367 1.0539
45.1800 15.0434 1.0752
45.2000 15.0500 1.0537
45.2200 15.0567 1.0577
45.2400 15.0634 1.0754
45.2600 15.0701 1.0540
45.2800 15.0768 1.0638
45.3000 15.0834 1.0714
45.3200 15.0901 1.0585
45.3400 15.0967 1.0632
45.3600 15.1033 1.0672
45.3800 15.1100 1.0631
45.4000 15.1167 1.0674
45.4200 15.1234 1.0653
45.4400 15.1301 1.0624
45.4600 15.1368 1.0678
45.4800 15.1435 1.0621
45.5000 15.1501 1.0675
45.5200 15.1567 1.0673
45.5400 15.1633 1.0650
45.5600 15.1700 1.0685
45.5800 15.1767 1.0663
45.6000 15.1834 1.0621
45.6200 15.1901 1.0749
45.6400 15.1968 1.0633
45.6600 15.2035 1.0699
45.6800 15.2102 1.0727
45.7000 15.2168 1.0642
45.7200 15.2234 1.0752
45.7400 15.2300 1.0731
45.7600 15.2367 1.0605
45.7800 15.2434 1.0782
45.8000 15.2501 1.0715
45.8200 15.2568 1.0593
45.8400 15.2635 1.0788
45.8600 15.2702 1.0719
45.8800 15.2768 1.0583
45.9000 15.2834 1.0843
45.9200 15.2900 1.0666
45.9400 15.2967 1.0641
45.9600 15.3034 1.0905
45.9800 15.3101 1.0614
46.0000 15.3168 1.0683
46.0200 15.3235 1.0890
46.0400 15.3301 1.0655
46.0600 15.3367 1.0685
46.0800 15.3433 1.0908
46.1000 15.3500 1.0621
46.1200 15.3567 1.0744
46.1400 15.3634 1.0846
46.1600 15.3701 1.0656
46.1800 15.3767 1.0735
46.2000 15.3834 1.0850
46.2200 15.3901 1.0694
46.2400 15.3967 1.0786
46.2600 15.4033 1.0787
46.2800 15.4100 1.0725
46.3000 15.4167 1.0802
46.3200 15.4234 1.0803
46.3400 15.4301 1.0709
46.3600 15.4368 1.0789
46.3800 15.4435 1.0776
46.4000 15.4502 1.0772
46.4200 15.4568 1.0795
46.4400 15.4634 1.0819
46.4600 15.4700 1.0787
46.4800 15.4767 1.0803
46.5000 15.4834 1.0823
46.5200 15.4901 1.0787
46.5400 15.4968 1.0819
46.5600 15.5035 1.0790
46.5800 15.5101 1.0787
46.6000 15.5167 1.0778
46.6200 15.5233 1.0855
46.6400 15.5300 1.0818
46.6600 15.5367 1.0814
46.6800 15.5434 1.0872
46.7000 15.5501 1.0810
46.7200 15.5568 1.0805
46.7400 15.5634 1.0966
46.7600 15.5701 1.0766
46.7800 15.5768 1.0798
46.8000 15.5834 1.0926
46.8200 15.5900 1.0764
46.8400 15.5967 1.0804
46.8600 15.6034 1.0929
46.8800 15.6101 1.0780
46.9000 15.6167 1.0839
46.9200 15.6234 1.0888
46.9400 15.6301 1.0827
46.9600 15.6367 1.0875
46.9800 15.6433 1.0910
47.0000 15.6500 1.0826
47.0200 15.6567 1.0914
47.0400 15.6634 1.0881
47.0600 15.6701 1.0855
47.0800 15.6768 1.0918
47.1000 15.6835 1.0842
47.1200 15.6901 1.0894
47.1400 15.6967 1.0938
47.1600 15.7034 1.0831
47.1800 15.7100 1.0920
47.2000 15.7167 1.0951
47.2200 15.7235 1.0823
47.2400 15.7301 1.0963
47.2600 15.7368 1.0916
47.2800 15.7435 1.0842
47.3000 15.7501 1.0969
47.3200 15.7568 1.0855
47.3400 15.7634 1.0867
47.3600 15.7700 1.1031
47.3800 15.7767 1.0823
47.4000 15.7834 1.0937
47.4200 15.7901 1.1018
47.4400 15.7967 1.0848
47.4600 15.8034 1.0919
47.4800 15.8101 1.1035
47.5000 15.8167 1.0846
47.5200 15.8233 1.0966
47.5400 15.8300 1.1020
47.5600 15.8367 1.0821
47.5800 15.8434 1.1006
47.6000 15.8501 1.1053
47.6200 15.8568 1.0868
47.6400 15.8634 1.0985
47.6600 15.8701 1.1025
47.6800 15.8768 1.0909
47.7000 15.8834 1.1014
47.7200 15.8900 1.1009
47.7400 15.8967 1.0921
47.7600 15.9034 1.1021
47.7800 15.9101 1.0966
47.8000 15.9168 1.0915
47.8200 15.9235 1.1060
47.8400 15.9301 1.0927
47.8600 15.9368 1.0982
47.8800 15.9434 1.1043
47.9000 15.9500 1.0953
47.9200 15.9567 1.1028
47.9400 15.9634 1.1067
47.9600 15.9701 1.0917
47.9800 15.9768 1.1048
48.0000 15.9835 1.1057
48.0200 15.9902 1.0894
48.0400 15.9968 1.1076
48.0600 16.0034 1.1088
48.0800 16.0100 1.0959
48.1000 16.0167 1.1093
48.1200 16.0234 1.0999
48.1400 16.0301 1.0992
48.1600 16.0368 1.1134
48.1800 16.0435 1.0991
48.2000 16.0501 1.0995
48.2200 16.0568 1.1078
48.2400 16.0634 1.1022
48.2600 16.0700 1.1035
48.2800 16.0767 1.1066
48.3000 16.0834 1.0963
48.3200 16.0901 1.1114
48.3400 16.0967 1.1042
48.3600 16.1034 1.1050
48.3800 16.1101 1.1109
48.4000 16.1167 1.1064
48.4200 16.1234 1.1047
48.4400 16.1300 1.1086
48.4600 16.1367 1.1087
48.4800 16.1434 1.1101
48.5000 16.1501 1.1053
48.5200 16.1568 1.1033
48.5400 16.1635 1.1121
48.5600 16.1702 1.1139
48.5800 16.1768 1.1001
48.6000 16.1834 1.1122
48.6200 16.1900 1.1100
48.6400 16.1967 1.1085
48.6600 16.2034 1.1158
48.6800 16.2101 1.1056
48.7000 16.2168 1.1103
48.7200 16.2235 1.1170
48.7400 16.2301 1.1099
48.7600 16.2368 1.1087
48.7800 16.2434 1.1192
48.8000 16.2500 1.1100
48.8200 16.2567 1.1116
48.8400 16.2634 1.1147
48.8600 16.2701 1.1141
48.8800 16.2768 1.1166
48.9000 16.2834 1.1144
48.9200 16.2901 1.1066
48.9400 16.2968 1.1246
48.9600 16.3033 1.1163
48.9800 16.3099 1.1074
49.0000 16.3166 1.1170
49.0200 16.3234 1.1228
49.0400 16.3301 1.1093
49.0600 16.3367 1.1178
49.0800 16.3434 1.1203
49.1000 16.3501 1.1082
49.1200 16.3567 1.1254
49.1400 16.3633 1.1201
49.1600 16.3700 1.1103
49.1800 16.3767 1.1285
49.2000 16.3834 1.1147
49.2200 16.3901 1.1092
49.2400 16.3968 1.1300
49.2600 16.4035 1.1161
49.2800 16.4101 1.1137
49.3000 16.4168 1.1241
49.3200 16.4234 1.1179
49.3400 16.4300 1.1209
49.3600 16.4367 1.1250
49.3800 16.4434 1.1117
49.4000 16.4501 1.1254
49.4200 16.4568 1.1238
49.4400 16.4635 1.1176
49.4600 16.4702 1.1227
49.4800 16.4768 1.1270
49.5000 16.4834 1.1179
49.5200 16.4900 1.1240
49.5400 16.4967 1.1247
49.5600 16.5034 1.1193
49.5800 16.5101 1.1253
49.6000 16.5168 1.1250
49.6200 16.5234 1.1211
49.6400 16.5301 1.1217
49.6600 16.5368 1.1258
49.6800 16.5434 1.1257
49.7000 16.5500 1.1234
49.7200 16.5566 1.1321
49.7400 16.5634 1.1234
49.7600 16.5701 1.1229
49.7800 16.5767 1.1278
49.8000 16.5834 1.1263
49.8200 16.5901 1.1327
49.8400 16.5968 1.1279
49.8600 16.6034 1.1235
49.8800 16.6100 1.1296
49.9000 16.6167 1.1338
49.9200 16.6234 1.1221
49.9400 16.6301 1.1292
49.9600 16.6368 1.1333
49.9800 16.6435 1.1243
50.0000 16.6502 1.1307
50.0200 16.6568 1.1299
50.0400 16.6634 1.1244
50.0600 16.6700 1.1335
50.0800 16.6767 1.1311
50.1000 16.6834 1.1277
50.1200 16.6901 1.1325
50.1400 16.6968 1.1343
50.1600 16.7035 1.1274
50.1800 16.7101 1.1327
50.2000 16.7168 1.1326
50.2200 16.7234 1.1340
50.2400 16.7300 1.1368
50.2600 16.7367 1.1324
50.2800 16.7434 1.1338
50.3000 16.7501 1.1325
50.3200 16.7568 1.1368
50.3400 16.7634 1.1325
50.3600 16.7701 1.1329
50.3800 16.7768 1.1404
50.4000 16.7834 1.1334
50.4200 16.7900 1.1369
50.4400 16.7966 1.1444
50.4600 16.8033 1.1332
50.4800 16.8101 1.1390
50.5000 16.8167 1.1410
50.5200 16.8234 1.1359
50.5400 16.8301 1.1381
50.5600 16.8368 1.1426
50.5800 16.8434 1.1288
50.6000 16.8500 1.1416
50.6200 16.8567 1.1462
50.6400 16.8634 1.1320
50.6600 16.8701 1.1422
50.6800 16.8768 1.1419
50.7000 16.8835 1.1300
50.7200 16.8902 1.1425
50.7400 16.8968 1.1422
50.7600 16.9034 1.1376
50.7800 16.9100 1.1450
50.8000 16.9167 1.1427
50.8200 16.9234 1.1386
50.8400 16.9301 1.1460
50.8600 16.9368 1.1431
50.8800 16.9434 1.1324
50.9000 16.9501 1.1511
50.9200 16.9568 1.1455
50.9400 16.9634 1.1361
50.9600 16.9700 1.1504
50.9800 16.9767 1.1512
51.0000 16.9833 1.1387
51.0200 16.9901 1.1452
51.0400 16.9967 1.1475
51.0600 17.0034 1.1441
51.0800 17.0101 1.1449
51.1000 17.0168 1.1456
51.1200 17.0234 1.1413
51.1400 17.0300 1.1549
51.1600 17.0366 1.1459
51.1800 17.0433 1.1452
51.2000 17.0501 1.1521
51.2200 17.0568 1.1446
51.2400 17.0634 1.1422
51.2600 17.0701 1.1506
51.2800 17.0768 1.1503
51.3000 17.0834 1.1468
51.3200 17.0900 1.1472
51.3400 17.0967 1.1532
51.3600 17.1034 1.1481
51.3800 17.1101 1.1472
51.4000 17.1168 1.1507
51.4200 17.1235 1.1493
51.4400 17.1302 1.1509
51.4600 17.1368 1.1530
51.4800 17.1435 1.1469
51.5000 17.1501 1.1524
51.5200 17.1567 1.1579
51.5400 17.1634 1.1512
51.5600 17.1701 1.1510
51.5800 17.1768 1.1521
51.6000 17.1835 1.1527
51.6200 17.1902 1.1499
51.6400 17.1968 1.1567
51.6600 17.2034 1.1532
51.6800 17.2100 1.1511
51.7000 17.2166 1.1569
51.7200 17.2233 1.1550
51.7400 17.2301 1.1494
51.7600 17.2367 1.1624
51.7800 17.2434 1.1538
51.8000 17.2501 1.1499
51.8200 17.2568 1.1588
51.8400 17.2634 1.1594
51.8600 17.2700 1.1535
51.8800 17.2767 1.1592
51.9000 17.2834 1.1552
51.9200 17.2901 1.1542
51.9400 17.2967 1.1615
51.9600 17.3034 1.1555
51.9800 17.3101 1.1577
52.0000 17.3168 1.1623
52.0200 17.3234 1.1547
52.0400 17.3301 1.1555
52.0600 17.3367 1.1592
52.0800 17.3434 1.1564
52.1000 17.3501 1.1630
52.1200 17.3568 1.1586
52.1400 17.3635 1.1603
52.1600 17.3702 1.1601
52.1800 17.3768 1.1601
52.2000 17.3834 1.1590
52.2200 17.3900 1.1655
52.2400 17.3967 1.1631
52.2600 17.4034 1.1589
52.2800 17.4101 1.1670
52.3000 17.4168 1.1647
52.3200 17.4235 1.1569
52.3400 17.4301 1.1718
52.3600 17.4368 1.1610
52.3800 17.4434 1.1632
52.4000 17.4500 1.1720
52.4200 17.4567 1.1609
52.4400 17.4634 1.1621
52.4600 17.4701 1.1697
52.4800 17.4768 1.1605
52.5000 17.4834 1.1646
52.5200 17.4901 1.1770
52.5400 17.4968 1.1607
52.5600 17.5034 1.1673
52.5800 17.5100 1.1723
52.6000 17.5166 1.1581
52.6200 17.5233 1.1733
52.6400 17.5300 1.1758
52.6600 17.5367 1.1513
52.6800 17.5434 1.1776
52.7000 17.5501 1.1756
52.7200 17.5568 1.1581
52.7400 17.5634 1.1763
52.7600 17.5700 1.1811
52.7800 17.5766 1.1556
52.8000 17.5833 1.1731
52.8200 17.5901 1.1764
52.8400 17.5968 1.1653
52.8600 17.6035 1.1774
52.8800 17.6102 1.1716
52.9000 17.6168 1.1596
52.9200 17.6235 1.1833
52.9400 17.6301 1.1736
52.9600 17.6367 1.1632
52.9800 17.6434 1.1850
53.0000 17.6501 1.1698
53.0200 17.6568 1.1699
53.0400 17.6635 1.1804
53.0600 17.6702 1.1669
53.0800 17.6768 1.1796
53.1000 17.6835 1.1798
53.1200 17.6900 1.1602
53.1400 17.6966 1.1825
53.1600 17.7033 1.1830
53.1800 17.7100 1.1692
53.2000 17.7167 1.1744
53.2200 17.7234 1.1794
53.2400 17.7301 1.1739
53.2600 17.7368 1.1777
53.2800 17.7434 1.1736
53.3000 17.7500 1.1808
53.3200 17.7566 1.1784
53.3400 17.7633 1.1792
53.3600 17.7701 1.1805
53.3800 17.7768 1.1804
53.4000 17.7834 1.1755
53.4200 17.7901 1.1855
53.4400 17.7968 1.1769
53.4600 17.8034 1.1766
53.4800 17.8101 1.1862
53.5000 17.8167 1.1806
53.5200 17.8234 1.1806
53.5400 17.8301 1.1785
53.5600 17.8368 1.1803
53.5800 17.8434 1.1842
53.6000 17.8501 1.1775
53.6200 17.8568 1.1838
53.6400 17.8635 1.1827
53.6600 17.8701 1.1776
53.6800 17.8767 1.1922
53.7000 17.8833 1.1861
53.7200 17.8901 1.1804
53.7400 17.8968 1.1821
53.7600 17.9035 1.1875
53.7800 17.9101 1.1814
53.8000 17.9168 1.1875
53.8200 17.9234 1.1855
53.8400 17.9300 1.1852
53.8600 17.9367 1.1893
53.8800 17.9433 1.1864
53.9000 17.9501 1.1851
53.9200 17.9568 1.1895
53.9400 17.9634 1.1861
53.9600 17.9701 1.1859
53.9800 17.9768 1.1874
54.0000 17.9834 1.1897
54.0200 17.9900 1.1864
54.0400 17.9967 1.1875
54.0600 18.0033 1.1928
54.0800 18.0100 1.1857
54.1000 18.0167 1.1879
54.1200 18.0234 1.1956
54.1400 18.0301 1.1902
54.1600 18.0368 1.1856
54.1800 18.0435 1.1928
54.2000 18.0501 1.1912
54.2200 18.0567 1.1834
54.2400 18.0634 1.1958
54.2600 18.0701 1.1969
54.2800 18.0768 1.1838
54.3000 18.0835 1.1964
54.3200 18.0902 1.1886
54.3400 18.0968 1.1928
54.3600 18.1035 1.1979
54.3800 18.1101 1.1956
54.4000 18.1167 1.1907
54.4200 18.1233 1.1979
54.4400 18.1301 1.1931
54.4600 18.1368 1.1935
54.4800 18.1435 1.1947
54.5000 18.1501 1.1920
54.5200 18.1568 1.1971
54.5400 18.1635 1.1993
54.5600 18.1701 1.1923
54.5800 18.1767 1.2028
54.6000 18.1833 1.1996
54.6200 18.1900 1.1940
54.6400 18.1968 1.2010
54.6600 18.2034 1.1999
54.6800 18.2101 1.1950
54.7000 18.2168 1.2001
54.7200 18.2234 1.2002
54.7400 18.2300 1.1941
54.7600 18.2366 1.1999
54.7800 18.2433 1.1981
54.8000 18.2500 1.2056
54.8200 18.2568 1.2004
54.8400 18.2634 1.1959
54.8600 18.2701 1.2093
54.8800 18.2768 1.2003
54.9000 18.2834 1.1918
54.9200 18.2901 1.2112
54.9400 18.2967 1.2025
54.9600 18.3034 1.1972
54.9800 18.3101 1.2074
55.0000 18.3168 1.1996
55.0200 18.3235 1.2015
55.0400 18.3301 1.2127
55.0600 18.3369 1.1975
55.0800 18.3435 1.2023
55.1000 18.3501 1.2085
55.1200 18.3567 1.2045
55.1400 18.3634 1.2050
55.1600 18.3700 1.2086
55.1800 18.3768 1.2060
55.2000 18.3835 1.2014
55.2200 18.3901 1.2100
55.2400 18.3968 1.2085
55.2600 18.4034 1.2081
55.2800 18.4100 1.2052
55.3000 18.4167 1.2105
55.3200 18.4233 1.2083
55.3400 18.4300 1.2097
55.3600 18.4368 1.2071
55.3800 18.4434 1.2098
55.4000 18.4501 1.2075
55.4200 18.4568 1.2129
55.4400 18.4634 1.2047
55.4600 18.4701 1.2101
55.4800 18.4767 1.2142
55.5000 18.4833 1.2094
55.5200 18.4900 1.2116
55.5400 18.4967 1.2174
55.5600 18.5034 1.2078
55.5800 18.5101 1.2104
55.6000 18.5168 1.2113
55.6200 18.5234 1.2103
55.6400 18.5301 1.2132
55.6600 18.5367 1.2133
55.6800 18.5433 1.2150
55.7000 18.5500 1.2138
55.7200 18.5568 1.2152
55.7400 18.5635 1.2094
55.7600 18.5701 1.2181
55.7800 18.5768 1.2156
55.8000 18.5835 1.2118
55.8200 18.5901 1.2178
55.8400 18.5967 1.2177
55.8600 18.6033 1.2117
55.8800 18.6101 1.2167
55.9000 18.6168 1.2191
55.9200 18.6235 1.2161
55.9400 18.6301 1.2111
55.9600 18.6368 1.2230
55.9800 18.6435 1.2163
56.0000 18.6501 1.2158
56.0200 18.6567 1.2223
56.0400 18.6633 1.2194
56.0600 18.6700 1.2180
56.0800 18.6767 1.2186
56.1000 18.6834 1.2191
56.1200 18.6901 1.2223
56.1400 18.6968 1.2195
56.1600 18.7034 1.2183
56.1800 18.7101 1.2209
56.2000 18.7167 1.2259
56.2200 18.7233 1.2271
56.2400 18.7300 1.2198
56.2600 18.7367 1.2210
56.2800 18.7434 1.2266
56.3000 18.7501 1.2227
56.3200 18.7568 1.2235
56.3400 18.7634 1.2280
56.3600 18.7701 1.2244
56.3800 18.7767 1.2250
56.4000 18.7834 1.2271
56.4200 18.7901 1.2240
56.4400 18.7968 1.2260
56.4600 18.8035 1.2249
56.4800 18.8102 1.2215
56.5000 18.8168 1.2298
56.5200 18.8235 1.2277
56.5400 18.8301 1.2222
56.5600 18.8367 1.2261
56.5800 18.8433 1.2298
56.6000 18.8500 1.2283
56.6200 18.8568 1.2280
56.6400 18.8635 1.2217
56.6600 18.8701 1.2336
56.6800 18.8768 1.2281
56.7000 18.8835 1.2202
56.7200 18.8901 1.2330
56.7400 18.8967 1.2321
56.7600 18.9033 1.2261
56.7800 18.9100 1.2307
56.8000 18.9167 1.2302
56.8200 18.9234 1.2293
56.8400 18.9301 1.2367
56.8600 18.9368 1.2281
56.8800 18.9435 1.2294
56.9000 18.9501 1.2381
56.9200 18.9567 1.2301
56.9400 18.9633 1.2276
56.9600 18.9700 1.2425
56.9800 18.9767 1.2265
57.0000 18.9834 1.2331
57.0200 18.9901 1.2368
57.0400 18.9968 1.2334
57.0600 19.0034 1.2338
57.0800 19.0101 1.2393
57.1000 19.0167 1.2307
57.1200 19.0234 1.2349
57.1400 19.0300 1.2462
57.1600 19.0368 1.2362
57.1800 19.0435 1.2296
57.2000 19.0502 1.2416
57.2200 19.0568 1.2376
57.2400 19.0635 1.2354
57.2600 19.0701 1.2370
57.2800 19.0767 1.2439
57.3000 19.0833 1.2361
57.3200 19.0900 1.2348
57.3400 19.0968 1.2458
57.3600 19.1035 1.2336
57.3800 19.1102 1.2391
57.4000 19.1168 1.2457
57.4200 19.1235 1.2330
57.4400 19.1301 1.2359
57.4600 19.1367 1.2503
57.4800 19.1433 1.2353
57.5000 19.1500 1.2420
57.5200 19.1567 1.2473
57.5400 19.1634 1.2353
57.5600 19.1701 1.2427
57.5800 19.1767 1.2494
57.6000 19.1834 1.2360
57.6200 19.1901 1.2466
57.6400 19.1967 1.2500
57.6600 19.2033 1.2383
57.6800 19.2100 1.2431
57.7000 19.2167 1.2511
57.7200 19.2234 1.2362
57.7400 19.2301 1.2485
57.7600 19.2368 1.2482
57.7800 19.2435 1.2373
57.8000 19.2501 1.2503
57.8200 19.2567 1.2525
57.8400 19.2634 1.2416
57.8600 19.2700 1.2480
57.8800 19.2767 1.2501
57.9000 19.2834 1.2461
57.9200 19.2901 1.2471
57.9400 19.2968 1.2482
57.9600 19.3035 1.2471
57.9800 19.3101 1.2500
58.0000 19.3167 1.2481
58.0200 19.3233 1.2426
58.0400 19.3300 1.2586
58.0600 19.3368 1.2494
58.0800 19.3435 1.2455
58.1000 19.3501 1.2556
58.1200 19.3568 1.2567
58.1400 19.3635 1.2424
58.1600 19.3701 1.2549
58.1800 19.3768 1.2572
58.2000 19.3834 1.2476
58.2200 19.3900 1.2537
58.2400 19.3967 1.2566
58.2600 19.4034 1.2503
58.2800 19.4101 1.2516
58.3000 19.4168 1.2547
58.3200 19.4235 1.2473
58.3400 19.4301 1.2570
58.3600 19.4367 1.2584
58.3800 19.4433 1.2505
58.4000 19.4500 1.2576
58.4200 19.4567 1.2588
58.4400 19.4634 1.2486
58.4600 19.4701 1.2571
58.4800 19.4768 1.2614
58.5000 19.4834 1.2526
58.5200 19.4901 1.2572
58.5400 19.4967 1.2569
58.5600 19.5033 1.2565
58.5800 19.5100 1.2680
58.6000 19.5167 1.2494
58.6200 19.5234 1.2515
58.6400 19.5301 1.2744
58.6600 19.5368 1.2571
58.6800 19.5435 1.2452
58.7000 19.5501 1.2752
58.7200 19.5568 1.2560
58.7400 19.5634 1.2529
58.7600 19.5700 1.2729
58.7800 19.5767 1.2584
58.8000 19.5834 1.2518
58.8200 19.5901 1.2708
58.8400 19.5968 1.2623
58.8600 19.6035 1.2582
58.8800 19.6101 1.2635
58.9000 19.6167 1.2592
58.9200 19.6233 1.2703
58.9400 19.6300 1.2655
58.9600 19.6367 1.2509
58.9800 19.6435 1.2701
59.0000 19.6501 1.2687
59.0200 19.6568 1.2563
59.0400 19.6634 1.2682
59.0600 19.6701 1.2709
59.0800 19.6767 1.2560
59.1000 19.6833 1.2695
59.1200 19.6900 1.2763
59.1400 19.6967 1.2625
59.1600 19.7034 1.2639
59.1800 19.7101 1.2669
59.2000 19.7167 1.2746
59.2200 19.7234 1.2636
59.2400 19.7301 1.2638
59.2600 19.7367 1.2740
59.2800 19.7433 1.2661
59.3000 19.7500 1.2718
59.3200 19.7567 1.2777
59.3400 19.7634 1.2641
59.3600 19.7701 1.2711
59.3800 19.7768 1.2760
59.4000 19.7835 1.2688
59.4200 19.7901 1.2710
59.4400 19.7967 1.2733
59.4600 19.8034 1.2682
59.4800 19.8100 1.2726
59.5000 19.8168 1.2765
59.5200 19.8235 1.2683
59.5400 19.8301 1.2767
59.5600 19.8368 1.2699
59.5800 19.8435 1.2701
59.6000 19.8501 1.2838
59.6200 19.8567 1.2725
59.6400 19.8634 1.2683
59.6600 19.8700 1.2837
59.6800 19.8767 1.2775
59.7000 19.8834 1.2673
59.7200 19.8901 1.2786
59.7400 19.8968 1.2819
59.7600 19.9035 1.2675
59.7800 19.9101 1.2796
59.8000 19.9167 1.2807
59.8200 19.9233 1.2718
59.8400 19.9300 1.2767
59.8600 19.9367 1.2840
59.8800 19.9434 1.2732
59.9000 19.9501 1.2774
59.9200 19.9568 1.2859
59.9400 19.9635 1.2737
59.9600 19.9701 1.2793
59.9800 19.9767 1.2872
60.0000 19.9834 1.2728
60.0200 19.9900 1.2834
60.0400 19.9967 1.2887
60.0600 20.0034 1.2737
60.0800 20.0101 1.2849
60.1000 20.0168 1.2884
60.1200 20.0235 1.2744
60.1400 20.0301 1.2848
60.1600 20.0368 1.2906
60.1800 20.0434 1.2724
60.2000 20.0500 1.2916
60.2200 20.0567 1.2866
60.2400 20.0634 1.2803
60.2600 20.0701 1.2890
60.2800 20.0768 1.2840
60.3000 20.0835 1.2789
60.3200 20.0902 1.2922
60.3400 20.0968 1.2847
60.3600 20.1034 1.2809
60.3800 20.1100 1.2935
60.4000 20.1167 1.2852
60.4200 20.1234 1.2845
60.4400 20.1301 1.2943
60.4600 20.1368 1.2806
60.4800 20.1435 1.2893
60.5000 20.1501 1.2887
60.5200 20.1567 1.2832
60.5400 20.1633 1.2977
60.5600 20.1699 1.2914
60.5800 20.1766 1.2833
60.6000 20.1834 1.2930
60.6200 20.1900 1.2913
60.6400 20.1967 1.2870
60.6600 20.2034 1.2940
60.6800 20.2101 1.2878
60.7000 20.2167 1.2874
60.7200 20.2234 1.2968
60.7400 20.2300 1.2933
60.7600 20.2367 1.2862
60.7800 20.2434 1.2997
60.8000 20.2501 1.2916
60.8200 20.2568 1.2884
60.8400 20.2635 1.3002
60.8600 20.2702 1.2933
60.8800 20.2768 1.2909
60.9000 20.2834 1.3012
60.9200 20.2900 1.2934
60.9400 20.2967 1.2948
60.9600 20.3034 1.2984
60.9800 20.3101 1.2927
61.0000 20.3168 1.3014
61.0200 20.3235 1.3031
61.0400 20.3302 1.2891
61.0600 20.3367 1.2961
61.0800 20.3433 1.3049
61.1000 20.3500 1.2958
61.1200 20.3567 1.2968
61.1400 20.3634 1.3046
61.1600 20.3701 1.2937
61.1800 20.3768 1.2979
61.2000 20.3834 1.3043
61.2200 20.3901 1.2910
61.2400 20.3968 1.3049
61.2600 20.4034 1.3056
61.2800 20.4100 1.2947
61.3000 20.4167 1.2987
61.3200 20.4234 1.3067
61.3400 20.4301 1.3005
61.3600 20.4367 1.2989
61.3800 20.4434 1.3081
61.4000 20.4501 1.3016
61.4200 20.4567 1.2993
61.4400 20.4633 1.3086
61.4600 20.4700 1.3068
61.4800 20.4767 1.3042
61.5000 20.4834 1.3128
61.5200 20.4901 1.3005
61.5400 20.4968 1.2919
61.5600 20.5035 1.3212
61.5800 20.5101 1.3014
61.6000 20.5168 1.2942
61.6200 20.5234 1.3231
61.6400 20.5300 1.3013
61.6600 20.5367 1.2977
61.6800 20.5435 1.3218
61.7000 20.5502 1.3028
61.7200 20.5568 1.3019
61.7400 20.5635 1.3267
61.7600 20.5701 1.2992
61.7800 20.5767 1.3040
61.8000 20.5834 1.3248
61.8200 20.5900 1.3055
61.8400 20.5967 1.2998
61.8600 20.6034 1.3209
61.8800 20.6101 1.3094
61.9000 20.6168 1.3104
61.9200 20.6234 1.3134
61.9400 20.6301 1.3099
61.9600 20.6368 1.3089
61.9800 20.6433 1.3177
62.0000 20.6500 1.3110
62.0200 20.6566 1.3128
62.0400 20.6634 1.3200
62.0600 20.6701 1.3136
62.0800 20.6768 1.3058
62.1000 20.6834 1.3229
62.1200 20.6901 1.3162
62.1400 20.6968 1.3046
62.1600 20.7034 1.3193
62.1800 20.7100 1.3193
62.2000 20.7167 1.3126
62.2200 20.7234 1.3202
62.2400 20.7301 1.3120
62.2600 20.7368 1.3108
62.2800 20.7434 1.3251
62.3000 20.7501 1.3172
62.3200 20.7568 1.3109
62.3400 20.7634 1.3246
62.3600 20.7700 1.3235
62.3800 20.7767 1.3081
62.4000 20.7834 1.3275
62.4200 20.7901 1.3210
62.4400 20.7968 1.3123
62.4600 20.8035 1.3284
62.4800 20.8102 1.3211
62.5000 20.8168 1.3090
62.5200 20.8234 1.3361
62.5400 20.8300 1.3187
62.5600 20.8367 1.3119
62.5800 20.8434 1.3391
62.6000 20.8501 1.3205
62.6200 20.8568 1.3074
62.6400 20.8635 1.3415
62.6600 20.8701 1.3213
62.6800 20.8768 1.3107
62.7000 20.8834 1.3408
62.7200 20.8900 1.3218
62.7400 20.8967 1.3162
62.7600 20.9034 1.3376
62.7800 20.9101 1.3168
62.8000 20.9167 1.3199
62.8200 20.9234 1.3419
62.8400 20.9301 1.3208
62.8600 20.9368 1.3212
62.8800 20.9434 1.3353
62.9000 20.9500 1.3235
62.9200 20.9567 1.3307
62.9400 20.9634 1.3386
62.9600 20.9701 1.3191
62.9800 20.9768 1.3306
63.0000 20.9835 1.3367
63.0200 20.9902 1.3234
63.0400 20.9968 1.3310
63.0600 21.0034 1.3413
63.0800 21.0100 1.3229
63.1000 21.0167 1.3295
63.1200 21.0234 1.3401
63.1400 21.0301 1.3318
63.1600 21.0368 1.3310
63.1800 21.0435 1.3373
63.2000 21.0502 1.3329
63.2200 21.0568 1.3322
63.2400 21.0634 1.3321
63.2600 21.0700 1.3363
63.2800 21.0767 1.3303
63.3000 21.0834 1.3333
63.3200 21.0901 1.3354
63.3400 21.0967 1.3339
63.3600 21.1034 1.3392
63.3800 21.1101 1.3342
63.4000 21.1168 1.3320
63.4200 21.1234 1.3360
63.4400 21.1300 1.3420
63.4600 21.1366 1.3357
63.4800 21.1433 1.3372
63.5000 21.1500 1.3381
63.5200 21.1567 1.3391
63.5400 21.1634 1.3375
63.5600 21.1701 1.3352
63.5800 21.1768 1.3371
63.6000 21.1834 1.3433
63.6200 21.1900 1.3390
63.6400 21.1966 1.3434
63.6600 21.2034 1.3385
63.6800 21.2101 1.3438
63.7000 21.2168 1.3399
63.7200 21.2235 1.3384
63.7400 21.2302 1.3462
63.7600 21.2368 1.3372
63.7800 21.2434 1.3414
63.8000 21.2501 1.3515
63.8200 21.2567 1.3377
63.8400 21.2634 1.3431
63.8600 21.2701 1.3501
63.8800 21.2768 1.3410
63.9000 21.2835 1.3463
63.9200 21.2901 1.3490
63.9400 21.2968 1.3400
63.9600 21.3034 1.3436
63.9800 21.3100 1.3519
64.0000 21.3166 1.3388
64.0200 21.3234 1.3530
64.0400 21.3301 1.3474
64.0600 21.3368 1.3395
64.0800 21.3435 1.3502
64.1000 21.3501 1.3546
64.1200 21.3568 1.3413
64.1400 21.3634 1.3519
64.1600 21.3700 1.3512
64.1800 21.3766 1.3477
64.2000 21.3833 1.3479
64.2200 21.3901 1.3526
64.2400 21.3967 1.3488
64.2600 21.4034 1.3527
64.2800 21.4101 1.3521
64.3000 21.4168 1.3490
64.3200 21.4234 1.3488
64.3400 21.4300 1.3557
64.3600 21.4367 1.3492
64.3800 21.4434 1.3507
64.4000 21.4501 1.3541
64.4200 21.4568 1.3536
64.4400 21.4635 1.3557
64.4600 21.4702 1.3551
64.4800 21.4768 1.3510
64.5000 21.4834 1.3562
64.5200 21.4900 1.3564
64.5400 21.4967 1.3521
64.5600 21.5034 1.3620
64.5800 21.5101 1.3553
64.6000 21.5168 1.3541
64.6200 21.5235 1.3584
64.6400 21.5302 1.3563
64.6600 21.5368 1.3589
64.6800 21.5434 1.3581
64.7000 21.5500 1.3552
64.7200 21.5567 1.3643
64.7400 21.5634 1.3629
64.7600 21.5701 1.3581
64.7800 21.5768 1.3612
64.8000 21.5834 1.3620
64.8200 21.5901 1.3585
64.8400 21.5968 1.3643
64.8600 21.6034 1.3526
64.8800 21.6100 1.3641
64.9000 21.6166 1.3682
64.9200 21.6233 1.3521
64.9400 21.6300 1.3652
64.9600 21.6367 1.3737
64.9800 21.6434 1.3509
65.0000 21.6501 1.3665
65.0200 21.6568 1.3696
65.0400 21.6634 1.3510
65.0600 21.6700 1.3733
65.0800 21.6767 1.3698
65.1000 21.6834 1.3502
65.1200 21.6901 1.3787
65.1400 21.6968 1.3683
65.1600 21.7035 1.3506
65.1800 21.7102 1.3798
65.2000 21.7168 1.3669
65.2200 21.7234 1.3580
65.2400 21.7300 1.3738
65.2600 21.7367 1.3654
65.2800 21.7434 1.3590
65.3000 21.7501 1.3788
65.3200 21.7568 1.3658
65.3400 21.7635 1.3622
65.3600 21.7701 1.3770
65.3800 21.7768 1.3645
65.4000 21.7834 1.3603
65.4200 21.7900 1.3814
65.4400 21.7967 1.3704
65.4600 21.8033 1.3659
65.4800 21.8101 1.3803
65.5000 21.8168 1.3704
65.5200 21.8234 1.3699
65.5400 21.8301 1.3771
65.5600 21.8368 1.3712
65.5800 21.8434 1.3672
65.6000 21.8500 1.3780
65.6200 21.8566 1.3790
65.6400 21.8633 1.3698
65.6600 21.8701 1.3724
65.6800 21.8768 1.3795
65.7000 21.8835 1.3694
65.7200 21.8901 1.3774
65.7400 21.8967 1.3802
65.7600 21.9034 1.3739
65.7800 21.9100 1.3758
65.8000 21.9167 1.3855
65.8200 21.9234 1.3660
65.8400 21.9301 1.3809
65.8600 21.9368 1.3813
65.8800 21.9435 1.3656
65.9000 21.9501 1.3839
65.9200 21.9568 1.3804
65.9400 21.9634 1.3699
65.9600 21.9700 1.3871
65.9800 21.9767 1.3819
66.0000 21.9834 1.3719
66.0200 21.9901 1.3855
66.0400 21.9968 1.3839
66.0600 22.0035 1.3756
66.0800 22.0102 1.3857
66.1000 22.0168 1.3790
66.1200 22.0234 1.3808
66.1400 22.0300 1.3900
66.1600 22.0367 1.3798
66.1800 22.0433 1.3846
66.2000 22.0501 1.3836
66.2200 22.0567 1.3832
66.2400 22.0634 1.3861
66.2600 22.0701 1.3854
66.2800 22.0768 1.3881
66.3000 22.0834 1.3849
66.3200 22.0900 1.3863
66.3400 22.0967 1.3890
66.3600 22.1033 1.3800
66.3800 22.1101 1.3867
66.4000 22.1167 1.3910
66.4200 22.1234 1.3846
66.4400 22.1301 1.3883
66.4600 22.1368 1.3953
66.4800 22.1434 1.3811
66.5000 22.1501 1.3926
66.5200 22.1567 1.3979
66.5400 22.1634 1.3806
66.5600 22.1701 1.3898
66.5800 22.1768 1.3956
66.6000 22.1835 1.3862
66.6200 22.1902 1.3970
66.6400 22.1969 1.3874
66.6600 22.2035 1.3846
66.6800 22.2100 1.4016
66.7000 22.2167 1.3917
66.7200 22.2234 1.3891
66.7400 22.2301 1.3974
66.7600 22.2368 1.3914
66.7800 22.2435 1.3913
66.8000 22.2501 1.4006
66.8200 22.2568 1.3885
66.8400 22.2634 1.3965
66.8600 22.2700 1.3994
66.8800 22.2767 1.3924
66.9000 22.2834 1.3928
66.9200 22.2901 1.3998
66.9400 22.2967 1.3916
66.9600 22.3034 1.3933
66.9800 22.3101 1.4039
67.0000 22.3168 1.3983
67.0200 22.3234 1.3943
67.0400 22.3300 1.3975
67.0600 22.3366 1.4026
67.0800 22.3433 1.4014
67.1000 22.3500 1.3967
67.1200 22.3567 1.4043
67.1400 22.3634 1.3960
67.1600 22.3701 1.3971
67.1800 22.3768 1.4096
67.2000 22.3834 1.3979
67.2200 22.3900 1.3934
67.2400 22.3967 1.4121
67.2600 22.4033 1.4058
67.2800 22.4101 1.3910
67.3000 22.4168 1.4115
67.3200 22.4235 1.4050
67.3400 22.4302 1.3967
67.3600 22.4368 1.4096
67.3800 22.4435 1.4033
67.4000 22.4501 1.3988
67.4200 22.4567 1.4154
67.4400 22.4634 1.4050
67.4600 22.4701 1.4022
67.4800 22.4768 1.4120
67.5000 22.4835 1.4084
67.5200 22.4902 1.4031
67.5400 22.4968 1.4122
67.5600 22.5035 1.4040
67.5800 22.5101 1.4090
67.6000 22.5167 1.4102
67.6200 22.5233 1.4051
67.6400 22.5300 1.4111
67.6600 22.5367 1.4122
67.6800 22.5434 1.4114
67.7000 22.5501 1.4075
67.7200 22.5568 1.4097
67.7400 22.5634 1.4158
67.7600 22.5700 1.4071
67.7800 22.5766 1.4101
67.8000 22.5833 1.4198
67.8200 22.5901 1.4092
67.8400 22.5968 1.4100
67.8600 22.6034 1.4207
67.8800 22.6101 1.4108
67.9000 22.6168 1.4120
67.9200 22.6234 1.4270
67.9400 22.6301 1.4033
67.9600 22.6367 1.4173
67.9800 22.6434 1.4243
68.0000 22.6501 1.4022
68.0200 22.6568 1.4170
68.0400 22.6635 1.4260
68.0600 22.6702 1.4068
68.0800 22.6768 1.4183
68.1000 22.6835 1.4203
68.1200 22.6901 1.4082
68.1400 22.6967 1.4247
68.1600 22.7033 1.4274
68.1800 22.7101 1.4046
68.2000 22.7168 1.4265
68.2200 22.7235 1.4242
68.2400 22.7301 1.4084
68.2600 22.7368 1.4263
68.2800 22.7434 1.4208
68.3000 22.7500 1.4139
68.3200 22.7566 1.4224
68.3400 22.7633 1.4283
68.3600 22.7700 1.4164
68.3800 22.7768 1.4236
68.4000 22.7834 1.4261
68.4200 22.7901 1.4189
68.4400 22.7968 1.4236
68.4600 22.8034 1.4307
68.4800 22.8100 1.4187
68.5000 22.8167 1.4271
68.5200 22.8233 1.4295
68.5400 22.8300 1.4195
68.5600 22.8367 1.4258
68.5800 22.8434 1.4322
68.6000 22.8501 1.4209
68.6200 22.8568 1.4278
68.6400 22.8635 1.4348
68.6600 22.8701 1.4195
68.6800 22.8767 1.4265
68.7000 22.8833 1.4390
68.7200 22.8901 1.4191
68.7400 22.8968 1.4268
68.7600 22.9035 1.4388
68.7800 22.9101 1.4174
68.8000 22.9168 1.4299
68.8200 22.9235 1.4408
68.8400 22.9301 1.4197
68.8600 22.9367 1.4310
68.8800 22.9434 1.4459
68.9000 22.9501 1.4178
68.9200 22.9568 1.4353
68.9400 22.9635 1.4406
68.9600 22.9701 1.4225
68.9800 22.9768 1.4378
69.0000 22.9835 1.4391
69.0200 22.9901 1.4220
69.0400 22.9967 1.4389
69.0600 23.0033 1.4397
69.0800 23.0100 1.4283
69.1000 23.0167 1.4334
69.1200 23.0234 1.4445
69.1400 23.0301 1.4308
69.1600 23.0368 1.4352
69.1800 23.0435 1.4388
69.2000 23.0500 1.4384
69.2200 23.0566 1.4345
69.2400 23.0633 1.4428
69.2600 23.0700 1.4370
69.2800 23.0767 1.4322
69.3000 23.0834 1.4456
69.3200 23.0901 1.4386
69.3400 23.0968 1.4322
69.3600 23.1034 1.4457
69.3800 23.1101 1.4397
69.4000 23.1167 1.4360
69.4200 23.1233 1.4466
69.4400 23.1301 1.4386
69.4600 23.1368 1.4361
69.4800 23.1434 1.4515
69.5000 23.1501 1.4400
69.5200 23.1568 1.4335
69.5400 23.1635 1.4545
69.5600 23.1701 1.4412
69.5800 23.1767 1.4388
69.6000 23.1834 1.4549
69.6200 23.1901 1.4390
69.6400 23.1968 1.4395
69.6600 23.2035 1.4606
69.6800 23.2102 1.4367
69.7000 23.2168 1.4423
69.7200 23.2235 1.4607
69.7400 23.2301 1.4363
69.7600 23.2367 1.4451
69.7800 23.2433 1.4627
69.8000 23.2500 1.4371
69.8200 23.2568 1.4444
69.8400 23.2634 1.4619
69.8600 23.2701 1.4405
69.8800 23.2768 1.4506
69.9000 23.2835 1.4558
69.9200 23.2901 1.4383
69.9400 23.2967 1.4545
69.9600 23.3033 1.4589
69.9800 23.3100 1.4425
70.0000 23.3167 1.4545
70.0200 23.3234 1.4551
70.0400 23.3301 1.4477
70.0600 23.3368 1.4535
70.0800 23.3434 1.4519
70.1000 23.3501 1.4497
70.1200 23.3567 1.4598
70.1400 23.3633 1.4516
70.1600 23.3700 1.4550
70.1800 23.3767 1.4572
70.2000 23.3835 1.4520
70.2200 23.3902 1.4595
70.2400 23.3968 1.4547
70.2600 23.4035 1.4503
70.2800 23.4101 1.4615
70.3000 23.4167 1.4509
70.3200 23.4233 1.4568
70.3400 23.4300 1.4621
70.3600 23.4368 1.4516
70.3800 23.4435 1.4595
70.4000 23.4501 1.4660
70.4200 23.4568 1.4564
70.4400 23.4635 1.4589
70.4600 23.4701 1.4622
70.4800 23.4767 1.4532
70.5000 23.4833 1.4674
70.5200 23.4900 1.4620
70.5400 23.4967 1.4536
70.5600 23.5034 1.4681
70.5800 23.5101 1.4627
70.6000 23.5168 1.4562
70.6200 23.5235 1.4695
70.6400 23.5301 1.4603
70.6600 23.5367 1.4595
70.6800 23.5433 1.4688
70.7000 23.5500 1.4672
70.7200 23.5567 1.4554
70.7400 23.5634 1.4702
70.7600 23.5701 1.4629
70.7800 23.5768 1.4626
70.8000 23.5835 1.4689
70.8200 23.5901 1.4650
70.8400 23.5967 1.4640
70.8600 23.6034 1.4742
70.8800 23.6101 1.4659
70.9000 23.6168 1.4639
70.9200 23.6235 1.4705
70.9400 23.6302 1.4675
70.9600 23.6368 1.4649
70.9800 23.6435 1.4703
71.0000 23.6501 1.4702
71.0200 23.6567 1.4688
71.0400 23.6633 1.4737
71.0600 23.6700 1.4740
71.0800 23.6767 1.4710
71.1000 23.6834 1.4720
71.1200 23.6901 1.4732
71.1400 23.6968 1.4668
71.1600 23.7035 1.4787
71.1800 23.7101 1.4726
71.2000 23.7167 1.4685
71.2200 23.7233 1.4732
71.2400 23.7300 1.4859
71.2600 23.7367 1.4708
71.2800 23.7434 1.4704
71.3000 23.7501 1.4789
71.3200 23.7568 1.4780
71.3400 23.7635 1.4795
71.3600 23.7701 1.4720
71.3800 23.7767 1.4754
71.4000 23.7833 1.4901
71.4200 23.7900 1.4751
71.4400 23.7967 1.4673
71.4600 23.8034 1.4847
71.4800 23.8101 1.4834
71.5000 23.8167 1.4709
71.5200 23.8234 1.4769
71.5400 23.8301 1.4833
71.5600 23.8367 1.4857
71.5800 23.8434 1.4753
71.6000 23.8500 1.4779
71.6200 23.8568 1.4930
71.6400 23.8634 1.4845
71.6600 23.8701 1.4703
71.6800 23.8768 1.4878
71.7000 23.8835 1.4883
71.7200 23.8901 1.4685
71.7400 23.8967 1.4911
71.7600 23.9033 1.4806
71.7800 23.9100 1.4901
71.8000 23.9167 1.4935
71.8200 23.9235 1.4695
71.8400 23.9302 1.4936
71.8600 23.9368 1.4987
71.8800 23.9435 1.4623
71.9000 23.9501 1.4945
71.9200 23.9567 1.4994
71.9400 23.9633 1.4705
71.9600 23.9700 1.4968
71.9800 23.9767 1.4898
72.0000 23.9834 1.4766
72.0200 23.9900 1.5082
72.0400 23.9967 1.4879
72.0600 24.0034 1.4670
72.0800 24.0101 1.5118
72.1000 24.0167 1.4961
72.1200 24.0233 1.4729
72.1400 24.0300 1.5057
72.1600 24.0367 1.4888
72.1800 24.0434 1.4784
72.2000 24.0501 1.5109
72.2200 24.0568 1.4841
72.2400 24.0635 1.4907
72.2600 24.0701 1.5049
72.2800 24.0767 1.4813
72.3000 24.0833 1.4965
72.3200 24.0900 1.5136
72.3400 24.0968 1.4746
72.3600 24.1035 1.4954
72.3800 24.1101 1.5090
72.4000 24.1168 1.4843
72.4200 24.1235 1.4994
72.4400 24.1301 1.5052
72.4600 24.1367 1.4872
72.4800 24.1434 1.5039
72.5000 24.1500 1.5006
72.5200 24.1567 1.4993
72.5400 24.1635 1.5081
72.5600 24.1701 1.4900
72.5800 24.1768 1.4977
72.6000 24.1835 1.5121
72.6200 24.1901 1.4925
72.6400 24.1968 1.4997
72.6600 24.2034 1.5107
72.6800 24.2100 1.4948
72.7000 24.2167 1.4990
72.7200 24.2234 1.5080
72.7400 24.2301 1.5025
72.7600 24.2368 1.5007
72.7800 24.2435 1.5053
72.8000 24.2501 1.5003
72.8200 24.2567 1.5102
72.8400 24.2633 1.5028
72.8600 24.2700 1.5019
72.8800 24.2767 1.5207
72.9000 24.2834 1.5003
72.9200 24.2901 1.4973
72.9400 24.2968 1.5217
72.9600 24.3034 1.4966
72.9800 24.3101 1.5044
73.0000 24.3167 1.5200
73.0200 24.3233 1.5003
73.0400 24.3300 1.5063
73.0600 24.3367 1.5225
73.0800 24.3434 1.4970
73.1000 24.3501 1.5132
73.1200 24.3568 1.5219
73.1400 24.3635 1.4957
73.1600 24.3701 1.5131
73.1800 24.3768 1.5276
73.2000 24.3834 1.5007
73.2200 24.3900 1.5132
73.2400 24.3967 1.5251
73.2600 24.4034 1.4984
73.2800 24.4101 1.5162
73.3000 24.4168 1.5212
73.3200 24.4235 1.5052
73.3400 24.4302 1.5122
73.3600 24.4368 1.5287
73.3800 24.4433 1.5050
73.4000 24.4500 1.5141
73.4200 24.4567 1.5306
73.4400 24.4635 1.5084
73.4600 24.4701 1.5127
73.4800 24.4768 1.5276
73.5000 24.4834 1.5124
73.5200 24.4901 1.5164
73.5400 24.4967 1.5253
73.5600 24.5034 1.5169
73.5800 24.5100 1.5161
73.6000 24.5167 1.5300
73.6200 24.5234 1.5147
73.6400 24.5300 1.5192
73.6600 24.5367 1.5287
73.6800 24.5434 1.5137
73.7000 24.5501 1.5221
73.7200 24.5567 1.5297
73.7400 24.5634 1.5204
73.7600 24.5700 1.5229
73.7800 24.5767 1.5286
73.8000 24.5834 1.5188
73.8200 24.5901 1.5269
73.8400 24.5968 1.5339
73.8600 24.6035 1.5162
73.8800 24.6101 1.5232
73.9000 24.6168 1.5371
73.9200 24.6234 1.5160
73.9400 24.6300 1.5256
73.9600 24.6367 1.5357
73.9800 24.6434 1.5228
74.0000 24.6501 1.5185
74.0200 24.6568 1.5377
74.0400 24.6635 1.5200
74.0600 24.6701 1.5214
74.0800 24.6767 1.5457
74.1000 24.6834 1.5224
74.1200 24.6900 1.5203
74.1400 24.6967 1.5477
74.1600 24.7034 1.5237
74.1800 24.7101 1.5245
74.2000 24.7168 1.5477
74.2200 24.7234 1.5228
74.2400 24.7301 1.5271
74.2600 24.7368 1.5410
74.2800 24.7433 1.5249
74.3000 24.7500 1.5362
74.3200 24.7567 1.5468
74.3400 24.7634 1.5177
74.3600 24.7701 1.5406
74.3800 24.7768 1.5431
74.4000 24.7835 1.5227
74.4200 24.7901 1.5351
74.4400 24.7967 1.5450
74.4600 24.8034 1.5296
74.4800 24.8100 1.5409
74.5000 24.8167 1.5391
74.5200 24.8234 1.5357
74.5400 24.8301 1.5385
74.5600 24.8368 1.5435
74.5800 24.8435 1.5377
74.6000 24.8502 1.5408
74.6200 24.8568 1.5424
74.6400 24.8634 1.5472
74.6600 24.8700 1.5375
74.6800 24.8767 1.5434
74.7000 24.8834 1.5467
74.7200 24.8901 1.5334
74.7400 24.8968 1.5492
74.7600 24.9035 1.5451
74.7800 24.9101 1.5342
74.8000 24.9168 1.5523
74.8200 24.9234 1.5453
74.8400 24.9300 1.5394
74.8600 24.9367 1.5518
74.8800 24.9434 1.5437
74.9000 24.9501 1.5421
74.9200 24.9568 1.5491
74.9400 24.9635 1.5497
74.9600 24.9701 1.5434
74.9800 24.9767 1.5521
75.0000 24.9833 1.5444
75.0200 24.9900 1.5476
75.0400 24.9967 1.5498
75.0600 25.0034 1.5428
75.0800 25.0101 1.5505
75.1000 25.0167 1.5490
75.1200 25.0234 1.5481
75.1400 25.0301 1.5550
75.1600 25.0367 1.5492
75.1800 25.0434 1.5478
75.2000 25.0500 1.5555
75.2200 25.0567 1.5515
75.2400 25.0634 1.5501
75.2600 25.0701 1.5535
75.2800 25.0768 1.5508
75.3000 25.0835 1.5560
75.3200 25.0902 1.5524
75.3400 25.0968 1.5499
75.3600 25.1034 1.5600
75.3800 25.1100 1.5568
75.4000 25.1167 1.5531
75.4200 25.1234 1.5587
75.4400 25.1301 1.5513
75.4600 25.1368 1.5574
75.4800 25.1435 1.5670
75.5000 25.1502 1.5431
75.5200 25.1568 1.5595
75.5400 25.1634 1.5728
75.5600 25.1700 1.5481
75.5800 25.1767 1.5580
75.6000 25.1834 1.5720
75.6200 25.1901 1.5491
75.6400 25.1968 1.5605
75.6600 25.2034 1.5739
75.6800 25.2101 1.5502
75.7000 25.2168 1.5613
75.7200 25.2234 1.5774
75.7400 25.2300 1.5494
75.7600 25.2367 1.5662
75.7800 25.2434 1.5748
75.8000 25.2501 1.5530
75.8200 25.2567 1.5668
75.8400 25.2634 1.5719
75.8600 25.2701 1.5633
75.8800 25.2767 1.5658
75.9000 25.2834 1.5676
75.9200 25.2900 1.5651
75.9400 25.2967 1.5653
75.9600 25.3034 1.5681
75.9800 25.3101 1.5713
76.0000 25.3168 1.5648
76.0200 25.3235 1.5692
76.0400 25.3302 1.5722
76.0600 25.3368 1.5660
76.0800 25.3434 1.5719
76.1000 25.3500 1.5789
76.1200 25.3567 1.5618
76.1400 25.3634 1.5762
76.1600 25.3702 1.5749
76.1800 25.3768 1.5635
76.2000 25.3835 1.5787
76.2200 25.3901 1.5757
76.2400 25.3968 1.5627
76.2600 25.4034 1.5846
76.2800 25.4100 1.5731
76.3000 25.4167 1.5616
76.3200 25.4234 1.5926
76.3400 25.4301 1.5746
76.3600 25.4367 1.5617
76.3800 25.4434 1.5963
76.4000 25.4501 1.5750
76.4200 25.4568 1.5645
76.4400 25.4634 1.5915
76.4600 25.4700 1.5758
76.4800 25.4766 1.5715
76.5000 25.4834 1.5912
76.5200 25.4901 1.5734
76.5400 25.4968 1.5694
76.5600 25.5034 1.5977
76.5800 25.5101 1.5742
76.6000 25.5168 1.5715
76.6200 25.5234 1.5958
76.6400 25.5300 1.5769
76.6600 25.5367 1.5761
76.6800 25.5434 1.5946
76.7000 25.5501 1.5744
76.7200 25.5568 1.5835
76.7400 25.5635 1.5956
76.7600 25.5702 1.5790
76.7800 25.5768 1.5777
76.8000 25.5834 1.5969
76.8200 25.5900 1.5818
76.8400 25.5967 1.5789
76.8600 25.6034 1.5941
76.8800 25.6101 1.5870
76.9000 25.6168 1.5801
76.9200 25.6235 1.5961
76.9400 25.6301 1.5878
76.9600 25.6368 1.5778
76.9800 25.6434 1.6013
77.0000 25.6500 1.5922
77.0200 25.6567 1.5794
77.0400 25.6634 1.6023
77.0600 25.6701 1.5930
77.0800 25.6768 1.5805
77.1000 25.6835 1.6031
77.1200 25.6901 1.5926
77.1400 25.6968 1.5845
77.1600 25.7034 1.6025
77.1800 25.7100 1.5933
77.2000 25.7166 1.5853
77.2200 25.7233 1.6108
77.2400 25.7300 1.5865
77.2600 25.7367 1.5858
77.2800 25.7434 1.6093
77.3000 25.7501 1.5916
77.3200 25.7568 1.5883
77.3400 25.7634 1.6115
77.3600 25.7700 1.5909
77.3800 25.7766 1.5927
77.4000 25.7834 1.6089
77.4200 25.7901 1.5926
77.4400 25.7968 1.5955
77.4600 25.8035 1.6097
77.4800 25.8102 1.5924
77.5000 25.8168 1.5952
77.5200 25.8234 1.6094
77.5400 25.8300 1.5958
77.5600 25.8367 1.6062
77.5800 25.8434 1.6069
77.6000 25.8501 1.5991
77.6200 25.8568 1.6041
77.6400 25.8635 1.6057
77.6600 25.8702 1.5992
77.6800 25.8768 1.6042
77.7000 25.8834 1.6089
77.7200 25.8900 1.6034
77.7400 25.8967 1.6032
77.7600 25.9034 1.6116
77.7800 25.9101 1.6028
77.8000 25.9167 1.6052
77.8200 25.9234 1.6089
77.8400 25.9301 1.6071
77.8600 25.9368 1.6031
77.8800 25.9434 1.6104
77.9000 25.9500 1.6122
77.9200 25.9566 1.6087
77.9400 25.9633 1.6100
77.9600 25.9700 1.6116
77.9800 25.9767 1.6052
78.0000 25.9834 1.6165
78.0200 25.9901 1.6125
78.0400 25.9968 1.6019
78.0600 26.0034 1.6154
78.0800 26.0100 1.6170
78.1000 26.0167 1.6080
78.1200 26.0234 1.6178
78.1400 26.0301 1.6195
78.1600 26.0368 1.6073
78.1800 26.0435 1.6183
78.2000 26.0501 1.6149
78.2200 26.0568 1.6097
78.2400 26.0634 1.6250
78.2600 26.0701 1.6216
78.2800 26.0767 1.6129
78.3000 26.0834 1.6248
78.3200 26.0901 1.6173
78.3400 26.0968 1.6143
78.3600 26.1035 1.6243
78.3800 26.1101 1.6211
78.4000 26.1168 1.6169
78.4200 26.1234 1.6275
78.4400 26.1300 1.6163
78.4600 26.1367 1.6222
78.4800 26.1434 1.6286
78.5000 26.1501 1.6164
78.5200 26.1567 1.6232
78.5400 26.1634 1.6263
78.5600 26.1701 1.6228
78.5800 26.1768 1.6217
78.6000 26.1834 1.6263
78.6200 26.1900 1.6296
78.6400 26.1966 1.6258
78.6600 26.2034 1.6234
78.6800 26.2101 1.6303
78.7000 26.2168 1.6268
78.7200 26.2234 1.6244
78.7400 26.2301 1.6302
78.7600 26.2368 1.6254
78.7800 26.2434 1.6254
78.8000 26.2501 1.6357
78.8200 26.2567 1.6220
78.8400 26.2634 1.6322
78.8600 26.2701 1.6349
78.8800 26.2768 1.6219
78.9000 26.2835 1.6316
78.9200 26.2902 1.6373
78.9400 26.2968 1.6256
78.9600 26.3034 1.6324
78.9800 26.3100 1.6366
79.0000 26.3167 1.6296
79.0200 26.3234 1.6347
79.0400 26.3301 1.6384
79.0600 26.3368 1.6293
79.0800 26.3435 1.6381
79.1000 26.3501 1.6409
79.1200 26.3568 1.6254
79.1400 26.3634 1.6396
79.1600 26.3700 1.6426
79.1800 26.3767 1.6359
79.2000 26.3834 1.6355
79.2200 26.3901 1.6400
79.2400 26.3968 1.6342
79.2600 26.4034 1.6400
79.2800 26.4101 1.6384
79.3000 26.4168 1.6396
79.3200 26.4234 1.6425
79.3400 26.4300 1.6378
79.3600 26.4366 1.6429
79.3800 26.4433 1.6476
79.4000 26.4500 1.6378
79.4200 26.4567 1.6455
79.4400 26.4634 1.6436
79.4600 26.4701 1.6450
79.4800 26.4768 1.6450
79.5000 26.4834 1.6435
79.5200 26.4900 1.6471
79.5400 26.4967 1.6514
79.5600 26.5034 1.6441
79.5800 26.5101 1.6438
79.6000 26.5168 1.6501
79.6200 26.5235 1.6461
79.6400 26.5302 1.6485
79.6600 26.5368 1.6503
79.6800 26.5435 1.6441
79.7000 26.5501 1.6547
79.7200 26.5567 1.6535
79.7400 26.5634 1.6400
79.7600 26.5701 1.6587
79.7800 26.5768 1.6532
79.8000 26.5834 1.6468
79.8200 26.5901 1.6560
79.8400 26.5968 1.6545
79.8600 26.6034 1.6478
79.8800 26.6100 1.6570
79.9000 26.6166 1.6607
79.9200 26.6233 1.6503
79.9400 26.6300 1.6519
79.9600 26.6367 1.6611
79.9800 26.6434 1.6468
80.0000 26.6501 1.6602
80.0200 26.6568 1.6580
80.0400 26.6634 1.6510
80.0600 26.6700 1.6609
80.0800 26.6767 1.6646
80.1000 26.6833 1.6512
80.1200 26.6901 1.6577
80.1400 26.6967 1.6691
80.1600 26.7034 1.6544
80.1800 26.7101 1.6595
80.2000 26.7167 1.6680
80.2200 26.7234 1.6508
80.2400 26.7300 1.6634
80.2600 26.7367 1.6718
80.2800 26.7434 1.6535
80.3000 26.7501 1.6625
80.3200 26.7568 1.6675
80.3400 26.7635 1.6579
80.3600 26.7701 1.6624
80.3800 26.7768 1.6690
80.4000 26.7835 1.6589
80.4200 26.7901 1.6696
80.4400 26.7967 1.6687
80.4600 26.8034 1.6609
80.4800 26.8101 1.6691
80.5000 26.8168 1.6763
80.5200 26.8235 1.6608
80.5400 26.8302 1.6692
80.5600 26.8369 1.6712
80.5800 26.8435 1.6640
80.6000 26.8501 1.6724
80.6200 26.8567 1.6815
80.6400 26.8633 1.6641
80.6600 26.8700 1.6676
80.6800 26.8767 1.6807
80.7000 26.8834 1.6660
80.7200 26.8901 1.6739
80.7400 26.8968 1.6792
80.7600 26.9034 1.6694
80.7800 26.9100 1.6719
80.8000 26.9167 1.6837
80.8200 26.9233 1.6692
80.8400 26.9300 1.6771
80.8600 26.9367 1.6846
80.8800 26.9434 1.6720
80.9000 26.9501 1.6732
80.9200 26.9568 1.6895
80.9400 26.9634 1.6713
80.9600 26.9701 1.6769
80.9800 26.9767 1.6883
81.0000 26.9834 1.6787
81.0200 26.9901 1.6764
81.0400 26.9967 1.6862
81.0600 27.0034 1.6779
81.0800 27.0101 1.6834
81.1000 27.0168 1.6894
81.1200 27.0235 1.6766
81.1400 27.0301 1.6801
81.1600 27.0367 1.6916
81.1800 27.0434 1.6756
81.2000 27.0501 1.6852
81.2200 27.0568 1.6881
81.2400 27.0635 1.6808
81.2600 27.0701 1.6861
81.2800 27.0768 1.6884
81.3000 27.0835 1.6833
81.3200 27.0901 1.6838
81.3400 27.0967 1.6929
81.3600 27.1034 1.6821
81.3800 27.1101 1.6895
81.4000 27.1168 1.6933
81.4200 27.1234 1.6861
81.4400 27.1301 1.6845
81.4600 27.1368 1.6977
81.4800 27.1435 1.6924
81.5000 27.1501 1.6851
81.5200 27.1566 1.6978
81.5400 27.1633 1.6918
81.5600 27.1700 1.6853
81.5800 27.1767 1.7035
81.6000 27.1834 1.6873
81.6200 27.1901 1.6863
81.6400 27.1968 1.7063
81.6600 27.2034 1.6915
81.6800 27.2100 1.6847
81.7000 27.2166 1.7123
81.7200 27.2233 1.6939
81.7400 27.2301 1.6850
81.7600 27.2368 1.7102
81.7800 27.2435 1.6946
81.8000 27.2502 1.6888
81.8200 27.2568 1.7126
81.8400 27.2635 1.6930
81.8600 27.2701 1.6935
81.8800 27.2767 1.7163
81.9000 27.2834 1.6921
81.9200 27.2901 1.6948
81.9400 27.2968 1.7169
81.9600 27.3035 1.6983
81.9800 27.3102 1.6941
82.0000 27.3168 1.7174
82.0200 27.3235 1.6913
82.0400 27.3301 1.7028
82.0600 27.3367 1.7169
82.0800 27.3433 1.6992
82.1000 27.3500 1.7074
82.1200 27.3567 1.7123
82.1400 27.3634 1.6977
82.1600 27.3701 1.7131
82.1800 27.3768 1.7107
82.2000 27.3834 1.6981
82.2200 27.3900 1.7161
82.2400 27.3966 1.7160
82.2600 27.4033 1.7052
82.2800 27.4101 1.7137
82.3000 27.4168 1.7095
82.3200 27.4234 1.7077
82.3400 27.4301 1.7129
82.3600 27.4368 1.7124
82.3800 27.4435 1.7106
82.4000 27.4501 1.7122
82.4200 27.4567 1.7109
82.4400 27.4634 1.7146
82.4600 27.4701 1.7196
82.4800 27.4767 1.7112
82.5000 27.4834 1.7173
82.5200 27.4901 1.7203
82.5400 27.4968 1.7158
82.5600 27.5035 1.7200
82.5800 27.5101 1.7128
82.6000 27.5167 1.7153
82.6200 27.5233 1.7251
82.6400 27.5300 1.7167
82.6600 27.5368 1.7190
82.6800 27.5435 1.7206
82.7000 27.5502 1.7154
82.7200 27.5568 1.7142
82.7400 27.5634 1.7313
82.7600 27.5700 1.7200
82.7800 27.5766 1.7177
82.8000 27.5833 1.7320
82.8200 27.5900 1.7179
82.8400 27.5967 1.7165
82.8600 27.6034 1.7340
82.8800 27.6101 1.7236
82.9000 27.6168 1.7179
82.9200 27.6234 1.7331
82.9400 27.6301 1.7193
82.9600 27.6367 1.7239
82.9800 27.6433 1.7386
83.0000 27.6500 1.7207
83.0200 27.6567 1.7230
83.0400 27.6634 1.7378
83.0600 27.6701 1.7267
83.0800 27.6768 1.7259
83.1000 27.6835 1.7375
83.1200 27.6901 1.7244
83.1400 27.6967 1.7288
83.1600 27.7033 1.7431
83.1800 27.7101 1.7223
83.2000 27.7168 1.7337
83.2200 27.7235 1.7365
83.2400 27.7301 1.7285
83.2600 27.7368 1.7361
83.2800 27.7435 1.7383
83.3000 27.7501 1.7282
83.3200 27.7567 1.7357
83.3400 27.7633 1.7386
83.3600 27.7701 1.7314
83.3800 27.7768 1.7391
83.4000 27.7835 1.7404
83.4200 27.7901 1.7270
83.4400 27.7968 1.7415
83.4600 27.8035 1.7454
83.4800 27.8101 1.7303
83.5000 27.8167 1.7432
83.5200 27.8233 1.7450
83.5400 27.8300 1.7376
83.5600 27.8367 1.7425
83.5800 27.8434 1.7454
83.6000 27.8501 1.7394
83.6200 27.8568 1.7448
83.6400 27.8635 1.7412
83.6600 27.8701 1.7422
83.6800 27.8766 1.7434
83.7000 27.8833 1.7465
83.7200 27.8900 1.7385
83.7400 27.8967 1.7520
83.7600 27.9034 1.7450
83.7800 27.9101 1.7466
83.8000 27.9167 1.7510
83.8200 27.9234 1.7454
83.8400 27.9301 1.7495
83.8600 27.9367 1.7485
83.8800 27.9434 1.7533
83.9000 27.9501 1.7491
83.9200 27.9568 1.7499
83.9400 27.9635 1.7528
83.9600 27.9701 1.7472
83.9800 27.9768 1.7503
84.0000 27.9835 1.7568
84.0200 27.9902 1.7527
84.0400 27.9968 1.7458
84.0600 28.0034 1.7604
84.0800 28.0100 1.7569
84.1000 28.0168 1.7453
84.1200 28.0235 1.7638
84.1400 28.0301 1.7555
84.1600 28.0368 1.7521
84.1800 28.0435 1.7603
84.2000 28.0501 1.7571
84.2200 28.0567 1.7546
84.2400 28.0633 1.7631
84.2600 28.0700 1.7585
84.2800 28.0768 1.7554
84.3000 28.0835 1.7650
84.3200 28.0901 1.7630
84.3400 28.0968 1.7547
84.3600 28.1034 1.7686
84.3800 28.1101 1.7595
84.4000 28.1167 1.7585
84.4200 28.1233 1.7693
84.4400 28.1300 1.7659
84.4600 28.1367 1.7589
84.4800 28.1434 1.7675
84.5000 28.1501 1.7710
84.5200 28.1567 1.7608
84.5400 28.1634 1.7671
84.5600 28.1701 1.7696
84.5800 28.1767 1.7629
84.6000 28.1833 1.7702
84.6200 28.1900 1.7757
84.6400 28.1967 1.7647
84.6600 28.2034 1.7675
84.6800 28.2101 1.7741
84.7000 28.2168 1.7644
84.7200 28.2235 1.7676
84.7400 28.2301 1.7775
84.7600 28.2367 1.7600
84.7800 28.2434 1.7808
84.8000 28.2501 1.7788
84.8200 28.2568 1.7649
84.8400 28.2635 1.7760
84.8600 28.2701 1.7737
84.8800 28.2768 1.7684
84.9000 28.2835 1.7808
84.9200 28.2901 1.7784
84.9400 28.2967 1.7663
84.9600 28.3034 1.7814
84.9800 28.3100 1.7801
85.0000 28.3167 1.7663
85.0200 28.3234 1.7925
85.0400 28.3301 1.7759
85.0600 28.3368 1.7708
85.0800 28.3435 1.7919
85.1000 28.3501 1.7772
85.1200 28.3567 1.7740
85.1400 28.3633 1.7926
85.1600 28.3700 1.7830
85.1800 28.3767 1.7766
85.2000 28.3834 1.7902
85.2200 28.3901 1.7785
85.2400 28.3968 1.7799
85.2600 28.4035 1.7918
85.2800 28.4101 1.7789
85.3000 28.4167 1.7845
85.3200 28.4233 1.7913
85.3400 28.4300 1.7809
85.3600 28.4368 1.7931
85.3800 28.4435 1.7869
85.4000 28.4502 1.7860
85.4200 28.4568 1.7921
85.4400 28.4635 1.7931
85.4600 28.4701 1.7823
85.4800 28.4767 1.7913
85.5000 28.4833 1.7945
85.5200 28.4900 1.7871
85.5400 28.4967 1.7919
85.5600 28.5034 1.7956
85.5800 28.5101 1.7959
85.6000 28.5168 1.7919
85.6200 28.5235 1.7904
85.6400 28.5301 1.7993
85.6600 28.5367 1.7919
85.6800 28.5433 1.7943
85.7000 28.5500 1.8010
85.7200 28.5567 1.7931
85.7400 28.5634 1.7972
85.7600 28.5701 1.7983
85.7800 28.5768 1.7948
85.8000 28.5835 1.7949
85.8200 28.5901 1.8052
85.8400 28.5967 1.7927
85.8600 28.6033 1.8042
85.8800 28.6100 1.8061
85.9000 28.6167 1.7958
85.9200 28.6234 1.8049
85.9400 28.6301 1.8054
85.9600 28.6368 1.7941
85.9800 28.6434 1.8078
86.0000 28.6501 1.8077
86.0200 28.6567 1.8038
86.0400 28.6633 1.8058
86.0600 28.6700 1.8061
86.0800 28.6767 1.8072
86.1000 28.6834 1.8116
86.1200 28.6901 1.8066
86.1400 28.6968 1.8079
86.1600 28.7035 1.8087
86.1800 28.7102 1.8028
86.2000 28.7168 1.8124
86.2200 28.7234 1.8144
86.2400 28.7300 1.8086
86.2600 28.7367 1.8042
86.2800 28.7435 1.8132
86.3000 28.7502 1.8118
86.3200 28.7568 1.8099
86.3400 28.7635 1.8120
86.3600 28.7701 1.8145
86.3800 28.7767 1.8128
86.4000 28.7833 1.8168
86.4200 28.7900 1.8191
86.4400 28.7967 1.8197
86.4600 28.8034 1.8121
86.4800 28.8101 1.8170
86.5000 28.8167 1.8221
86.5200 28.8234 1.8153
86.5400 28.8301 1.8188
86.5600 28.8367 1.8174
86.5800 28.8433 1.8177
86.6000 28.8500 1.8256
86.6200 28.8567 1.8231
86.6400 28.8634 1.8220
86.6600 28.8701 1.8197
86.6800 28.8768 1.8186
86.7000 28.8835 1.8279
86.7200 28.8902 1.8222
86.7400 28.8968 1.8195
86.7600 28.9034 1.8295
86.7800 28.9100 1.8253
86.8000 28.9167 1.8238
86.8200 28.9234 1.8294
86.8400 28.9301 1.8264
86.8600 28.9368 1.8248
86.8800 28.9435 1.8268
86.9000 28.9501 1.8232
86.9200 28.9567 1.8292
86.9400 28.9634 1.8307
86.9600 28.9700 1.8281
86.9800 28.9767 1.8346
87.0000 28.9834 1.8304
87.0200 28.9901 1.8310
87.0400 28.9968 1.8364
87.0600 29.0035 1.8315
87.0800 29.0102 1.8272
87.1000 29.0168 1.8381
87.1200 29.0234 1.8293
87.1400 29.0300 1.8340
87.1600 29.0367 1.8422
87.1800 29.0434 1.8367
87.2000 29.0501 1.8320
87.2200 29.0568 1.8413
87.2400 29.0635 1.8358
87.2600 29.0701 1.8317
87.2800 29.0767 1.8464
87.3000 29.0833 1.8365
87.3200 29.0900 1.8361
87.3400 29.0967 1.8477
87.3600 29.1034 1.8372
87.3800 29.1101 1.8411
87.4000 29.1167 1.8449
87.4200 29.1234 1.8382
87.4400 29.1301 1.8457
87.4600 29.1367 1.8467
87.4800 29.1433 1.8395
87.5000 29.1500 1.8483
87.5200 29.1567 1.8508
87.5400 29.1634 1.8362
87.5600 29.1701 1.8572
87.5800 29.1768 1.8449
87.6000 29.1834 1.8414
87.6200 29.1901 1.8545
87.6400 29.1968 1.8526
87.6600 29.2034 1.8447
87.6800 29.2100 1.8484
87.7000 29.2167 1.8602
87.7200 29.2234 1.8508
87.7400 29.2301 1.8423
87.7600 29.2368 1.8642
87.7800 29.2435 1.8529
87.8000 29.2502 1.8345
87.8200 29.2568 1.8689
87.8400 29.2633 1.8579
87.8600 29.2700 1.8393
87.8800 29.2767 1.8699
87.9000 29.2834 1.8502
87.9200 29.2901 1.8475
87.9400 29.2968 1.8747
87.9600 29.3034 1.8490
87.9800 29.3101 1.8499
88.0000 29.3167 1.8741
88.0200 29.3233 1.8545
88.0400 29.3300 1.8581
88.0600 29.3367 1.8774
88.0800 29.3434 1.8447
88.1000 29.3500 1.8629
88.1200 29.3567 1.8756
88.1400 29.3634 1.8537
88.1600 29.3701 1.8633
88.1800 29.3767 1.8718
88.2000 29.3834 1.8505
88.2200 29.3900 1.8733
88.2400 29.3967 1.8686
88.2600 29.4034 1.8526
88.2800 29.4101 1.8684
88.3000 29.4168 1.8752
88.3200 29.4235 1.8590
88.3400 29.4302 1.8713
88.3600 29.4368 1.8729
88.3800 29.4434 1.8633
88.4000 29.4500 1.8705
88.4200 29.4567 1.8766
88.4400 29.4635 1.8703
88.4600 29.4701 1.8619
88.4800 29.4768 1.8753
88.5000 29.4835 1.8783
88.5200 29.4901 1.8680
88.5400 29.4967 1.8701
88.5600 29.5034 1.8776
88.5800 29.5100 1.8738
88.6000 29.5167 1.8760
88.6200 29.5234 1.8799
88.6400 29.5301 1.8740
88.6600 29.5368 1.8734
88.6800 29.5435 1.8819
88.7000 29.5501 1.8700
88.7200 29.5568 1.8858
88.7400 29.5633 1.8839
88.7600 29.5700 1.8685
88.7800 29.5766 1.8877
88.8000 29.5834 1.8861
88.8200 29.5901 1.8701
88.8400 29.5968 1.8907
88.8600 29.6035 1.8802
88.8800 29.6101 1.8733
88.9000 29.6168 1.8952
88.9200 29.6234 1.8806
88.9400 29.6300 1.8801
88.9600 29.6367 1.8993
88.9800 29.6434 1.8815
89.0000 29.6501 1.8779
89.0200 29.6568 1.9003
89.0400 29.6635 1.8777
89.0600 29.6701 1.8873
89.0800 29.6768 1.8995
89.1000 29.6834 1.8833
89.1200 29.6900 1.8866
89.1400 29.6967 1.9014
89.1600 29.7034 1.8834
89.1800 29.7101 1.8885
89.2000 29.7168 1.9063
89.2200 29.7235 1.8889
89.2400 29.7302 1.8824
89.2600 29.7368 1.9018
89.2800 29.7434 1.9019
89.3000 29.7500 1.8858
89.3200 29.7567 1.8958
89.3400 29.7634 1.9017
89.3600 29.7701 1.8860
89.3800 29.7768 1.8970
89.4000 29.7834 1.9102
89.4200 29.7901 1.8868
89.4400 29.7967 1.8918
89.4600 29.8033 1.9163
89.4800 29.8100 1.8993
89.5000 29.8167 1.8910
89.5200 29.8234 1.9091
89.5400 29.8301 1.9049
89.5600 29.8367 1.8946
89.5800 29.8434 1.9045
89.6000 29.8501 1.9062
89.6200 29.8568 1.8977
89.6400 29.8634 1.9078
89.6600 29.8700 1.9028
89.6800 29.8767 1.9095
89.7000 29.8834 1.9006
89.7200 29.8901 1.9046
89.7400 29.8968 1.9165
89.7600 29.9035 1.9072
89.7800 29.9102 1.9001
89.8000 29.9168 1.9170
89.8200 29.9234 1.9100
89.8400 29.9300 1.9087
89.8600 29.9367 1.9221
89.8800 29.9434 1.9076
89.9000 29.9501 1.9008
89.9200 29.9568 1.9293
89.9400 29.9635 1.9153
89.9600 29.9702 1.9025
89.9800 29.9768 1.9167
90.0000 29.9834 1.9212
90.0200 29.9900 1.9052
90.0400 29.9967 1.9165
90.0600 30.0034 1.9293
90.0800 30.0101 1.9088
90.1000 30.0168 1.9199
90.1200 30.0234 1.9270
90.1400 30.0301 1.9157
90.1600 30.0368 1.9166
90.1800 30.0434 1.9252
90.2000 30.0500 1.9146
90.2200 30.0567 1.9216
90.2400 30.0634 1.9311
90.2600 30.0701 1.9141
90.2800 30.0767 1.9232
90.3000 30.0834 1.9302
90.3200 30.0901 1.9198
90.3400 30.0967 1.9300
90.3600 30.1034 1.9241
90.3800 30.1100 1.9238
90.4000 30.1167 1.9307
90.4200 30.1234 1.9301
90.4400 30.1301 1.9271
90.4600 30.1368 1.9275
90.4800 30.1435 1.9284
90.5000 30.1502 1.9341
90.5200 30.1568 1.9281
90.5400 30.1634 1.9280
90.5600 30.1700 1.9378
90.5800 30.1767 1.9302
90.6000 30.1834 1.9356
90.6200 30.1902 1.9357
90.6400 30.1968 1.9233
90.6600 30.2035 1.9377
90.6800 30.2101 1.9436
90.7000 30.2168 1.9273
90.7200 30.2234 1.9383
90.7400 30.2300 1.9380
90.7600 30.2367 1.9335
90.7800 30.2434 1.9398
90.8000 30.2501 1.9395
90.8200 30.2567 1.9366
90.8400 30.2634 1.9440
90.8600 30.2701 1.9384
90.8800 30.2768 1.9390
90.9000 30.2834 1.9427
90.9200 30.2900 1.9411
90.9400 30.2966 1.9432
90.9600 30.3034 1.9485
90.9800 30.3101 1.9372
91.0000 30.3168 1.9476
91.0200 30.3234 1.9460
91.0400 30.3301 1.9423
91.0600 30.3368 1.9503
91.0800 30.3434 1.9494
91.1000 30.3500 1.9472
91.1200 30.3567 1.9428
91.1400 30.3634 1.9525
91.1600 30.3701 1.9494
91.1800 30.3768 1.9468
91.2000 30.3834 1.9544
91.2200 30.3901 1.9551
91.2400 30.3968 1.9431
91.2600 30.4034 1.9567
91.2800 30.4100 1.9561
91.3000 30.4167 1.9486
91.3200 30.4234 1.9590
91.3400 30.4301 1.9553
91.3600 30.4368 1.9494
91.3800 30.4435 1.9640
91.4000 30.4502 1.9573
91.4200 30.4568 1.9513
91.4400 30.4634 1.9631
91.4600 30.4700 1.9624
91.4800 30.4767 1.9586
91.5000 30.4834 1.9645
91.5200 30.4901 1.9612
91.5400 30.4968 1.9598
91.5600 30.5035 1.9648
91.5800 30.5101 1.9618
91.6000 30.5168 1.9613
91.6200 30.5234 1.9636
91.6400 30.5300 1.9670
91.6600 30.5366 1.9652
91.6800 30.5433 1.9695
91.7000 30.5501 1.9607
91.7200 30.5567 1.9637
91.7400 30.5634 1.9803
91.7600 30.5701 1.9708
91.7800 30.5768 1.9551
91.8000 30.5834 1.9771
91.8200 30.5900 1.9787
91.8400 30.5967 1.9572
91.8600 30.6034 1.9758
91.8800 30.6101 1.9855
91.9000 30.6168 1.9537
91.9200 30.6235 1.9770
91.9400 30.6302 1.9886
91.9600 30.6369 1.9602
91.9800 30.6434 1.9754
92.0000 30.6500 1.9860
92.0200 30.6567 1.9713
92.0400 30.6634 1.9777
92.0600 30.6701 1.9802
92.0800 30.6768 1.9764
92.1000 30.6835 1.9807
92.1200 30.6902 1.9775
92.1400 30.6968 1.9767
92.1600 30.7034 1.9861
92.1800 30.7100 1.9723
92.2000 30.7167 1.9860
92.2200 30.7234 1.9923
92.2400 30.7301 1.9755
92.2600 30.7367 1.9851
92.2800 30.7434 1.9880
92.3000 30.7501 1.9891
92.3200 30.7568 1.9814
92.3400 30.7634 1.9885
92.3600 30.7700 1.9927
92.3800 30.7766 1.9843
92.4000 30.7833 1.9828
92.4200 30.7900 1.9969
92.4400 30.7967 1.9871
92.4600 30.8034 1.9838
92.4800 30.8101 1.9971
92.5000 30.8168 1.9863
92.5200 30.8234 1.9841
92.5400 30.8300 2.0039
92.5600 30.8367 1.9855
92.5800 30.8434 1.9940
92.6000 30.8501 2.0018
92.6200 30.8568 1.9873
92.6400 30.8635 1.9974
92.6600 30.8701 2.0054
92.6800 30.8768 1.9938
92.7000 30.8834 1.9969
92.7200 30.8901 2.0119
92.7400 30.8967 1.9894
92.7600 30.9034 2.0014
92.7800 30.9101 2.0113
92.8000 30.9168 1.9855
92.8200 30.9235 2.0039
92.8400 30.9302 2.0160
92.8600 30.9368 1.9906
92.8800 30.9435 2.0018
92.9000 30.9500 2.0153
92.9200 30.9567 1.9986
92.9400 30.9633 2.0078
92.9600 30.9701 2.0156
92.9800 30.9767 1.9950
93.0000 30.9834 2.0160
93.0200 30.9901 2.0098
93.0400 30.9968 1.9990
93.0600 31.0034 2.0204
93.0800 31.0100 2.0130
93.1000 31.0166 1.9992
93.1200 31.0233 2.0207
93.1400 31.0300 2.0137
93.1600 31.0367 2.0057
93.1800 31.0434 2.0203
93.2000 31.0501 2.0148
93.2200 31.0568 2.0049
93.2400 31.0634 2.0222
93.2600 31.0701 2.0181
93.2800 31.0767 2.0155
93.3000 31.0834 2.0226
93.3200 31.0901 2.0175
93.3400 31.0967 2.0141
93.3600 31.1034 2.0175
93.3800 31.1102 2.0211
93.4000 31.1168 2.0196
93.4200 31.1235 2.0195
93.4400 31.1301 2.0214
93.4600 31.1367 2.0250
93.4800 31.1434 2.0199
93.5000 31.1501 2.0289
93.5200 31.1568 2.0228
93.5400 31.1635 2.0247
93.5600 31.1701 2.0298
93.5800 31.1768 2.0220
93.6000 31.1834 2.0266
93.6200 31.1900 2.0327
93.6400 31.1967 2.0256
93.6600 31.2034 2.0336
93.6800 31.2101 2.0328
93.7000 31.2168 2.0276
93.7200 31.2234 2.0337
93.7400 31.2301 2.0340
93.7600 31.2368 2.0226
93.7800 31.2434 2.0361
93.8000 31.2500 2.0403
93.8200 31.2566 2.0255
93.8400 31.2633 2.0400
93.8600 31.2700 2.0395
93.8800 31.2767 2.0307
93.9000 31.2834 2.0400
93.9200 31.2901 2.0403
93.9400 31.2968 2.0341
93.9600 31.3034 2.0398
93.9800 31.3100 2.0374
94.0000 31.3167 2.0395
94.0200 31.3233 2.0436
94.0400 31.3301 2.0397
94.0600 31.3368 2.0400
94.0800 31.3435 2.0420
94.1000 31.3502 2.0413
94.1200 31.3568 2.0446
94.1400 31.3635 2.0449
94.1600 31.3701 2.0456
94.1800 31.3767 2.0518
94.2000 31.3834 2.0436
94.2200 31.3901 2.0417
94.2400 31.3968 2.0548
94.2600 31.4034 2.0500
94.2800 31.4101 2.0488
94.3000 31.4168 2.0579
94.3200 31.4234 2.0450
94.3400 31.4300 2.0482
94.3600 31.4367 2.0582
94.3800 31.4433 2.0516
94.4000 31.4500 2.0549
94.4200 31.4567 2.0478
94.4400 31.4634 2.0584
94.4600 31.4701 2.0610
94.4800 31.4768 2.0435
94.5000 31.4834 2.0644
94.5200 31.4900 2.0669
94.5400 31.4966 2.0419
94.5600 31.5033 2.0625
94.5800 31.5100 2.0753
94.6000 31.5168 2.0396
94.6200 31.5234 2.0694
94.6400 31.5301 2.0749
94.6600 31.5368 2.0434
94.6800 31.5434 2.0691
94.7000 31.5500 2.0724
94.7200 31.5567 2.0468
94.7400 31.5634 2.0795
94.7600 31.5701 2.0620
94.7800 31.5768 2.0589
94.8000 31.5835 2.0781
94.8200 31.5901 2.0527
94.8400 31.5968 2.0663
94.8600 31.6035 2.0837
94.8800 31.6101 2.0527
94.9000 31.6167 2.0737
94.9200 31.6234 2.0825
94.9400 31.6301 2.0549
94.9600 31.6368 2.0836
94.9800 31.6435 2.0800
95.0000 31.6502 2.0576
95.0200 31.6569 2.0814
95.0400 31.6635 2.0771
95.0600 31.6701 2.0649
95.0800 31.6767 2.0923
95.1000 31.6833 2.0721
95.1200 31.6900 2.0673
95.1400 31.6967 2.0919
95.1600 31.7034 2.0681
95.1800 31.7101 2.0773
95.2000 31.7167 2.0964
95.2200 31.7234 2.0648
95.2400 31.7300 2.0777
95.2600 31.7367 2.0943
95.2800 31.7433 2.0754
95.3000 31.7500 2.0815
95.3200 31.7567 2.0943
95.3400 31.7634 2.0779
95.3600 31.7701 2.0845
95.3800 31.7768 2.0853
95.4000 31.7834 2.0855
95.4200 31.7901 2.0897
95.4400 31.7967 2.0863
95.4600 31.8033 2.0906
95.4800 31.8100 2.0920
95.5000 31.8168 2.0910
95.5200 31.8235 2.0886
95.5400 31.8302 2.0922
95.5600 31.8368 2.0988
95.5800 31.8435 2.0952
95.6000 31.8501 2.0833
95.6200 31.8567 2.1022
95.6400 31.8633 2.0978
95.6600 31.8701 2.0870
95.6800 31.8768 2.1071
95.7000 31.8835 2.0966
95.7200 31.8901 2.0837
95.7400 31.8968 2.1165
95.7600 31.9035 2.0936
95.7800 31.9101 2.0914
95.8000 31.9167 2.1174
95.8200 31.9234 2.0969
95.8400 31.9300 2.0969
95.8600 31.9367 2.1154
95.8800 31.9434 2.0988
95.9000 31.9501 2.1012
95.9200 31.9568 2.1140
95.9400 31.9635 2.0940
95.9600 31.9701 2.0994
95.9800 31.9766 2.1191
96.0000 31.9833 2.1031
96.0200 31.9900 2.1054
96.0400 31.9967 2.1166
96.0600 32.0034 2.1035
96.0800 32.0101 2.1131
96.1000 32.0168 2.1155
96.1200 32.0234 2.1052
96.1400 32.0300 2.1147
96.1600 32.0366 2.1238
96.1800 32.0433 2.1056
96.2000 32.0500 2.1187
96.2200 32.0568 2.1193
96.2400 32.0635 2.1096
96.2600 32.0701 2.1212
96.2800 32.0768 2.1236
96.3000 32.0835 2.1048
96.3200 32.0901 2.1280
96.3400 32.0967 2.1187
96.3600 32.1034 2.1130
96.3800 32.1101 2.1264
96.4000 32.1168 2.1241
96.4200 32.1235 2.1136
96.4400 32.1301 2.1279
96.4600 32.1368 2.1253
96.4800 32.1435 2.1200
96.5000 32.1501 2.1284
96.5200 32.1567 2.1258
96.5400 32.1633 2.1261
96.5600 32.1700 2.1306
96.5800 32.1767 2.1263
96.6000 32.1834 2.1277
96.6200 32.1901 2.1296
96.6400 32.1968 2.1304
96.6600 32.2034 2.1318
96.6800 32.2100 2.1293
96.7000 32.2167 2.1394
96.7200 32.2233 2.1305
96.7400 32.2300 2.1352
96.7600 32.2368 2.1377
96.7800 32.2434 2.1307
96.8000 32.2501 2.1340
96.8200 32.2568 2.1391
96.8400 32.2634 2.1371
96.8600 32.2701 2.1389
96.8800 32.2767 2.1392
96.9000 32.2834 2.1420
96.9200 32.2901 2.1418
96.9400 32.2968 2.1415
96.9600 32.3035 2.1413
96.9800 32.3102 2.1460
97.0000 32.3168 2.1449
97.0200 32.3235 2.1423
97.0400 32.3301 2.1460
97.0600 32.3367 2.1520
97.0800 32.3433 2.1440
97.1000 32.3500 2.1492
97.1200 32.3568 2.1489
97.1400 32.3635 2.1423
97.1600 32.3701 2.1521
97.1800 32.3768 2.1531
97.2000 32.3835 2.1447
97.2200 32.3901 2.1493
97.2400 32.3967 2.1587
97.2600 32.4033 2.1451
97.2800 32.4100 2.1552
97.3000 32.4167 2.1578
97.3200 32.4234 2.1514
97.3400 32.4301 2.1575
97.3600 32.4368 2.1632
97.3800 32.4434 2.1533
97.4000 32.4501 2.1605
97.4200 32.4567 2.1631
97.4400 32.4633 2.1574
97.4600 32.4700 2.1602
97.4800 32.4767 2.1651
97.5000 32.4834 2.1591
97.5200 32.4901 2.1650
97.5400 32.4968 2.1668
97.5600 32.5035 2.1598
97.5800 32.5101 2.1597
97.6000 32.5167 2.1697
97.6200 32.5233 2.1669
97.6400 32.5300 2.1671
97.6600 32.5368 2.1705
97.6800 32.5435 2.1626
97.7000 32.5502 2.1666
97.7200 32.5568 2.1793
97.7400 32.5635 2.1692
97.7600 32.5701 2.1672
97.7800 32.5767 2.1788
97.8000 32.5833 2.1714
97.8200 32.5901 2.1744
97.8400 32.5968 2.1777
97.8600 32.6035 2.1724
97.8800 32.6101 2.1757
97.9000 32.6168 2.1759
97.9200 32.6235 2.1705
97.9400 32.6301 2.1848
97.9600 32.6367 2.1746
97.9800 32.6433 2.1788
98.0000 32.6500 2.1881
98.0200 32.6567 2.1794
98.0400 32.6634 2.1795
98.0600 32.6701 2.1900
98.0800 32.6768 2.1788
98.1000 32.6835 2.1800
98.1200 32.6901 2.1900
98.1400 32.6967 2.1825
98.1600 32.7033 2.1833
98.1800 32.7100 2.1960
98.2000 32.7167 2.1816
98.2200 32.7234 2.1853
98.2400 32.7301 2.1944
98.2600 32.7368 2.1900
98.2800 32.7434 2.1845
98.3000 32.7501 2.1936
98.3200 32.7567 2.1990
98.3400 32.7634 2.1861
98.3600 32.7700 2.1974
98.3800 32.7768 2.1956
98.4000 32.7834 2.1927
98.4200 32.7901 2.1972
98.4400 32.7968 2.1983
98.4600 32.8035 2.1921
98.4800 32.8102 2.2053
98.5000 32.8168 2.2002
98.5200 32.8234 2.1938
98.5400 32.8300 2.2033
98.5600 32.8367 2.2037
98.5800 32.8435 2.1948
98.6000 32.8502 2.2062
98.6200 32.8568 2.2035
98.6400 32.8635 2.2031
98.6600 32.8701 2.2036
98.6800 32.8767 2.2066
98.7000 32.8833 2.2061
98.7200 32.8900 2.2103
98.7400 32.8967 2.2033
98.7600 32.9034 2.2067
98.7800 32.9101 2.2121
98.8000 32.9167 2.2071
98.8200 32.9234 2.2160
98.8400 32.9300 2.2132
98.8600 32.9367 2.2093
98.8800 32.9433 2.2183
98.9000 32.9500 2.2135
98.9200 32.9567 2.2145
98.9400 32.9634 2.2118
98.9600 32.9701 2.2168
98.9800 32.9767 2.2164
99.0000 32.9834 2.2141
99.0200 32.9901 2.2242
99.0400 32.9967 2.2146
99.0600 33.0034 2.2218
99.0800 33.0100 2.2230
99.1000 33.0167 2.2196
99.1200 33.0234 2.2228
99.1400 33.0301 2.2282
99.1600 33.0368 2.2181
99.1800 33.0435 2.2283
99.2000 33.0501 2.2235
99.2200 33.0567 2.2245
99.2400 33.0634 2.2363
99.2600 33.0700 2.2291
99.2800 33.0767 2.2240
99.3000 33.0835 2.2400
99.3200 33.0901 2.2275
99.3400 33.0968 2.2203
99.3600 33.1035 2.2457
99.3800 33.1101 2.2314
99.4000 33.1167 2.2248
99.4200 33.1234 2.2440
99.4400 33.1300 2.2319
99.4600 33.1367 2.2309
99.4800 33.1434 2.2441
99.5000 33.1501 2.2324
99.5200 33.1568 2.2384
99.5400 33.1634 2.2419
99.5600 33.1701 2.2376
99.5800 33.1767 2.2393
99.6000 33.1833 2.2436
99.6200 33.1900 2.2413
99.6400 33.1967 2.2468
99.6600 33.2034 2.2392
99.6800 33.2101 2.2430
99.7000 33.2168 2.2501
99.7200 33.2235 2.2444
99.7400 33.2301 2.2436
99.7600 33.2367 2.2532
99.7800 33.2434 2.2452
99.8000 33.2500 2.2488
99.8200 33.2568 2.2536
99.8400 33.2635 2.2470
99.8600 33.2702 2.2527
99.8800 33.2768 2.2529
99.9000 33.2835 2.2489
99.9200 33.2901 2.2560
99.9400 33.2967 2.2518
99.9600 33.3034 2.2495
99.9800 33.3100 2.2644
100.0000 33.3167 2.2557
100.0200 33.3234 2.2564
100.0400 33.3301 2.2619
100.0600 33.3368 2.2556
100.0800 33.3435 2.2554
100.1000 33.3501 2.2685
100.1200 33.3567 2.2560
100.1400 33.3633 2.2619
100.1600 33.3700 2.2675
100.1800 33.3767 2.2638
100.2000 33.3834 2.2636
100.2200 33.3901 2.2689
100.2400 33.3968 2.2655
100.2600 33.4035 2.2670
100.2800 33.4101 2.2666
100.3000 33.4167 2.2686
100.3200 33.4233 2.2684
100.3400 33.4300 2.2737
100.3600 33.4367 2.2732
100.3800 33.4434 2.2695
100.4000 33.4501 2.2701
100.4200 33.4567 2.2773
100.4400 33.4634 2.2726
100.4600 33.4701 2.2745
100.4800 33.4767 2.2826
100.5000 33.4834 2.2721
100.5200 33.4900 2.2787
100.5400 33.4967 2.2830
100.5600 33.5034 2.2751
100.5800 33.5101 2.2787
100.6000 33.5168 2.2868
100.6200 33.5235 2.2778
100.6400 33.5302 2.2846
100.6600 33.5368 2.2860
100.6800 33.5434 2.2780
100.7000 33.5500 2.2875
100.7200 33.5567 2.2886
100.7400 33.5634 2.2789
100.7600 33.5701 2.2936
100.7800 33.5768 2.2825
100.8000 33.5835 2.2862
100.8200 33.5901 2.2955
100.8400 33.5967 2.2871
100.8600 33.6033 2.2877
100.8800 33.6100 2.3014
100.9000 33.6167 2.2892
100.9200 33.6234 2.2897
100.9400 33.6301 2.3037
100.9600 33.6367 2.2902
100.9800 33.6434 2.2982
101.0000 33.6501 2.3039
101.0200 33.6567 2.2917
101.0400 33.6633 2.2992
101.0600 33.6700 2.3072
101.0800 33.6767 2.2937
101.1000 33.6834 2.3028
101.1200 33.6901 2.3048
101.1400 33.6968 2.3008
101.1600 33.7035 2.3005
101.1800 33.7102 2.3100
101.2000 33.7168 2.2969
101.2200 33.7234 2.3097
101.2400 33.7300 2.3112
101.2600 33.7367 2.2991
101.2800 33.7434 2.3119
101.3000 33.7501 2.3114
101.3200 33.7568 2.3037
101.3400 33.7635 2.3128
101.3600 33.7702 2.3130
101.3800 33.7768 2.3065
101.4000 33.7834 2.3178
101.4200 33.7900 2.3164
101.4400 33.7967 2.3090
101.4600 33.8034 2.3240
101.4800 33.8101 2.3127
101.5000 33.8168 2.3143
101.5200 33.8235 2.3261
101.5400 33.8302 2.3180
101.5600 33.8368 2.3158
101.5800 33.8434 2.3264
101.6000 33.8501 2.3195
101.6200 33.8567 2.3183
101.6400 33.8634 2.3269
101.6600 33.8701 2.3201
101.6800 33.8768 2.3278
101.7000 33.8835 2.3268
101.7200 33.8902 2.3233
101.7400 33.8968 2.3271
101.7600 33.9033 2.3323
101.7800 33.9100 2.3260
101.8000 33.9167 2.3304
101.8200 33.9234 2.3356
101.8400 33.9301 2.3301
101.8600 33.9368 2.3307
101.8800 33.9434 2.3336
101.9000 33.9501 2.3284
101.9200 33.9567 2.3396
101.9400 33.9634 2.3340
101.9600 33.9700 2.3382
101.9800 33.9767 2.3389
102.0000 33.9834 2.3384
102.0200 33.9901 2.3438
102.0400 33.9968 2.3395
102.0600 34.0035 2.3424
102.0800 34.0102 2.3422
102.1000 34.0168 2.3391
102.1200 34.0234 2.3440
102.1400 34.0300 2.3482
102.1600 34.0367 2.3403
102.1800 34.0434 2.3488
102.2000 34.0501 2.3514
102.2200 34.0568 2.3422
102.2400 34.0635 2.3481
102.2600 34.0702 2.3527
102.2800 34.0768 2.3433
102.3000 34.0834 2.3569
102.3200 34.0900 2.3582
102.3400 34.0967 2.3456
102.3600 34.1034 2.3560
102.3800 34.1101 2.3580
102.4000 34.1168 2.3484
102.4200 34.1235 2.3637
102.4400 34.1301 2.3552
102.4600 34.1367 2.3549
102.4800 34.1433 2.3671
102.5000 34.1500 2.3579
102.5200 34.1567 2.3577
102.5400 34.1634 2.3701
102.5600 34.1700 2.3569
102.5800 34.1767 2.3578
102.6000 34.1834 2.3709
102.6200 34.1901 2.3631
102.6400 34.1968 2.3648
102.6600 34.2034 2.3702
102.6800 34.2100 2.3654
102.7000 34.2167 2.3705
102.7200 34.2234 2.3736
102.7400 34.2301 2.3667
102.7600 34.2368 2.3719
102.7800 34.2435 2.3698
102.8000 34.2502 2.3725
102.8200 34.2568 2.3726
102.8400 34.2634 2.3755
102.8600 34.2700 2.3770
102.8800 34.2767 2.3771
102.9000 34.2835 2.3773
102.9200 34.2902 2.3806
102.9400 34.2968 2.3764
102.9600 34.3035 2.3811
102.9800 34.3101 2.3858
103.0000 34.3168 2.3791
103.0200 34.3234 2.3806
103.0400 34.3300 2.3907
103.0600 34.3367 2.3779
103.0800 34.3434 2.3828
103.1000 34.3501 2.3893
103.1200 34.3568 2.3842
103.1400 34.3634 2.3877
103.1600 34.3701 2.3900
103.1800 34.3768 2.3880
103.2000 34.3834 2.3934
103.2200 34.3900 2.3922
103.2400 34.3966 2.3947
103.2600 34.4034 2.3989
103.2800 34.4101 2.3934
103.3000 34.4168 2.3933
103.3200 34.4235 2.3994
103.3400 34.4302 2.3964
103.3600 34.4368 2.3951
103.3800 34.4434 2.4011
103.4000 34.4500 2.3949
103.4200 34.4567 2.4054
103.4400 34.4634 2.4019
103.4600 34.4701 2.4005
103.4800 34.4768 2.4028
103.5000 34.4835 2.4073
103.5200 34.4902 2.3987
103.5400 34.4968 2.4063
103.5600 34.5034 2.4082
103.5800 34.5101 2.4070
103.6000 34.5167 2.4052
103.6200 34.5234 2.4064
103.6400 34.5301 2.4106
103.6600 34.5368 2.4113
103.6800 34.5435 2.4094
103.7000 34.5502 2.4146
103.7200 34.5568 2.4119
103.7400 34.5634 2.4088
103.7600 34.5700 2.4158
103.7800 34.5767 2.4224
103.8000 34.5834 2.4154
103.8200 34.5901 2.4198
103.8400 34.5968 2.4233
103.8600 34.6035 2.4152
103.8800 34.6101 2.4218
103.9000 34.6167 2.4204
103.9200 34.6233 2.4212
103.9400 34.6299 2.4233
103.9600 34.6366 2.4242
103.9800 34.6433 2.4221
104.0000 34.6501 2.4306
104.0200 34.6567 2.4299
104.0400 34.6634 2.4271
104.0600 34.6701 2.4280
104.0800 34.6768 2.4341
104.1000 34.6834 2.4284
104.1200 34.6900 2.4305
104.1400 34.6967 2.4361
104.1600 34.7034 2.4284
104.1800 34.7101 2.4368
104.2000 34.7168 2.4403
104.2200 34.7235 2.4307
104.2400 34.7302 2.4421
104.2600 34.7368 2.4411
104.2800 34.7434 2.4314
104.3000 34.7500 2.4429
104.3200 34.7567 2.4449
104.3400 34.7634 2.4363
104.3600 34.7701 2.4425
104.3800 34.7768 2.4416
104.4000 34.7835 2.4431
104.4200 34.7901 2.4512
104.4400 34.7968 2.4435
104.4600 34.8034 2.4474
104.4800 34.8100 2.4514
104.5000 34.8167 2.4492
104.5200 34.8234 2.4453
104.5400 34.8301 2.4557
104.5600 34.8367 2.4553
104.5800 34.8434 2.4513
104.6000 34.8501 2.4543
104.6200 34.8568 2.4594
104.6400 34.8634 2.4554
104.6600 34.8700 2.4575
104.6800 34.8767 2.4599
104.7000 34.8834 2.4581
104.7200 34.8901 2.4560
104.7400 34.8967 2.4629
104.7600 34.9034 2.4607
104.7800 34.9101 2.4633
104.8000 34.9167 2.4647
104.8200 34.9234 2.4604
104.8400 34.9300 2.4673
104.8600 34.9367 2.4694
104.8800 34.9434 2.4601
104.9000 34.9501 2.4724
104.9200 34.9568 2.4724
104.9400 34.9635 2.4642
104.9600 34.9702 2.4733
104.9800 34.9768 2.4721
105.0000 34.9834 2.4727
105.0200 34.9900 2.4733
105.0400 34.9967 2.4781
105.0600 35.0034 2.4738
105.0800 35.0101 2.4737
105.1000 35.0168 2.4804
105.1200 35.0235 2.4777
105.1400 35.0301 2.4731
105.1600 35.0368 2.4825
105.1800 35.0434 2.4806
105.2000 35.0500 2.4837
105.2200 35.0567 2.4852
105.2400 35.0634 2.4810
105.2600 35.0700 2.4802
105.2800 35.0767 2.4936
105.3000 35.0834 2.4822
105.3200 35.0901 2.4856
105.3400 35.0968 2.4971
105.3600 35.1034 2.4839
105.3800 35.1100 2.4882
105.4000 35.1166 2.5055
105.4200 35.1233 2.4853
105.4400 35.1301 2.4883
105.4600 35.1368 2.5034
105.4800 35.1434 2.4859
105.5000 35.1501 2.4959
105.5200 35.1568 2.5028
105.5400 35.1634 2.4932
105.5600 35.1700 2.4968
105.5800 35.1767 2.5069
105.6000 35.1834 2.4966
105.6200 35.1901 2.5043
105.6400 35.1968 2.5062
105.6600 35.2034 2.5021
105.6800 35.2101 2.5033
105.7000 35.2168 2.5109
105.7200 35.2234 2.5019
105.7400 35.2301 2.5090
105.7600 35.2367 2.5121
105.7800 35.2434 2.5097
105.8000 35.2501 2.5122
105.8200 35.2568 2.5162
105.8400 35.2635 2.5077
105.8600 35.2701 2.5179
105.8800 35.2768 2.5186
105.9000 35.2834 2.5102
105.9200 35.2900 2.5178
105.9400 35.2967 2.5235
105.9600 35.3034 2.5141
105.9800 35.3101 2.5188
106.0000 35.3168 2.5285
106.0200 35.3235 2.5149
106.0400 35.3301 2.5243
106.0600 35.3368 2.5295
106.0800 35.3434 2.5185
106.1000 35.3500 2.5264
106.1200 35.3566 2.5352
106.1400 35.3633 2.5270
106.1600 35.3700 2.5270
106.1800 35.3767 2.5343
106.2000 35.3834 2.5295
106.2200 35.3901 2.5289
106.2400 35.3968 2.5410
106.2600 35.4034 2.5246
106.2800 35.4100 2.5404
106.3000 35.4167 2.5397
106.3200 35.4233 2.5274
106.3400 35.4301 2.5412
106.3600 35.4368 2.5430
106.3800 35.4435 2.5318
106.4000 35.4502 2.5438
106.4200 35.4569 2.5431
106.4400 35.4635 2.5394
106.4600 35.4700 2.5448
106.4800 35.4767 2.5483
106.5000 35.4834 2.5432
106.5200 35.4901 2.5492
106.5400 35.4968 2.5461
106.5600 35.5035 2.5470
106.5800 35.5102 2.5526
106.6000 35.5168 2.5500
106.6200 35.5234 2.5503
106.6400 35.5300 2.5506
106.6600 35.5367 2.5554
106.6800 35.5434 2.5564
106.7000 35.5501 2.5596
106.7200 35.5567 2.5561
106.7400 35.5634 2.5624
106.7600 35.5701 2.5602
106.7800 35.5768 2.5607
106.8000 35.5834 2.5633
106.8200 35.5900 2.5584
106.8400 35.5966 2.5633
106.8600 35.6033 2.5676
106.8800 35.6100 2.5621
106.9000 35.6167 2.5668
106.9200 35.6234 2.5680
106.9400 35.6301 2.5689
106.9600 35.6368 2.5650
106.9800 35.6434 2.5755
107.0000 35.6500 2.5704
107.0200 35.6567 2.5717
107.0400 35.6634 2.5769
107.0600 35.6701 2.5698
107.0800 35.6768 2.5791
107.1000 35.6835 2.5785
107.1200 35.6901 2.5752
107.1400 35.6968 2.5760
107.1600 35.7035 2.5805
107.1800 35.7101 2.5773
107.2000 35.7167 2.5798
107.2200 35.7234 2.5894
107.2400 35.7301 2.5757
107.2600 35.7368 2.5797
107.2800 35.7435 2.5960
107.3000 35.7502 2.5738
107.3200 35.7568 2.5873
107.3400 35.7635 2.5926
107.3600 35.7700 2.5816
107.3800 35.7766 2.5946
107.4000 35.7833 2.5982
107.4200 35.7900 2.5795
107.4400 35.7968 2.5994
107.4600 35.8034 2.5989
107.4800 35.8101 2.5798
107.5000 35.8168 2.6036
107.5200 35.8234 2.6048
107.5400 35.8300 2.5870
107.5600 35.8366 2.6069
107.5800 35.8433 2.6056
107.6000 35.8500 2.5931
107.6200 35.8567 2.6083
107.6400 35.8634 2.6063
107.6600 35.8701 2.5994
107.6800 35.8768 2.6093
107.7000 35.8834 2.6097
107.7200 35.8901 2.6031
107.7400 35.8967 2.6113
107.7600 35.9034 2.6127
107.7800 35.9101 2.6109
107.8000 35.9168 2.6116
107.8200 35.9234 2.6156
107.8400 35.9301 2.6128
107.8600 35.9368 2.6076
107.8800 35.9435 2.6169
107.9000 35.9501 2.6196
107.9200 35.9567 2.6120
107.9400 35.9634 2.6301
107.9600 35.9701 2.6131
107.9800 35.9768 2.6156
108.0000 35.9835 2.6297
108.0200 35.9901 2.6216
108.0400 35.9968 2.6188
108.0600 36.0035 2.6346
108.0800 36.0101 2.6208
108.1000 36.0167 2.6214
108.1200 36.0234 2.6389
108.1400 36.0301 2.6233
108.1600 36.0368 2.6257
108.1800 36.0434 2.6453
108.2000 36.0501 2.6244
108.2200 36.0568 2.6309
108.2400 36.0634 2.6462
108.2600 36.0700 2.6299
108.2800 36.0766 2.6373
108.3000 36.0833 2.6471
108.3200 36.0900 2.6365
108.3400 36.0967 2.6353
108.3600 36.1034 2.6479
108.3800 36.1101 2.6359
108.4000 36.1168 2.6437
108.4200 36.1235 2.6493
108.4400 36.1301 2.6438
108.4600 36.1367 2.6468
108.4800 36.1433 2.6526
108.5000 36.1501 2.6499
108.5200 36.1568 2.6468
108.5400 36.1635 2.6528
108.5600 36.1702 2.6545
108.5800 36.1768 2.6441
108.6000 36.1835 2.6611
108.6200 36.1901 2.6557
108.6400 36.1967 2.6544
108.6600 36.2034 2.6588
108.6800 36.2101 2.6607
108.7000 36.2168 2.6572
108.7200 36.2234 2.6629
108.7400 36.2301 2.6622
108.7600 36.2368 2.6576
108.7800 36.2434 2.6716
108.8000 36.2500 2.6651
108.8200 36.2567 2.6576
108.8400 36.2633 2.6747
108.8600 36.2700 2.6666
108.8800 36.2767 2.6654
108.9000 36.2834 2.6782
108.9200 36.2901 2.6681
108.9400 36.2968 2.6701
108.9600 36.3035 2.6789
108.9800 36.3101 2.6695
109.0000 36.3167 2.6750
109.0200 36.3233 2.6895
109.0400 36.3300 2.6733
109.0600 36.3368 2.6764
109.0800 36.3434 2.6883
109.1000 36.3501 2.6797
109.1200 36.3568 2.6801
109.1400 36.3634 2.6906
109.1600 36.3700 2.6828
109.1800 36.3767 2.6840
109.2000 36.3833 2.6917
109.2200 36.3901 2.6899
109.2400 36.3968 2.6839
109.2600 36.4035 2.6957
109.2800 36.4101 2.6894
109.3000 36.4168 2.6899
109.3200 36.4235 2.6973
109.3400 36.4301 2.6939
109.3600 36.4367 2.6936
109.3800 36.4434 2.6980
109.4000 36.4501 2.7012
109.4200 36.4568 2.6972
109.4400 36.4635 2.7038
109.4600 36.4702 2.6983
109.4800 36.4768 2.7005
109.5000 36.4835 2.7100
109.5200 36.4901 2.7057
109.5400 36.4967 2.7062
109.5600 36.5033 2.7149
109.5800 36.5100 2.7032
109.6000 36.5167 2.7034
109.6200 36.5234 2.7166
109.6400 36.5301 2.7146
109.6600 36.5368 2.7077
109.6800 36.5434 2.7198
109.7000 36.5501 2.7110
109.7200 36.5567 2.7137
109.7400 36.5633 2.7274
109.7600 36.5700 2.7139
109.7800 36.5767 2.7116
109.8000 36.5834 2.7274
109.8200 36.5901 2.7189
109.8400 36.5968 2.7180
109.8600 36.6034 2.7350
109.8800 36.6101 2.7191
109.9000 36.6167 2.7196
109.9200 36.6234 2.7363
109.9400 36.6301 2.7229
109.9600 36.6368 2.7246
109.9800 36.6434 2.7428
110.0000 36.6501 2.7264
110.0200 36.6568 2.7316
110.0400 36.6635 2.7428
110.0600 36.6701 2.7302
110.0800 36.6767 2.7365
110.1000 36.6833 2.7473
110.1200 36.6900 2.7320
110.1400 36.6968 2.7394
110.1600 36.7035 2.7456
110.1800 36.7101 2.7372
110.2000 36.7168 2.7440
110.2200 36.7235 2.7490
110.2400 36.7301 2.7381
110.2600 36.7367 2.7536
110.2800 36.7434 2.7547
110.3000 36.7500 2.7417
110.3200 36.7567 2.7544
110.3400 36.7634 2.7545
110.3600 36.7701 2.7499
110.3800 36.7768 2.7601
110.4000 36.7835 2.7506
110.4200 36.7901 2.7580
110.4400 36.7967 2.7607
110.4600 36.8033 2.7508
110.4800 36.8100 2.7630
110.5000 36.8167 2.7632
110.5200 36.8234 2.7559
110.5400 36.8301 2.7661
110.5600 36.8368 2.7675
110.5800 36.8434 2.7553
110.6000 36.8500 2.7751
110.6200 36.8567 2.7679
110.6400 36.8633 2.7638
110.6600 36.8700 2.7781
110.6800 36.8768 2.7721
110.7000 36.8835 2.7675
110.7200 36.8901 2.7839
110.7400 36.8968 2.7732
110.7600 36.9035 2.7734
110.7800 36.9101 2.7774
110.8000 36.9168 2.7797
110.8200 36.9234 2.7778
110.8400 36.9301 2.7867
110.8600 36.9368 2.7788
110.8800 36.9435 2.7819
110.9000 36.9501 2.7887
110.9200 36.9568 2.7807
110.9400 36.9635 2.7882
110.9600 36.9701 2.7893
110.9800 36.9767 2.7902
111.0000 36.9833 2.7943
111.0200 36.9900 2.7903
111.0400 36.9967 2.7964
111.0600 37.0034 2.7974
111.0800 37.0101 2.7908
111.1000 37.0168 2.7996
111.1200 37.0234 2.7963
111.1400 37.0301 2.7965
111.1600 37.0367 2.8032
111.1800 37.0433 2.8035
111.2000 37.0500 2.7964
111.2200 37.0568 2.8126
111.2400 37.0634 2.8003
111.2600 37.0701 2.8072
111.2800 37.0768 2.8110
111.3000 37.0835 2.8033
111.3200 37.0901 2.8093
111.3400 37.0967 2.8198
111.3600 37.1034 2.8035
111.3800 37.1101 2.8148
111.4000 37.1168 2.8195
111.4200 37.1234 2.8081
111.4400 37.1301 2.8212
111.4600 37.1368 2.8222
111.4800 37.1435 2.8102
111.5000 37.1501 2.8287
111.5200 37.1567 2.8218
111.5400 37.1633 2.8171
111.5600 37.1700 2.8340
111.5800 37.1767 2.8221
111.6000 37.1835 2.8196
111.6200 37.1901 2.8334
111.6400 37.1968 2.8304
111.6600 37.2035 2.8233
111.6800 37.2101 2.8345
111.7000 37.2167 2.8323
111.7200 37.2233 2.8313
111.7400 37.2300 2.8371
111.7600 37.2367 2.8407
111.7800 37.2434 2.8334
111.8000 37.2501 2.8347
111.8200 37.2568 2.8472
111.8400 37.2635 2.8423
111.8600 37.2701 2.8426
111.8800 37.2767 2.8511
111.9000 37.2833 2.8348
111.9200 37.2900 2.8487
111.9400 37.2967 2.8542
111.9600 37.3034 2.8419
111.9800 37.3101 2.8485
112.0000 37.3168 2.8561
112.0200 37.3235 2.8429
112.0400 37.3301 2.8514
112.0600 37.3367 2.8624
112.0800 37.3433 2.8477
112.1000 37.3500 2.8593
112.1200 37.3568 2.8635
112.1400 37.3635 2.8521
112.1600 37.3701 2.8623
112.1800 37.3768 2.8637
112.2000 37.3835 2.8578
112.2200 37.3901 2.8658
112.2400 37.3967 2.8647
112.2600 37.4033 2.8644
112.2800 37.4100 2.8702
112.3000 37.4167 2.8736
112.3200 37.4235 2.8634
112.3400 37.4301 2.8762
112.3600 37.4368 2.8724
112.3800 37.4435 2.8730
112.4000 37.4501 2.8751
112.4200 37.4567 2.8770
112.4400 37.4633 2.8768
112.4600 37.4700 2.8792
112.4800 37.4767 2.8827
112.5000 37.4834 2.8835
112.5200 37.4901 2.8802
112.5400 37.4968 2.8871
112.5600 37.5035 2.8831
112.5800 37.5101 2.8877
112.6000 37.5167 2.8900
112.6200 37.5233 2.8856
112.6400 37.5300 2.8901
112.6600 37.5367 2.8965
112.6800 37.5434 2.8926
112.7000 37.5501 2.8871
112.7200 37.5568 2.9014
112.7400 37.5634 2.8955
112.7600 37.5701 2.8944
112.7800 37.5767 2.9022
112.8000 37.5833 2.8996
112.8200 37.5900 2.8954
112.8400 37.5968 2.9056
112.8600 37.6034 2.9030
112.8800 37.6101 2.9054
112.9000 37.6168 2.9176
112.9200 37.6235 2.9010
112.9400 37.6302 2.8987
112.9600 37.6368 2.9196
112.9800 37.6434 2.9059
113.0000 37.6500 2.9144
113.0200 37.6567 2.9195
113.0400 37.6634 2.9112
113.0600 37.6701 2.9144
113.0800 37.6768 2.9211
113.1000 37.6835 2.9143
113.1200 37.6901 2.9212
113.1400 37.6967 2.9238
113.1600 37.7033 2.9211
113.1800 37.7100 2.9242
113.2000 37.7167 2.9275
113.2200 37.7234 2.9269
113.2400 37.7301 2.9244
113.2600 37.7368 2.9295
113.2800 37.7435 2.9308
113.3000 37.7501 2.9284
113.3200 37.7567 2.9365
113.3400 37.7633 2.9356
113.3600 37.7700 2.9376
113.3800 37.7767 2.9395
113.4000 37.7834 2.9329
113.4200 37.7901 2.9395
113.4400 37.7967 2.9395
113.4600 37.8034 2.9427
113.4800 37.8101 2.9385
113.5000 37.8167 2.9470
113.5200 37.8234 2.9486
113.5400 37.8300 2.9446
113.5600 37.8367 2.9496
113.5800 37.8434 2.9518
113.6000 37.8501 2.9476
113.6200 37.8568 2.9539
113.6400 37.8635 2.9512
113.6600 37.8701 2.9577
113.6800 37.8767 2.9539
113.7000 37.8834 2.9565
113.7200 37.8900 2.9610
113.7400 37.8968 2.9574
113.7600 37.9035 2.9635
113.7800 37.9101 2.9587
113.8000 37.9168 2.9642
113.8200 37.9235 2.9726
113.8400 37.9301 2.9652
113.8600 37.9368 2.9670
113.8800 37.9434 2.9768
113.9000 37.9500 2.9648
113.9200 37.9567 2.9734
113.9400 37.9634 2.9785
113.9600 37.9701 2.9717
113.9800 37.9768 2.9783
114.0000 37.9834 2.9809
114.0200 37.9901 2.9734
114.0400 37.9967 2.9840
114.0600 38.0033 2.9839
114.0800 38.0100 2.9842
114.1000 38.0167 2.9820
114.1200 38.0234 2.9855
114.1400 38.0300 2.9858
114.1600 38.0367 2.9925
114.1800 38.0434 2.9898
114.2000 38.0501 2.9901
114.2200 38.0567 2.9938
114.2400 38.0634 2.9939
114.2600 38.0700 2.9945
114.2800 38.0768 2.9947
114.3000 38.0835 3.0010
114.3200 38.0902 2.9954
114.3400 38.0968 2.9954
114.3600 38.1035 3.0065
114.3800 38.1101 2.9994
114.4000 38.1167 3.0023
114.4200 38.1234 3.0111
114.4400 38.1300 3.0028
114.4600 38.1367 3.0047
114.4800 38.1434 3.0139
114.5000 38.1501 3.0107
114.5200 38.1568 3.0053
114.5400 38.1635 3.0222
114.5600 38.1702 3.0096
114.5800 38.1768 3.0114
114.6000 38.1834 3.0219
114.6200 38.1900 3.0204
114.6400 38.1967 3.0168
114.6600 38.2034 3.0280
114.6800 38.2101 3.0203
114.7000 38.2168 3.0222
114.7200 38.2235 3.0340
114.7400 38.2301 3.0252
114.7600 38.2367 3.0206
114.7800 38.2433 3.0417
114.8000 38.2500 3.0291
114.8200 38.2567 3.0276
114.8400 38.2634 3.0424
114.8600 38.2701 3.0312
114.8800 38.2767 3.0312
114.9000 38.2834 3.0489
114.9200 38.2901 3.0306
114.9400 38.2967 3.0389
114.9600 38.3033 3.0542
114.9800 38.3100 3.0326
115.0000 38.3167 3.0456
115.0200 38.3234 3.0559
115.0400 38.3301 3.0393
115.0600 38.3368 3.0489
115.0800 38.3435 3.0607
115.1000 38.3502 3.0452
115.1200 38.3568 3.0489
115.1400 38.3634 3.0608
115.1600 38.3700 3.0509
115.1800 38.3767 3.0556
115.2000 38.3834 3.0649
115.2200 38.3901 3.0563
115.2400 38.3968 3.0564
115.2600 38.4035 3.0701
115.2800 38.4101 3.0645
115.3000 38.4167 3.0561
115.3200 38.4233 3.0727
115.3400 38.4300 3.0728
115.3600 38.4367 3.0635
115.3800 38.4434 3.0722
115.4000 38.4501 3.0721
115.4200 38.4567 3.0703
115.4400 38.4634 3.0800
115.4600 38.4701 3.0740
115.4800 38.4767 3.0753
115.5000 38.4834 3.0840
115.5200 38.4900 3.0784
115.5400 38.4967 3.0822
115.5600 38.5034 3.0873
115.5800 38.5101 3.0836
115.6000 38.5168 3.0828
115.6200 38.5235 3.0935
115.6400 38.5301 3.0848
115.6600 38.5368 3.0875
115.6800 38.5434 3.0955
115.7000 38.5500 3.0908
115.7200 38.5567 3.0939
115.7400 38.5634 3.1017
115.7600 38.5701 3.0937
115.7800 38.5768 3.0952
115.8000 38.5835 3.1044
115.8200 38.5901 3.0974
115.8400 38.5968 3.1020
115.8600 38.6034 3.1156
115.8800 38.6100 3.1000
115.9000 38.6167 3.1065
115.9200 38.6234 3.1112
115.9400 38.6301 3.1049
115.9600 38.6368 3.1091
115.9800 38.6435 3.1200
116.0000 38.6502 3.1097
116.0200 38.6568 3.1104
116.0400 38.6634 3.1236
116.0600 38.6701 3.1161
116.0800 38.6767 3.1211
116.1000 38.6834 3.1241
116.1200 38.6901 3.1171
116.1400 38.6968 3.1206
116.1600 38.7035 3.1320
116.1800 38.7101 3.1224
116.2000 38.7168 3.1237
116.2200 38.7234 3.1339
116.2400 38.7300 3.1308
116.2600 38.7367 3.1253
116.2800 38.7434 3.1366
116.3000 38.7501 3.1344
116.3200 38.7568 3.1328
116.3400 38.7634 3.1346
116.3600 38.7701 3.1417
116.3800 38.7768 3.1392
116.4000 38.7834 3.1473
116.4200 38.7900 3.1443
116.4400 38.7967 3.1422
116.4600 38.8034 3.1484
116.4800 38.8101 3.1455
116.5000 38.8168 3.1470
116.5200 38.8234 3.1532
116.5400 38.8301 3.1504
116.5600 38.8368 3.1507
116.5800 38.8434 3.1550
116.6000 38.8500 3.1618
116.6200 38.8567 3.1531
116.6400 38.8634 3.1581
116.6600 38.8701 3.1636
116.6800 38.8768 3.1543
116.7000 38.8835 3.1659
116.7200 38.8902 3.1684
116.7400 38.8968 3.1625
116.7600 38.9034 3.1675
116.7800 38.9100 3.1734
116.8000 38.9167 3.1696
116.8200 38.9234 3.1714
116.8400 38.9301 3.1765
116.8600 38.9368 3.1734
116.8800 38.9435 3.1775
116.9000 38.9501 3.1805
116.9200 38.9568 3.1763
116.9400 38.9634 3.1797
116.9600 38.9700 3.1857
116.9800 38.9767 3.1866
117.0000 38.9834 3.1790
117.0200 38.9901 3.1899
117.0400 38.9967 3.1879
117.0600 39.0034 3.1901
117.0800 39.0101 3.1956
117.1000 39.0168 3.1866
117.1200 39.0234 3.1915
117.1400 39.0300 3.1997
117.1600 39.0367 3.1952
117.1800 39.0434 3.1961
117.2000 39.0501 3.2040
117.2200 39.0568 3.1970
117.2400 39.0635 3.2000
117.2600 39.0702 3.2060
117.2800 39.0768 3.2023
117.3000 39.0834 3.2061
117.3200 39.0900 3.2115
117.3400 39.0967 3.2038
117.3600 39.1034 3.2134
117.3800 39.1101 3.2102
117.4000 39.1168 3.2130
117.4200 39.1235 3.2153
117.4400 39.1301 3.2173
117.4600 39.1368 3.2149
117.4800 39.1434 3.2240
117.5000 39.1500 3.2206
117.5200 39.1567 3.2227
117.5400 39.1634 3.2270
117.5600 39.1701 3.2240
117.5800 39.1768 3.2311
117.6000 39.1834 3.2332
117.6200 39.1901 3.2243
117.6400 39.1968 3.2341
117.6600 39.2034 3.2288
117.6800 39.2100 3.2393
117.7000 39.2166 3.2430
117.7200 39.2234 3.2329
117.7400 39.2301 3.2369
117.7600 39.2368 3.2472
117.7800 39.2435 3.2348
117.8000 39.2501 3.2427
117.8200 39.2568 3.2531
117.8400 39.2634 3.2407
117.8600 39.2700 3.2508
117.8800 39.2767 3.2520
117.9000 39.2834 3.2419
117.9200 39.2901 3.2583
117.9400 39.2968 3.2590
117.9600 39.3035 3.2425
117.9800 39.3101 3.2640
118.0000 39.3168 3.2592
118.0200 39.3235 3.2506
118.0400 39.3301 3.2687
118.0600 39.3367 3.2647
118.0800 39.3434 3.2562
118.1000 39.3501 3.2707
118.1200 39.3568 3.2673
118.1400 39.3635 3.2602
118.1600 39.3701 3.2778
118.1800 39.3768 3.2667
118.2000 39.3834 3.2654
118.2200 39.3900 3.2823
118.2400 39.3967 3.2741
118.2600 39.4034 3.2719
118.2800 39.4101 3.2828
118.3000 39.4168 3.2786
118.3200 39.4235 3.2783
118.3400 39.4301 3.2873
118.3600 39.4368 3.2854
118.3800 39.4434 3.2798
118.4000 39.4500 3.2906
118.4200 39.4566 3.2967
118.4400 39.4633 3.2878
118.4600 39.4701 3.2863
118.4800 39.4767 3.2993
118.5000 39.4834 3.2899
118.5200 39.4901 3.2983
118.5400 39.4967 3.3002
118.5600 39.5034 3.2947
118.5800 39.5100 3.3044
118.6000 39.5167 3.3082
118.6200 39.5234 3.2991
118.6400 39.5301 3.3064
118.6600 39.5368 3.3134
118.6800 39.5435 3.3035
118.7000 39.5502 3.3068
118.7200 39.5568 3.3223
118.7400 39.5634 3.3074
118.7600 39.5700 3.3127
118.7800 39.5767 3.3226
118.8000 39.5834 3.3147
118.8200 39.5901 3.3182
118.8400 39.5968 3.3210
118.8600 39.6035 3.3208
118.8800 39.6102 3.3258
118.9000 39.6168 3.3278
118.9200 39.6234 3.3235
118.9400 39.6300 3.3326
118.9600 39.6367 3.3343
118.9800 39.6434 3.3317
119.0000 39.6501 3.3287
119.0200 39.6568 3.3381
119.0400 39.6634 3.3334
119.0600 39.6701 3.3371
119.0800 39.6768 3.3426
119.1000 39.6834 3.3412
119.1200 39.6900 3.3424
119.1400 39.6967 3.3519
119.1600 39.7034 3.3380
119.1800 39.7101 3.3468
119.2000 39.7167 3.3530
119.2200 39.7234 3.3465
119.2400 39.7301 3.3477
119.2600 39.7367 3.3600
119.2800 39.7434 3.3491
119.3000 39.7500 3.3572
119.3200 39.7567 3.3651
119.3400 39.7634 3.3579
119.3600 39.7701 3.3603
119.3800 39.7768 3.3649
119.4000 39.7835 3.3612
119.4200 39.7902 3.3622
119.4400 39.7968 3.3711
119.4600 39.8034 3.3675
119.4800 39.8100 3.3683
119.5000 39.8167 3.3775
119.5200 39.8234 3.3715
119.5400 39.8301 3.3700
119.5600 39.8368 3.3844
119.5800 39.8435 3.3735
119.6000 39.8502 3.3728
119.6200 39.8568 3.3907
119.6400 39.8634 3.3799
119.6600 39.8700 3.3782
119.6800 39.8767 3.3979
119.7000 39.8834 3.3796
119.7200 39.8901 3.3849
119.7400 39.8968 3.4028
119.7600 39.9034 3.3822
119.7800 39.9101 3.3873
119.8000 39.9168 3.4107
119.8200 39.9234 3.3835
119.8400 39.9300 3.3974
119.8600 39.9366 3.4153
119.8800 39.9433 3.3901
119.9000 39.9501 3.4025
119.9200 39.9567 3.4157
119.9400 39.9634 3.3951
119.9600 39.9701 3.4086
119.9800 39.9768 3.4177
120.0000 39.9834 3.3964
120.0200 39.9900 3.4173
120.0400 39.9967 3.4218
120.0510 40.0003 3.3949
