Raw Data
Time Displacement Force
(s) (mm) (N)
0.0000 0.0001 -0.3966
0.0200 0.0001 -0.3793
0.0400 0.0009 -0.3387
0.0600 0.0041 -0.3036
0.0800 0.0095 -0.3309
0.1000 0.0153 -0.3336
0.1200 0.0212 -0.2826
0.1400 0.0279 -0.2695
0.1600 0.0352 -0.2569
0.1800 0.0427 -0.2079
0.2000 0.0498 -0.1751
0.2200 0.0567 -0.1544
0.2400 0.0634 -0.1098
0.2600 0.0700 -0.0725
0.2800 0.0767 -0.0518
0.3000 0.0834 -0.0098
0.3200 0.0901 0.0137
0.3400 0.0969 0.0514
0.3600 0.1035 0.0842
0.3800 0.1102 0.1093
0.4000 0.1168 0.1449
0.4200 0.1235 0.1755
0.4400 0.1302 0.1921
0.4600 0.1369 0.2222
0.4800 0.1436 0.2425
0.5000 0.1503 0.2636
0.5200 0.1570 0.2783
0.5400 0.1636 0.2845
0.5600 0.1702 0.3005
0.5800 0.1768 0.3293
0.6000 0.1835 0.3362
0.6200 0.1902 0.3537
0.6400 0.1969 0.3556
0.6600 0.2036 0.3681
0.6800 0.2103 0.4224
0.7000 0.2169 0.4623
0.7200 0.2236 0.4999
0.7400 0.2302 0.5602
0.7600 0.2368 0.5936
0.7800 0.2435 0.6195
0.8000 0.2502 0.6775
0.8200 0.2569 0.7134
0.8400 0.2635 0.7308
0.8600 0.2702 0.7510
0.8800 0.2769 0.7421
0.9000 0.2835 0.7390
0.9200 0.2901 0.7592
0.9400 0.2967 0.7416
0.9600 0.3034 0.7411
0.9800 0.3101 0.7595
1.0000 0.3168 0.7490
1.0200 0.3235 0.7436
1.0400 0.3302 0.7618
1.0600 0.3369 0.7490
1.0800 0.3435 0.7459
1.1000 0.3501 0.7660
1.1200 0.3568 0.7531
1.1400 0.3635 0.7480
1.1600 0.3702 0.7637
1.1800 0.3769 0.7576
1.2000 0.3836 0.7520
1.2200 0.3903 0.7663
1.2400 0.3970 0.7622
1.2600 0.4036 0.7521
1.2800 0.4102 0.7631
1.3000 0.4168 0.7614
1.3200 0.4235 0.7600
1.3400 0.4302 0.7612
1.3600 0.4369 0.7511
1.3800 0.4436 0.7619
1.4000 0.4503 0.7675
1.4200 0.4570 0.7545
1.4400 0.4636 0.7535
1.4600 0.4701 0.7658
1.4800 0.4767 0.7558
1.5000 0.4834 0.7580
1.5200 0.4901 0.7609
1.5400 0.4968 0.7502
1.5600 0.5035 0.7549
1.5800 0.5102 0.7612
1.6000 0.5169 0.7510
1.6200 0.5235 0.7523
1.6400 0.5301 0.7574
1.6600 0.5368 0.7448
1.6800 0.5435 0.7452
1.7000 0.5502 0.7593
1.7200 0.5569 0.7446
1.7400 0.5635 0.7415
1.7600 0.5702 0.7446
1.7800 0.5769 0.7483
1.8000 0.5835 0.7420
1.8200 0.5902 0.7377
1.8400 0.5968 0.7392
1.8600 0.6035 0.7362
1.8800 0.6102 0.7441
1.9000 0.6169 0.7365
1.9200 0.6236 0.7346
1.9400 0.6303 0.7370
1.9600 0.6369 0.7313
1.9800 0.6436 0.7282
2.0000 0.6502 0.7323
2.0200 0.6568 0.7352
2.0400 0.6635 0.7309
2.0600 0.6702 0.7173
2.0800 0.6769 0.7272
2.1000 0.6836 0.7270
2.1200 0.6902 0.7130
2.1400 0.6969 0.7288
2.1600 0.7036 0.7265
2.1800 0.7102 0.7029
2.2000 0.7168 0.7221
2.2200 0.7235 0.7224
2.2400 0.7302 0.7093
2.2600 0.7369 0.7264
2.2800 0.7435 0.7128
2.3000 0.7502 0.6978
2.3200 0.7569 0.7219
2.3400 0.7636 0.7197
2.3600 0.7702 0.7055
2.3800 0.7768 0.7171
2.4000 0.7835 0.6957
2.4200 0.7901 0.7041
2.4400 0.7968 0.7236
2.4600 0.8035 0.6984
2.4800 0.8102 0.6992
2.5000 0.8169 0.7115
2.5200 0.8236 0.6878
2.5400 0.8302 0.7097
2.5600 0.8368 0.7139
2.5800 0.8435 0.6875
2.6000 0.8502 0.6937
2.6200 0.8569 0.7014
2.6400 0.8636 0.6929
2.6600 0.8703 0.7034
2.6800 0.8769 0.6913
2.7000 0.8836 0.6825
2.7200 0.8902 0.6983
2.7400 0.8968 0.6983
2.7600 0.9035 0.6890
2.7800 0.9102 0.6928
2.8000 0.9169 0.6848
2.8200 0.9236 0.6880
2.8400 0.9303 0.7016
2.8600 0.9369 0.6833
2.8800 0.9436 0.6831
2.9000 0.9502 0.6886
2.9200 0.9568 0.6804
2.9400 0.9634 0.6866
2.9600 0.9701 0.6906
2.9800 0.9768 0.6758
3.0000 0.9835 0.6845
3.0200 0.9902 0.6835
3.0400 0.9969 0.6703
3.0600 1.0036 0.6836
3.0800 1.0102 0.6866
3.1000 1.0168 0.6737
3.1200 1.0234 0.6915
3.1400 1.0301 0.6678
3.1600 1.0369 0.6643
3.1800 1.0435 0.6976
3.2000 1.0502 0.6787
3.2200 1.0569 0.6584
3.2400 1.0635 0.6795
3.2600 1.0702 0.6674
3.2800 1.0768 0.6729
3.3000 1.0835 0.6947
3.3200 1.0902 0.6597
3.3400 1.0969 0.6583
3.3600 1.1036 0.6797
3.3800 1.1103 0.6607
3.4000 1.1170 0.6777
3.4200 1.1236 0.6837
3.4400 1.1303 0.6426
3.4600 1.1368 0.6651
3.4800 1.1435 0.6878
3.5000 1.1502 0.6638
3.5200 1.1569 0.6632
3.5400 1.1636 0.6704
3.5600 1.1703 0.6489
3.5800 1.1769 0.6759
3.6000 1.1836 0.6713
3.6200 1.1902 0.6442
3.6400 1.1968 0.6623
3.6600 1.2035 0.6767
3.6800 1.2102 0.6535
3.7000 1.2169 0.6656
3.7200 1.2236 0.6653
3.7400 1.2302 0.6437
3.7600 1.2369 0.6620
3.7800 1.2436 0.6711
3.8000 1.2502 0.6518
3.8200 1.2568 0.6497
3.8400 1.2635 0.6606
3.8600 1.2702 0.6547
3.8800 1.2769 0.6588
3.9000 1.2835 0.6606
3.9200 1.2902 0.6479
3.9400 1.2969 0.6490
3.9600 1.3036 0.6598
3.9800 1.3102 0.6508
4.0000 1.3168 0.6475
4.0200 1.3235 0.6568
4.0400 1.3301 0.6514
4.0600 1.3368 0.6413
4.0800 1.3435 0.6582
4.1000 1.3502 0.6455
4.1200 1.3569 0.6401
4.1400 1.3636 0.6560
4.1600 1.3702 0.6466
4.1800 1.3768 0.6389
4.2000 1.3835 0.6542
4.2200 1.3902 0.6421
4.2400 1.3969 0.6379
4.2600 1.4036 0.6558
4.2800 1.4103 0.6361
4.3000 1.4169 0.6320
4.3200 1.4236 0.6566
4.3400 1.4302 0.6336
4.3600 1.4368 0.6314
4.3800 1.4435 0.6538
4.4000 1.4502 0.6353
4.4200 1.4569 0.6263
4.4400 1.4635 0.6550
4.4600 1.4702 0.6279
4.4800 1.4769 0.6204
4.5000 1.4836 0.6525
4.5200 1.4902 0.6267
4.5400 1.4968 0.6239
4.5600 1.5034 0.6482
4.5800 1.5101 0.6246
4.6000 1.5168 0.6260
4.6200 1.5236 0.6477
4.6400 1.5302 0.6201
4.6600 1.5369 0.6238
4.6800 1.5436 0.6411
4.7000 1.5502 0.6165
4.7200 1.5568 0.6202
4.7400 1.5635 0.6453
4.7600 1.5702 0.6141
4.7800 1.5769 0.6207
4.8000 1.5836 0.6351
4.8200 1.5903 0.6138
4.8400 1.5970 0.6174
4.8600 1.6036 0.6319
4.8800 1.6102 0.6094
4.9000 1.6168 0.6142
4.9200 1.6235 0.6311
4.9400 1.6301 0.6066
4.9600 1.6369 0.6128
4.9800 1.6436 0.6315
5.0000 1.6503 0.6067
5.0200 1.6569 0.6044
5.0400 1.6636 0.6252
5.0600 1.6702 0.6023
5.0800 1.6768 0.6067
5.1000 1.6834 0.6176
5.1200 1.6901 0.6073
5.1400 1.6968 0.6053
5.1600 1.7035 0.6132
5.1800 1.7102 0.6013
5.2000 1.7169 0.6137
5.2200 1.7236 0.6033
5.2400 1.7302 0.5951
5.2600 1.7368 0.6045
5.2800 1.7434 0.6118
5.3000 1.7501 0.5994
5.3200 1.7569 0.6007
5.3400 1.7635 0.6066
5.3600 1.7702 0.5994
5.3800 1.7768 0.6001
5.4000 1.7835 0.6052
5.4200 1.7902 0.6003
5.4400 1.7968 0.5948
5.4600 1.8035 0.6008
5.4800 1.8102 0.6040
5.5000 1.8169 0.5922
5.5200 1.8236 0.5967
5.5400 1.8303 0.6049
5.5600 1.8370 0.5932
5.5800 1.8436 0.5958
5.6000 1.8503 0.5993
5.6200 1.8568 0.5915
5.6400 1.8635 0.6016
5.6600 1.8702 0.6039
5.6800 1.8769 0.5882
5.7000 1.8836 0.6027
5.7200 1.8903 0.5955
5.7400 1.8969 0.5916
5.7600 1.9036 0.5975
5.7800 1.9102 0.5888
5.8000 1.9168 0.5866
5.8200 1.9234 0.6077
5.8400 1.9301 0.5917
5.8600 1.9368 0.5866
5.8800 1.9435 0.5994
5.9000 1.9502 0.5881
5.9200 1.9569 0.5942
5.9400 1.9635 0.5952
5.9600 1.9702 0.5931
5.9800 1.9768 0.5860
6.0000 1.9834 0.5856
6.0200 1.9901 0.5914
6.0400 1.9968 0.5971
6.0600 2.0035 0.5881
6.0800 2.0102 0.5845
6.1000 2.0169 0.5947
6.1200 2.0236 0.5880
6.1400 2.0302 0.5833
6.1600 2.0368 0.5977
6.1800 2.0434 0.5807
6.2000 2.0501 0.5819
6.2200 2.0569 0.5874
6.2400 2.0636 0.5860
6.2600 2.0703 0.5818
6.2800 2.0769 0.5888
6.3000 2.0836 0.5807
6.3200 2.0902 0.5810
6.3400 2.0968 0.5835
6.3600 2.1035 0.5860
6.3800 2.1102 0.5777
6.4000 2.1169 0.5779
6.4200 2.1236 0.5783
6.4400 2.1302 0.5758
6.4600 2.1369 0.5799
6.4800 2.1436 0.5792
6.5000 2.1503 0.5728
6.5200 2.1569 0.5710
6.5400 2.1635 0.5792
6.5600 2.1702 0.5796
6.5800 2.1768 0.5707
6.6000 2.1835 0.5710
6.6200 2.1902 0.5758
6.6400 2.1969 0.5634
6.6600 2.2036 0.5760
6.6800 2.2103 0.5703
6.7000 2.2168 0.5665
6.7200 2.2234 0.5665
6.7400 2.2301 0.5720
6.7600 2.2368 0.5658
6.7800 2.2435 0.5661
6.8000 2.2502 0.5709
6.8200 2.2569 0.5638
6.8400 2.2636 0.5580
6.8600 2.2702 0.5779
6.8800 2.2768 0.5639
6.9000 2.2835 0.5523
6.9200 2.2901 0.5673
6.9400 2.2968 0.5592
6.9600 2.3035 0.5575
6.9800 2.3102 0.5702
7.0000 2.3169 0.5567
7.0200 2.3236 0.5487
7.0400 2.3303 0.5623
7.0600 2.3369 0.5566
7.0800 2.3435 0.5562
7.1000 2.3502 0.5626
7.1200 2.3568 0.5524
7.1400 2.3635 0.5463
7.1600 2.3702 0.5609
7.1800 2.3769 0.5558
7.2000 2.3836 0.5560
7.2200 2.3903 0.5475
7.2400 2.3969 0.5530
7.2600 2.4035 0.5611
7.2800 2.4101 0.5539
7.3000 2.4169 0.5488
7.3200 2.4236 0.5540
7.3400 2.4303 0.5502
7.3600 2.4369 0.5488
7.3800 2.4436 0.5490
7.4000 2.4502 0.5511
7.4200 2.4568 0.5453
7.4400 2.4635 0.5439
7.4600 2.4701 0.5493
7.4800 2.4768 0.5519
7.5000 2.4835 0.5468
7.5200 2.4902 0.5443
7.5400 2.4968 0.5415
7.5600 2.5035 0.5407
7.5800 2.5102 0.5598
7.6000 2.5169 0.5434
7.6200 2.5235 0.5309
7.6400 2.5301 0.5468
7.6600 2.5369 0.5430
7.6800 2.5435 0.5381
7.7000 2.5502 0.5515
7.7200 2.5569 0.5345
7.7400 2.5636 0.5327
7.7600 2.5703 0.5514
7.7800 2.5769 0.5378
7.8000 2.5835 0.5318
7.8200 2.5901 0.5479
7.8400 2.5969 0.5361
7.8600 2.6036 0.5284
7.8800 2.6103 0.5451
7.9000 2.6169 0.5358
7.9200 2.6236 0.5202
7.9400 2.6303 0.5418
7.9600 2.6369 0.5432
7.9800 2.6435 0.5290
8.0000 2.6501 0.5387
8.0200 2.6568 0.5339
8.0400 2.6635 0.5206
8.0600 2.6702 0.5391
8.0800 2.6769 0.5438
8.1000 2.6836 0.5242
8.1200 2.6902 0.5271
8.1400 2.6969 0.5289
8.1600 2.7034 0.5304
8.1800 2.7101 0.5318
8.2000 2.7168 0.5331
8.2200 2.7235 0.5229
8.2400 2.7302 0.5217
8.2600 2.7369 0.5289
8.2800 2.7436 0.5265
8.3000 2.7503 0.5300
8.3200 2.7569 0.5279
8.3400 2.7635 0.5182
8.3600 2.7701 0.5253
8.3800 2.7768 0.5187
8.4000 2.7835 0.5265
8.4200 2.7902 0.5322
8.4400 2.7969 0.5206
8.4600 2.8036 0.5026
8.4800 2.8103 0.5325
8.5000 2.8169 0.5283
8.5200 2.8235 0.5034
8.5400 2.8302 0.5254
8.5600 2.8368 0.5219
8.5800 2.8435 0.5103
8.6000 2.8502 0.5188
8.6200 2.8569 0.5207
8.6400 2.8636 0.5057
8.6600 2.8703 0.5231
8.6800 2.8769 0.5124
8.7000 2.8835 0.5056
8.7200 2.8901 0.5308
8.7400 2.8968 0.5081
8.7600 2.9035 0.4951
8.7800 2.9102 0.5374
8.8000 2.9169 0.5195
8.8200 2.9236 0.4946
8.8400 2.9302 0.5145
8.8600 2.9368 0.5137
8.8800 2.9434 0.5046
8.9000 2.9501 0.5206
8.9200 2.9568 0.5083
8.9400 2.9635 0.5011
8.9600 2.9702 0.5092
8.9800 2.9769 0.5084
9.0000 2.9835 0.5054
9.0200 2.9902 0.5078
9.0400 2.9969 0.5063
9.0600 3.0035 0.5014
9.0800 3.0101 0.4994
9.1000 3.0168 0.5040
9.1200 3.0235 0.5057
9.1400 3.0302 0.5046
9.1600 3.0369 0.5032
9.1800 3.0436 0.4922
9.2000 3.0503 0.4958
9.2200 3.0569 0.5098
9.2400 3.0635 0.5033
9.2600 3.0701 0.4937
9.2800 3.0768 0.5027
9.3000 3.0835 0.4980
9.3200 3.0902 0.5022
9.3400 3.0969 0.4929
9.3600 3.1036 0.4988
9.3800 3.1103 0.4992
9.4000 3.1169 0.4909
9.4200 3.1235 0.4912
9.4400 3.1301 0.5047
9.4600 3.1368 0.4984
9.4800 3.1435 0.4833
9.5000 3.1502 0.4927
9.5200 3.1569 0.5045
9.5400 3.1636 0.4922
9.5600 3.1703 0.4843
9.5800 3.1769 0.4943
9.6000 3.1835 0.4996
9.6200 3.1901 0.4850
9.6400 3.1968 0.4848
9.6600 3.2035 0.4988
9.6800 3.2102 0.4858
9.7000 3.2169 0.4851
9.7200 3.2235 0.4868
9.7400 3.2302 0.4901
9.7600 3.2368 0.4907
9.7800 3.2435 0.4808
9.8000 3.2501 0.4861
9.8200 3.2568 0.4940
9.8400 3.2635 0.4816
9.8600 3.2703 0.4885
9.8800 3.2769 0.4846
9.9000 3.2836 0.4796
9.9200 3.2903 0.4823
9.9400 3.2969 0.4935
9.9600 3.3035 0.4759
9.9800 3.3101 0.4803
10.0000 3.3168 0.4882
10.0200 3.3236 0.4766
10.0400 3.3303 0.4787
10.0600 3.3369 0.4829
10.0800 3.3436 0.4733
10.1000 3.3502 0.4815
10.1200 3.3569 0.4833
10.1400 3.3635 0.4744
10.1600 3.3701 0.4813
10.1800 3.3768 0.4821
10.2000 3.3835 0.4753
10.2200 3.3902 0.4840
10.2400 3.3969 0.4784
10.2600 3.4036 0.4698
10.2800 3.4103 0.4808
10.3000 3.4169 0.4693
10.3200 3.4235 0.4795
10.3400 3.4301 0.4837
10.3600 3.4368 0.4692
10.3800 3.4435 0.4760
10.4000 3.4502 0.4781
10.4200 3.4569 0.4689
10.4400 3.4636 0.4846
10.4600 3.4702 0.4773
10.4800 3.4769 0.4627
10.5000 3.4835 0.4762
10.5200 3.4902 0.4727
10.5400 3.4968 0.4655
10.5600 3.5035 0.4854
10.5800 3.5102 0.4686
10.6000 3.5169 0.4628
10.6200 3.5236 0.4765
10.6400 3.5303 0.4659
10.6600 3.5369 0.4639
10.6800 3.5435 0.4735
10.7000 3.5502 0.4695
10.7200 3.5568 0.4592
10.7400 3.5635 0.4746
10.7600 3.5702 0.4669
10.7800 3.5769 0.4631
10.8000 3.5836 0.4723
10.8200 3.5903 0.4575
10.8400 3.5969 0.4576
10.8600 3.6035 0.4749
10.8800 3.6101 0.4589
10.9000 3.6168 0.4580
10.9200 3.6235 0.4741
10.9400 3.6302 0.4622
10.9600 3.6369 0.4504
10.9800 3.6436 0.4669
11.0000 3.6502 0.4588
11.0200 3.6569 0.4568
11.0400 3.6635 0.4657
11.0600 3.6701 0.4577
11.0800 3.6768 0.4547
11.1000 3.6835 0.4604
11.1200 3.6902 0.4550
11.1400 3.6969 0.4579
11.1600 3.7035 0.4609
11.1800 3.7102 0.4508
11.2000 3.7169 0.4556
11.2200 3.7235 0.4564
11.2400 3.7301 0.4543
11.2600 3.7368 0.4564
11.2800 3.7435 0.4577
11.3000 3.7502 0.4481
11.3200 3.7570 0.4505
11.3400 3.7637 0.4569
11.3600 3.7703 0.4498
11.3800 3.7770 0.4489
11.4000 3.7835 0.4532
11.4200 3.7901 0.4497
11.4400 3.7968 0.4496
11.4600 3.8035 0.4510
11.4800 3.8103 0.4521
11.5000 3.8170 0.4435
11.5200 3.8236 0.4502
11.5400 3.8303 0.4473
11.5600 3.8369 0.4445
11.5800 3.8435 0.4438
11.6000 3.8501 0.4343
11.6200 3.8568 0.4266
11.6400 3.8635 0.4321
11.6600 3.8702 0.4362
11.6800 3.8768 0.4282
11.7000 3.8835 0.4348
11.7200 3.8902 0.4378
11.7400 3.8969 0.4289
11.7600 3.9035 0.4375
11.7800 3.9101 0.4352
11.8000 3.9167 0.4255
11.8200 3.9234 0.4409
11.8400 3.9301 0.4334
11.8600 3.9368 0.4307
11.8800 3.9435 0.4345
11.9000 3.9502 0.4349
11.9200 3.9569 0.4283
11.9400 3.9635 0.4394
11.9600 3.9701 0.4310
11.9800 3.9768 0.4329
12.0000 3.9835 0.4362
12.0200 3.9903 0.4237
12.0400 3.9969 0.4311
12.0600 4.0036 0.4466
12.0800 4.0103 0.4190
12.1000 4.0169 0.4234
12.1200 4.0236 0.4405
12.1400 4.0302 0.4258
12.1600 4.0369 0.4239
12.1800 4.0435 0.4358
12.2000 4.0502 0.4273
12.2200 4.0569 0.4222
12.2400 4.0636 0.4338
12.2600 4.0703 0.4253
12.2800 4.0770 0.4188
12.3000 4.0836 0.4320
12.3200 4.0901 0.4333
12.3400 4.0968 0.4180
12.3600 4.1035 0.4206
12.3800 4.1102 0.4289
12.4000 4.1169 0.4244
12.4200 4.1236 0.4196
12.4400 4.1303 0.4292
12.4600 4.1369 0.4130
12.4800 4.1435 0.4170
12.5000 4.1501 0.4314
12.5200 4.1568 0.4248
12.5400 4.1635 0.4062
12.5600 4.1702 0.4218
12.5800 4.1769 0.4181
12.6000 4.1835 0.4174
12.6200 4.1902 0.4255
12.6400 4.1969 0.4072
12.6600 4.2035 0.4107
12.6800 4.2101 0.4312
12.7000 4.2168 0.4090
12.7200 4.2235 0.4044
12.7400 4.2302 0.4229
12.7600 4.2369 0.4082
12.7800 4.2436 0.4182
12.8000 4.2503 0.4155
12.8200 4.2570 0.3970
12.8400 4.2636 0.4230
12.8600 4.2702 0.4224
12.8800 4.2768 0.3947
12.9000 4.2835 0.4239
12.9200 4.2902 0.4120
12.9400 4.2969 0.3876
12.9600 4.3036 0.4300
12.9800 4.3103 0.4208
13.0000 4.3169 0.3698
13.0200 4.3236 0.4102
13.0400 4.3302 0.4433
13.0600 4.3368 0.3981
13.0800 4.3435 0.3798
13.1000 4.3502 0.4177
13.1200 4.3569 0.4127
13.1400 4.3636 0.4056
13.1600 4.3702 0.4071
13.1800 4.3769 0.3977
13.2000 4.3836 0.3889
13.2200 4.3901 0.4142
13.2400 4.3968 0.4307
13.2600 4.4034 0.3743
13.2800 4.4102 0.3905
13.3000 4.4168 0.4352
13.3200 4.4235 0.3830
13.3400 4.4302 0.3897
13.3600 4.4369 0.4198
13.3800 4.4436 0.3789
13.4000 4.4501 0.4034
13.4200 4.4568 0.4179
13.4400 4.4635 0.3763
13.4600 4.4702 0.4024
13.4800 4.4769 0.4072
13.5000 4.4836 0.3689
13.5200 4.4903 0.4269
13.5400 4.4970 0.3977
13.5600 4.5036 0.3589
13.5800 4.5102 0.4213
13.6000 4.5168 0.4016
13.6200 4.5235 0.3737
13.6400 4.5302 0.4161
13.6600 4.5369 0.3783
13.6800 4.5436 0.3778
13.7000 4.5502 0.4248
13.7200 4.5569 0.3846
13.7400 4.5635 0.3815
13.7600 4.5701 0.4044
13.7800 4.5768 0.3727
13.8000 4.5835 0.3945
13.8200 4.5902 0.4036
13.8400 4.5969 0.3695
13.8600 4.6036 0.3944
13.8800 4.6102 0.3879
13.9000 4.6169 0.3654
13.9200 4.6236 0.3985
13.9400 4.6301 0.3965
13.9600 4.6368 0.3661
13.9800 4.6435 0.3855
14.0000 4.6502 0.3926
14.0200 4.6569 0.3837
14.0400 4.6636 0.3857
14.0600 4.6702 0.3783
14.0800 4.6769 0.3796
14.1000 4.6835 0.3843
14.1200 4.6901 0.3731
14.1400 4.6968 0.3827
14.1600 4.7035 0.3827
14.1800 4.7102 0.3805
14.2000 4.7169 0.3764
14.2200 4.7235 0.3752
14.2400 4.7302 0.3783
14.2600 4.7368 0.3801
14.2800 4.7435 0.3705
14.3000 4.7502 0.3742
14.3200 4.7568 0.3813
14.3400 4.7635 0.3686
14.3600 4.7702 0.3826
14.3800 4.7769 0.3792
14.4000 4.7836 0.3646
14.4200 4.7903 0.3779
14.4400 4.7970 0.3773
14.4600 4.8036 0.3668
14.4800 4.8102 0.3779
14.5000 4.8168 0.3678
14.5200 4.8235 0.3659
14.5400 4.8302 0.3804
14.5600 4.8369 0.3722
14.5800 4.8435 0.3650
14.6000 4.8502 0.3750
14.6200 4.8569 0.3680
14.6400 4.8635 0.3664
14.6600 4.8701 0.3731
14.6800 4.8768 0.3717
14.7000 4.8835 0.3604
14.7200 4.8902 0.3698
14.7400 4.8968 0.3691
14.7600 4.9035 0.3586
14.7800 4.9102 0.3722
14.8000 4.9169 0.3704
14.8200 4.9236 0.3569
14.8400 4.9302 0.3683
14.8600 4.9368 0.3691
14.8800 4.9435 0.3597
14.9000 4.9502 0.3641
14.9200 4.9569 0.3677
14.9400 4.9636 0.3574
14.9600 4.9703 0.3651
14.9800 4.9770 0.3635
15.0000 4.9836 0.3476
15.0200 4.9901 0.3761
15.0400 4.9967 0.3649
15.0600 5.0034 0.3509
15.0800 5.0101 0.3647
15.1000 5.0169 0.3654
15.1200 5.0236 0.3456
15.1400 5.0303 0.3649
15.1600 5.0370 0.3637
15.1800 5.0436 0.3477
15.2000 5.0502 0.3579
15.2200 5.0568 0.3630
15.2400 5.0635 0.3529
15.2600 5.0702 0.3574
15.2800 5.0769 0.3539
15.3000 5.0836 0.3546
15.3200 5.0903 0.3547
15.3400 5.0969 0.3525
15.3600 5.1036 0.3530
15.3800 5.1102 0.3564
15.4000 5.1168 0.3490
15.4200 5.1234 0.3511
15.4400 5.1301 0.3600
15.4600 5.1368 0.3450
15.4800 5.1435 0.3502
15.5000 5.1502 0.3568
15.5200 5.1569 0.3492
15.5400 5.1635 0.3471
15.5600 5.1701 0.3527
15.5800 5.1768 0.3460
15.6000 5.1835 0.3485
15.6200 5.1902 0.3464
15.6400 5.1969 0.3508
15.6600 5.2036 0.3476
15.6800 5.2103 0.3397
15.7000 5.2169 0.3429
15.7200 5.2236 0.3512
15.7400 5.2302 0.3393
15.7600 5.2369 0.3514
15.7800 5.2435 0.3524
15.8000 5.2502 0.3263
15.8200 5.2569 0.3459
15.8400 5.2636 0.3531
15.8600 5.2702 0.3298
15.8800 5.2769 0.3476
15.9000 5.2836 0.3466
15.9200 5.2902 0.3236
15.9400 5.2968 0.3545
15.9600 5.3035 0.3449
15.9800 5.3102 0.3232
16.0000 5.3169 0.3503
16.0200 5.3236 0.3450
16.0400 5.3302 0.3262
16.0600 5.3369 0.3544
16.0800 5.3436 0.3346
16.1000 5.3502 0.3199
16.1200 5.3568 0.3563
16.1400 5.3635 0.3378
16.1600 5.3702 0.3187
16.1800 5.3769 0.3478
16.2000 5.3836 0.3359
16.2200 5.3902 0.3229
16.2400 5.3969 0.3443
16.2600 5.4036 0.3404
16.2800 5.4102 0.3198
16.3000 5.4168 0.3322
16.3200 5.4235 0.3341
16.3400 5.4302 0.3353
16.3600 5.4369 0.3372
16.3800 5.4436 0.3238
16.4000 5.4503 0.3240
16.4200 5.4570 0.3352
16.4400 5.4636 0.3341
16.4600 5.4702 0.3238
16.4800 5.4768 0.3368
16.5000 5.4834 0.3244
16.5200 5.4902 0.3153
16.5400 5.4969 0.3438
16.5600 5.5036 0.3335
16.5800 5.5103 0.3011
16.6000 5.5169 0.3375
16.6200 5.5236 0.3362
16.6400 5.5301 0.3055
16.6600 5.5367 0.3341
16.6800 5.5434 0.3318
16.7000 5.5501 0.3016
16.7200 5.5569 0.3407
16.7400 5.5636 0.3216
16.7600 5.5703 0.2994
16.7800 5.5770 0.3452
16.8000 5.5836 0.3193
16.8200 5.5902 0.2977
16.8400 5.5968 0.3402
16.8600 5.6035 0.3154
16.8800 5.6101 0.3087
16.9000 5.6168 0.3488
16.9200 5.6235 0.3041
16.9400 5.6302 0.2990
16.9600 5.6369 0.3359
16.9800 5.6436 0.3143
17.0000 5.6502 0.3073
17.0200 5.6568 0.3336
17.0400 5.6635 0.3015
17.0600 5.6702 0.3082
17.0800 5.6769 0.3245
17.1000 5.6836 0.3141
17.1200 5.6903 0.3166
17.1400 5.6969 0.3155
17.1600 5.7036 0.2989
17.1800 5.7102 0.3128
17.2000 5.7168 0.3233
17.2200 5.7235 0.3137
17.2400 5.7302 0.3039
17.2600 5.7369 0.3113
17.2800 5.7436 0.3104
17.3000 5.7503 0.3103
17.3200 5.7569 0.3168
17.3400 5.7636 0.3082
17.3600 5.7702 0.2976
17.3800 5.7768 0.3148
17.4000 5.7834 0.3091
17.4200 5.7901 0.2994
17.4400 5.7968 0.3181
17.4600 5.8035 0.3060
17.4800 5.8102 0.2937
17.5000 5.8169 0.3166
17.5200 5.8236 0.3056
17.5400 5.8302 0.2923
17.5600 5.8368 0.3208
17.5800 5.8434 0.3002
17.6000 5.8502 0.2902
17.6200 5.8569 0.3144
17.6400 5.8636 0.3113
17.6600 5.8702 0.2941
17.6800 5.8769 0.3050
17.7000 5.8836 0.3060
17.7200 5.8902 0.3007
17.7400 5.8968 0.3003
17.7600 5.9035 0.2991
17.7800 5.9102 0.3030
17.8000 5.9169 0.3106
17.8200 5.9236 0.2859
17.8400 5.9303 0.2944
17.8600 5.9370 0.3164
17.8800 5.9436 0.2905
17.9000 5.9503 0.2845
17.9200 5.9569 0.3130
17.9400 5.9635 0.2879
17.9600 5.9702 0.2843
17.9800 5.9769 0.3137
18.0000 5.9836 0.2927
18.0200 5.9903 0.2858
18.0400 5.9970 0.2932
18.0600 6.0036 0.2865
18.0800 6.0102 0.2949
18.1000 6.0168 0.3001
18.1200 6.0234 0.2839
18.1400 6.0301 0.2933
18.1600 6.0369 0.2868
18.1800 6.0436 0.2865
18.2000 6.0502 0.2970
18.2200 6.0569 0.2876
18.2400 6.0636 0.2772
18.2600 6.0702 0.2945
18.2800 6.0768 0.2885
18.3000 6.0834 0.2852
18.3200 6.0901 0.2914
18.3400 6.0969 0.2858
18.3600 6.1036 0.2798
18.3800 6.1102 0.2838
18.4000 6.1169 0.2876
18.4200 6.1236 0.2844
18.4400 6.1303 0.2816
18.4600 6.1369 0.2861
18.4800 6.1435 0.2826
18.5000 6.1502 0.2792
18.5200 6.1569 0.2888
18.5400 6.1636 0.2828
18.5600 6.1703 0.2762
18.5800 6.1770 0.2841
18.6000 6.1836 0.2814
18.6200 6.1902 0.2697
18.6400 6.1968 0.2850
18.6600 6.2035 0.2848
18.6800 6.2102 0.2722
18.7000 6.2169 0.2792
18.7200 6.2236 0.2802
18.7400 6.2303 0.2753
18.7600 6.2369 0.2834
18.7800 6.2436 0.2720
18.8000 6.2502 0.2780
18.8200 6.2568 0.2806
18.8400 6.2635 0.2719
18.8600 6.2702 0.2802
18.8800 6.2769 0.2768
18.9000 6.2835 0.2687
18.9200 6.2902 0.2844
18.9400 6.2969 0.2760
18.9600 6.3036 0.2635
18.9800 6.3102 0.2809
19.0000 6.3168 0.2758
19.0200 6.3234 0.2678
19.0400 6.3301 0.2800
19.0600 6.3368 0.2734
19.0800 6.3435 0.2701
19.1000 6.3502 0.2760
19.1200 6.3569 0.2637
19.1400 6.3636 0.2780
19.1600 6.3702 0.2711
19.1800 6.3768 0.2625
19.2000 6.3835 0.2765
19.2200 6.3902 0.2713
19.2400 6.3969 0.2613
19.2600 6.4036 0.2710
19.2800 6.4103 0.2664
19.3000 6.4169 0.2649
19.3200 6.4236 0.2664
19.3400 6.4302 0.2631
19.3600 6.4368 0.2666
19.3800 6.4435 0.2764
19.4000 6.4501 0.2586
19.4200 6.4568 0.2613
19.4400 6.4635 0.2730
19.4600 6.4702 0.2621
19.4800 6.4769 0.2584
19.5000 6.4836 0.2678
19.5200 6.4903 0.2625
19.5400 6.4969 0.2548
19.5600 6.5035 0.2685
19.5800 6.5101 0.2615
19.6000 6.5168 0.2590
19.6200 6.5235 0.2649
19.6400 6.5302 0.2620
19.6600 6.5369 0.2524
19.6800 6.5436 0.2657
19.7000 6.5502 0.2612
19.7200 6.5568 0.2542
19.7400 6.5634 0.2628
19.7600 6.5701 0.2686
19.7800 6.5768 0.2508
19.8000 6.5835 0.2605
19.8200 6.5902 0.2611
19.8400 6.5969 0.2564
19.8600 6.6035 0.2583
19.8800 6.6102 0.2577
19.9000 6.6168 0.2549
19.9200 6.6235 0.2597
19.9400 6.6302 0.2551
19.9600 6.6369 0.2507
19.9800 6.6436 0.2562
20.0000 6.6502 0.2564
20.0200 6.6569 0.2490
20.0400 6.6636 0.2527
20.0600 6.6703 0.2569
20.0800 6.6769 0.2465
20.1000 6.6835 0.2589
20.1200 6.6902 0.2548
20.1400 6.6969 0.2459
20.1600 6.7036 0.2522
20.1800 6.7103 0.2540
20.2000 6.7170 0.2400
20.2200 6.7236 0.2556
20.2400 6.7302 0.2571
20.2600 6.7368 0.2399
20.2800 6.7434 0.2486
20.3000 6.7501 0.2556
20.3200 6.7568 0.2375
20.3400 6.7635 0.2488
20.3600 6.7702 0.2536
20.3800 6.7769 0.2349
20.4000 6.7836 0.2451
20.4200 6.7902 0.2519
20.4400 6.7968 0.2342
20.4600 6.8035 0.2467
20.4800 6.8101 0.2482
20.5000 6.8168 0.2317
20.5200 6.8235 0.2439
20.5400 6.8302 0.2473
20.5600 6.8369 0.2340
20.5800 6.8436 0.2447
20.6000 6.8503 0.2440
20.6200 6.8569 0.2304
20.6400 6.8635 0.2420
20.6600 6.8701 0.2456
20.6800 6.8769 0.2315
20.7000 6.8836 0.2368
20.7200 6.8903 0.2440
20.7400 6.8970 0.2270
20.7600 6.9036 0.2379
20.7800 6.9103 0.2361
20.8000 6.9168 0.2294
20.8200 6.9235 0.2388
20.8400 6.9301 0.2439
20.8600 6.9368 0.2252
20.8800 6.9436 0.2367
20.9000 6.9503 0.2369
20.9200 6.9569 0.2252
20.9400 6.9636 0.2360
20.9600 6.9703 0.2353
20.9800 6.9769 0.2213
21.0000 6.9835 0.2341
21.0200 6.9902 0.2343
21.0400 6.9968 0.2248
21.0600 7.0035 0.2320
21.0800 7.0102 0.2327
21.1000 7.0169 0.2285
21.1200 7.0236 0.2268
21.1400 7.0303 0.2271
21.1600 7.0368 0.2275
21.1800 7.0434 0.2288
21.2000 7.0501 0.2319
21.2200 7.0568 0.2322
21.2400 7.0635 0.2157
21.2600 7.0702 0.2304
21.2800 7.0769 0.2316
21.3000 7.0835 0.2213
21.3200 7.0902 0.2284
21.3400 7.0968 0.2276
21.3600 7.1035 0.2171
21.3800 7.1101 0.2335
21.4000 7.1168 0.2239
21.4200 7.1235 0.2157
21.4400 7.1302 0.2331
21.4600 7.1369 0.2212
21.4800 7.1436 0.2132
21.5000 7.1503 0.2302
21.5200 7.1569 0.2181
21.5400 7.1635 0.2190
21.5600 7.1702 0.2313
21.5800 7.1768 0.2109
21.6000 7.1835 0.2184
21.6200 7.1902 0.2279
21.6400 7.1969 0.2102
21.6600 7.2036 0.2148
21.6800 7.2103 0.2298
21.7000 7.2169 0.2075
21.7200 7.2235 0.2149
21.7400 7.2301 0.2265
21.7600 7.2368 0.2086
21.7800 7.2436 0.2148
21.8000 7.2502 0.2221
21.8200 7.2569 0.2076
21.8400 7.2636 0.2193
21.8600 7.2702 0.2136
21.8800 7.2769 0.2030
21.9000 7.2835 0.2171
21.9200 7.2901 0.2208
21.9400 7.2968 0.2046
21.9600 7.3035 0.2111
21.9800 7.3102 0.2168
22.0000 7.3169 0.2069
22.0200 7.3235 0.2076
22.0400 7.3302 0.2122
22.0600 7.3369 0.2042
22.0800 7.3435 0.2069
22.1000 7.3501 0.2161
22.1200 7.3568 0.2058
22.1400 7.3635 0.2010
22.1600 7.3702 0.2065
22.1800 7.3769 0.2079
22.2000 7.3836 0.2009
22.2200 7.3903 0.2039
22.2400 7.3969 0.2084
22.2600 7.4035 0.1996
22.2800 7.4102 0.2029
22.3000 7.4169 0.2076
22.3200 7.4236 0.1971
22.3400 7.4303 0.2094
22.3600 7.4369 0.2026
22.3800 7.4436 0.1967
22.4000 7.4502 0.2091
22.4200 7.4569 0.2033
22.4400 7.4635 0.1983
22.4600 7.4701 0.2071
22.4800 7.4768 0.1964
22.5000 7.4835 0.1989
22.5200 7.4902 0.2026
22.5400 7.4969 0.1970
22.5600 7.5036 0.1972
22.5800 7.5102 0.1984
22.6000 7.5169 0.1967
22.6200 7.5235 0.2006
22.6400 7.5301 0.1963
22.6600 7.5368 0.1936
22.6800 7.5435 0.2004
22.7000 7.5502 0.1917
22.7200 7.5569 0.1879
22.7400 7.5636 0.1979
22.7600 7.5703 0.1926
22.7800 7.5769 0.1912
22.8000 7.5835 0.1983
22.8200 7.5901 0.1852
22.8400 7.5968 0.2008
22.8600 7.6036 0.1980
22.8800 7.6102 0.1807
22.9000 7.6169 0.1937
22.9200 7.6236 0.1971
22.9400 7.6303 0.1798
22.9600 7.6369 0.1972
22.9800 7.6435 0.1936
23.0000 7.6502 0.1809
23.0200 7.6568 0.1929
23.0400 7.6635 0.1928
23.0600 7.6702 0.1848
23.0800 7.6769 0.1879
23.1000 7.6836 0.1884
23.1200 7.6903 0.1859
23.1400 7.6969 0.1934
23.1600 7.7035 0.1854
23.1800 7.7102 0.1827
23.2000 7.7168 0.1905
23.2200 7.7235 0.1815
23.2400 7.7302 0.1805
23.2600 7.7369 0.1906
23.2800 7.7436 0.1839
23.3000 7.7502 0.1818
23.3200 7.7569 0.1812
23.3400 7.7635 0.1852
23.3600 7.7701 0.1854
23.3800 7.7768 0.1852
23.4000 7.7835 0.1794
23.4200 7.7902 0.1805
23.4400 7.7969 0.1794
23.4600 7.8035 0.1836
23.4800 7.8102 0.1794
23.5000 7.8169 0.1793
23.5200 7.8235 0.1810
23.5400 7.8301 0.1801
23.5600 7.8368 0.1754
23.5800 7.8435 0.1837
23.6000 7.8502 0.1742
23.6200 7.8569 0.1774
23.6400 7.8636 0.1800
23.6600 7.8703 0.1760
23.6800 7.8769 0.1745
23.7000 7.8835 0.1744
23.7200 7.8901 0.1776
23.7400 7.8968 0.1695
23.7600 7.9035 0.1747
23.7800 7.9102 0.1717
23.8000 7.9169 0.1749
23.8200 7.9236 0.1719
23.8400 7.9303 0.1681
23.8600 7.9369 0.1665
23.8800 7.9435 0.1706
23.9000 7.9501 0.1727
23.9200 7.9568 0.1640
23.9400 7.9635 0.1714
23.9600 7.9702 0.1750
23.9800 7.9769 0.1586
24.0000 7.9836 0.1713
24.0200 7.9903 0.1638
24.0400 7.9969 0.1623
24.0600 8.0035 0.1708
24.0800 8.0101 0.1599
24.1000 8.0168 0.1641
24.1200 8.0235 0.1756
24.1400 8.0302 0.1577
24.1600 8.0369 0.1620
24.1800 8.0435 0.1721
24.2000 8.0502 0.1554
24.2200 8.0569 0.1620
24.2400 8.0635 0.1713
24.2600 8.0701 0.1531
24.2800 8.0768 0.1635
24.3000 8.0835 0.1708
24.3200 8.0903 0.1480
24.3400 8.0969 0.1614
24.3600 8.1036 0.1691
24.3800 8.1103 0.1522
24.4000 8.1169 0.1557
24.4200 8.1235 0.1687
24.4400 8.1301 0.1528
24.4600 8.1368 0.1582
24.4800 8.1436 0.1602
24.5000 8.1503 0.1507
24.5200 8.1570 0.1558
24.5400 8.1636 0.1655
24.5600 8.1703 0.1426
24.5800 8.1769 0.1531
24.6000 8.1835 0.1624
24.6200 8.1901 0.1433
24.6400 8.1968 0.1590
24.6600 8.2035 0.1638
24.6800 8.2102 0.1446
24.7000 8.2169 0.1548
24.7200 8.2235 0.1588
24.7400 8.2302 0.1393
24.7600 8.2369 0.1559
24.7800 8.2435 0.1630
24.8000 8.2501 0.1393
24.8200 8.2568 0.1536
24.8400 8.2635 0.1600
24.8600 8.2702 0.1365
24.8800 8.2769 0.1548
24.9000 8.2835 0.1560
24.9200 8.2902 0.1380
24.9400 8.2969 0.1496
24.9600 8.3035 0.1606
24.9800 8.3101 0.1369
25.0000 8.3168 0.1520
25.0200 8.3235 0.1549
25.0400 8.3302 0.1347
25.0600 8.3369 0.1509
25.0800 8.3436 0.1533
25.1000 8.3503 0.1324
25.1200 8.3569 0.1500
25.1400 8.3635 0.1516
25.1600 8.3701 0.1340
25.1800 8.3768 0.1458
25.2000 8.3835 0.1523
25.2200 8.3902 0.1324
25.2400 8.3969 0.1460
25.2600 8.4036 0.1483
25.2800 8.4103 0.1344
25.3000 8.4169 0.1492
25.3200 8.4235 0.1438
25.3400 8.4301 0.1304
25.3600 8.4368 0.1490
25.3800 8.4435 0.1460
25.4000 8.4502 0.1292
25.4200 8.4569 0.1424
25.4400 8.4636 0.1381
25.4600 8.4703 0.1326
25.4800 8.4769 0.1370
25.5000 8.4835 0.1400
25.5200 8.4901 0.1362
25.5400 8.4967 0.1432
25.5600 8.5035 0.1337
25.5800 8.5102 0.1370
25.6000 8.5168 0.1357
25.6200 8.5235 0.1381
25.6400 8.5302 0.1348
25.6600 8.5369 0.1287
25.6800 8.5435 0.1334
25.7000 8.5501 0.1367
25.7200 8.5568 0.1308
25.7400 8.5635 0.1334
25.7600 8.5702 0.1356
25.7800 8.5769 0.1310
25.8000 8.5836 0.1303
25.8200 8.5903 0.1319
25.8400 8.5970 0.1366
25.8600 8.6036 0.1291
25.8800 8.6102 0.1294
25.9000 8.6168 0.1303
25.9200 8.6235 0.1345
25.9400 8.6303 0.1256
25.9600 8.6369 0.1303
25.9800 8.6436 0.1289
26.0000 8.6503 0.1279
26.0200 8.6569 0.1310
26.0400 8.6635 0.1295
26.0600 8.6701 0.1247
26.0800 8.6768 0.1313
26.1000 8.6835 0.1197
26.1200 8.6902 0.1233
26.1400 8.6969 0.1305
26.1600 8.7036 0.1278
26.1800 8.7102 0.1213
26.2000 8.7169 0.1287
26.2200 8.7235 0.1232
26.2400 8.7301 0.1213
26.2600 8.7367 0.1295
26.2800 8.7434 0.1195
26.3000 8.7502 0.1234
26.3200 8.7568 0.1229
26.3400 8.7635 0.1139
26.3600 8.7702 0.1296
26.3800 8.7769 0.1158
26.4000 8.7835 0.1139
26.4200 8.7901 0.1283
26.4400 8.7968 0.1123
26.4600 8.8035 0.1191
26.4800 8.8103 0.1185
26.5000 8.8169 0.1153
26.5200 8.8236 0.1183
26.5400 8.8303 0.1178
26.5600 8.8369 0.1084
26.5800 8.8436 0.1206
26.6000 8.8502 0.1123
26.6200 8.8568 0.1101
26.6400 8.8635 0.1222
26.6600 8.8702 0.1078
26.6800 8.8769 0.1103
26.7000 8.8836 0.1213
26.7200 8.8903 0.1024
26.7400 8.8970 0.1132
26.7600 8.9036 0.1172
26.7800 8.9102 0.0995
26.8000 8.9168 0.1169
26.8200 8.9235 0.1170
26.8400 8.9302 0.0926
26.8600 8.9369 0.1164
26.8800 8.9436 0.1151
26.9000 8.9503 0.0939
26.9200 8.9569 0.1178
26.9400 8.9635 0.1064
26.9600 8.9701 0.1005
26.9800 8.9767 0.1151
27.0000 8.9834 0.1022
27.0200 8.9902 0.0975
27.0400 8.9969 0.1203
27.0600 9.0035 0.0964
27.0800 9.0102 0.0966
27.1000 9.0169 0.1147
27.1200 9.0236 0.0975
27.1400 9.0302 0.0974
27.1600 9.0368 0.1167
27.1800 9.0435 0.0917
27.2000 9.0502 0.0993
27.2200 9.0569 0.1107
27.2400 9.0636 0.0950
27.2600 9.0703 0.1031
27.2800 9.0770 0.1078
27.3000 9.0836 0.0897
27.3200 9.0902 0.0998
27.3400 9.0968 0.1058
27.3600 9.1035 0.0927
27.3800 9.1102 0.1021
27.4000 9.1169 0.1022
27.4200 9.1236 0.0920
27.4400 9.1303 0.0961
27.4600 9.1369 0.1003
27.4800 9.1436 0.0937
27.5000 9.1502 0.0980
27.5200 9.1568 0.0999
27.5400 9.1635 0.0981
27.5600 9.1702 0.0938
27.5800 9.1769 0.0969
27.6000 9.1836 0.0967
27.6200 9.1902 0.0976
27.6400 9.1969 0.0948
27.6600 9.2035 0.0955
27.6800 9.2101 0.0946
27.7000 9.2168 0.0944
27.7200 9.2234 0.0933
27.7400 9.2302 0.0959
27.7600 9.2369 0.0932
27.7800 9.2435 0.0922
27.8000 9.2502 0.0947
27.8200 9.2569 0.0929
27.8400 9.2635 0.0910
27.8600 9.2701 0.0944
27.8800 9.2768 0.0958
27.9000 9.2835 0.0853
27.9200 9.2902 0.0967
27.9400 9.2969 0.0906
27.9600 9.3036 0.0857
27.9800 9.3103 0.0936
28.0000 9.3170 0.0863
28.0200 9.3236 0.0862
28.0400 9.3302 0.0993
28.0600 9.3368 0.0826
28.0800 9.3435 0.0850
28.1000 9.3502 0.0960
28.1200 9.3569 0.0824
28.1400 9.3636 0.0863
28.1600 9.3703 0.0982
28.1800 9.3769 0.0749
28.2000 9.3835 0.0843
28.2200 9.3901 0.0931
28.2400 9.3968 0.0799
28.2600 9.4035 0.0864
28.2800 9.4102 0.0867
28.3000 9.4169 0.0694
28.3200 9.4236 0.0881
28.3400 9.4302 0.0862
28.3600 9.4369 0.0696
28.3800 9.4436 0.0888
28.4000 9.4502 0.0842
28.4200 9.4568 0.0748
28.4400 9.4635 0.0861
28.4600 9.4702 0.0878
28.4800 9.4769 0.0719
28.5000 9.4836 0.0813
28.5200 9.4902 0.0828
28.5400 9.4969 0.0735
28.5600 9.5035 0.0825
28.5800 9.5102 0.0783
28.6000 9.5168 0.0723
28.6200 9.5235 0.0821
28.6400 9.5302 0.0757
28.6600 9.5369 0.0778
28.6800 9.5436 0.0777
28.7000 9.5503 0.0771
28.7200 9.5569 0.0752
28.7400 9.5636 0.0763
28.7600 9.5702 0.0713
28.7800 9.5769 0.0775
28.8000 9.5835 0.0701
28.8200 9.5902 0.0704
28.8400 9.5969 0.0774
28.8600 9.6036 0.0693
28.8800 9.6103 0.0724
28.9000 9.6170 0.0783
28.9200 9.6236 0.0627
28.9400 9.6302 0.0691
28.9600 9.6368 0.0767
28.9800 9.6435 0.0607
29.0000 9.6502 0.0740
29.0200 9.6568 0.0763
29.0400 9.6635 0.0571
29.0600 9.6702 0.0710
29.0800 9.6769 0.0751
29.1000 9.6836 0.0540
29.1200 9.6902 0.0741
29.1400 9.6968 0.0707
29.1600 9.7035 0.0608
29.1800 9.7102 0.0714
29.2000 9.7169 0.0686
29.2200 9.7235 0.0575
29.2400 9.7302 0.0728
29.2600 9.7369 0.0642
29.2800 9.7436 0.0592
29.3000 9.7502 0.0711
29.3200 9.7568 0.0633
29.3400 9.7635 0.0609
29.3600 9.7702 0.0692
29.3800 9.7769 0.0635
29.4000 9.7836 0.0606
29.4200 9.7903 0.0640
29.4400 9.7970 0.0626
29.4600 9.8036 0.0598
29.4800 9.8102 0.0636
29.5000 9.8168 0.0641
29.5200 9.8235 0.0556
29.5400 9.8302 0.0666
29.5600 9.8369 0.0611
29.5800 9.8436 0.0556
29.6000 9.8503 0.0607
29.6200 9.8569 0.0659
29.6400 9.8636 0.0555
29.6600 9.8702 0.0637
29.6800 9.8768 0.0569
29.7000 9.8835 0.0504
29.7200 9.8902 0.0626
29.7400 9.8969 0.0543
29.7600 9.9035 0.0500
29.7800 9.9102 0.0627
29.8000 9.9169 0.0529
29.8200 9.9236 0.0538
29.8400 9.9302 0.0538
29.8600 9.9368 0.0578
29.8800 9.9434 0.0522
29.9000 9.9501 0.0523
29.9200 9.9568 0.0529
29.9400 9.9635 0.0486
29.9600 9.9702 0.0539
29.9800 9.9769 0.0496
30.0000 9.9835 0.0499
30.0200 9.9901 0.0500
30.0400 9.9968 0.0529
30.0600 10.0035 0.0472
30.0800 10.0102 0.0510
30.1000 10.0169 0.0542
30.1200 10.0236 0.0433
30.1400 10.0303 0.0442
30.1600 10.0369 0.0511
30.1800 10.0436 0.0414
30.2000 10.0502 0.0470
30.2200 10.0569 0.0499
30.2400 10.0635 0.0407
30.2600 10.0702 0.0430
30.2800 10.0769 0.0561
30.3000 10.0836 0.0385
30.3200 10.0903 0.0373
30.3400 10.0970 0.0487
30.3600 10.1036 0.0393
30.3800 10.1102 0.0424
30.4000 10.1168 0.0480
30.4200 10.1234 0.0396
30.4400 10.1301 0.0411
30.4600 10.1369 0.0437
30.4800 10.1435 0.0374
30.5000 10.1502 0.0404
30.5200 10.1569 0.0440
30.5400 10.1635 0.0339
30.5600 10.1702 0.0382
30.5800 10.1768 0.0477
30.6000 10.1834 0.0334
30.6200 10.1902 0.0392
30.6400 10.1969 0.0386
30.6600 10.2036 0.0354
30.6800 10.2102 0.0381
30.7000 10.2169 0.0388
30.7200 10.2236 0.0348
30.7400 10.2302 0.0350
30.7600 10.2368 0.0333
30.7800 10.2435 0.0347
30.8000 10.2502 0.0311
30.8200 10.2569 0.0358
30.8400 10.2636 0.0344
30.8600 10.2703 0.0275
30.8800 10.2769 0.0306
30.9000 10.2836 0.0331
30.9200 10.2902 0.0263
30.9400 10.2968 0.0293
30.9600 10.3035 0.0383
30.9800 10.3102 0.0270
31.0000 10.3169 0.0259
31.0200 10.3236 0.0334
31.0400 10.3303 0.0221
31.0600 10.3369 0.0272
31.0800 10.3436 0.0333
31.1000 10.3502 0.0134
31.1200 10.3568 0.0290
31.1400 10.3634 0.0311
31.1600 10.3701 0.0159
31.1800 10.3769 0.0232
31.2000 10.3836 0.0314
31.2200 10.3902 0.0115
31.2400 10.3969 0.0229
31.2600 10.4036 0.0274
31.2800 10.4102 0.0111
31.3000 10.4168 0.0222
31.3200 10.4234 0.0316
31.3400 10.4301 0.0071
31.3600 10.4368 0.0252
31.3800 10.4435 0.0273
31.4000 10.4502 0.0067
31.4200 10.4569 0.0205
31.4400 10.4636 0.0277
31.4600 10.4702 0.0040
31.4800 10.4768 0.0183
31.5000 10.4835 0.0255
31.5200 10.4902 0.0082
31.5400 10.4969 0.0194
31.5600 10.5036 0.0212
31.5800 10.5103 0.0043
31.6000 10.5170 0.0152
31.6200 10.5236 0.0239
31.6400 10.5302 0.0037
31.6600 10.5368 0.0169
31.6800 10.5435 0.0233
31.7000 10.5502 -0.0037
31.7200 10.5569 0.0134
31.7400 10.5636 0.0248
31.7600 10.5703 -0.0037
31.7800 10.5770 0.0136
31.8000 10.5836 0.0198
31.8200 10.5902 0.0005
31.8400 10.5968 0.0101
31.8600 10.6035 0.0223
31.8800 10.6101 -0.0031
31.9000 10.6169 0.0092
31.9200 10.6236 0.0174
31.9400 10.6302 -0.0002
31.9600 10.6369 0.0120
31.9800 10.6436 0.0132
32.0000 10.6502 -0.0095
32.0200 10.6568 0.0166
32.0400 10.6634 0.0127
32.0600 10.6701 -0.0072
32.0800 10.6769 0.0167
32.1000 10.6836 0.0118
32.1200 10.6902 -0.0096
32.1400 10.6969 0.0144
32.1600 10.7036 0.0078
32.1800 10.7102 -0.0117
32.2000 10.7168 0.0152
32.2200 10.7235 0.0031
32.2400 10.7302 -0.0054
32.2600 10.7369 0.0130
32.2800 10.7436 -0.0017
32.3000 10.7503 -0.0064
32.3200 10.7570 0.0123
32.3400 10.7636 -0.0058
32.3600 10.7703 -0.0059
32.3800 10.7769 0.0081
32.4000 10.7835 0.0007
32.4200 10.7902 -0.0048
32.4400 10.7969 0.0074
32.4600 10.8036 -0.0034
32.4800 10.8103 -0.0050
32.5000 10.8169 0.0011
32.5200 10.8236 -0.0056
32.5400 10.8302 -0.0015
32.5600 10.8368 0.0006
32.5800 10.8434 -0.0085
32.6000 10.8501 -0.0008
32.6200 10.8569 -0.0037
32.6400 10.8636 -0.0078
32.6600 10.8702 -0.0025
32.6800 10.8769 -0.0059
32.7000 10.8836 -0.0049
32.7200 10.8902 -0.0095
32.7400 10.8968 -0.0048
32.7600 10.9035 -0.0063
32.7800 10.9101 -0.0099
32.8000 10.9169 -0.0074
32.8200 10.9235 -0.0102
32.8400 10.9302 -0.0093
32.8600 10.9369 -0.0072
32.8800 10.9436 -0.0124
32.9000 10.9502 -0.0108
32.9200 10.9568 -0.0146
32.9400 10.9635 -0.0078
32.9600 10.9701 -0.0113
32.9800 10.9769 -0.0127
33.0000 10.9836 -0.0127
33.0200 10.9903 -0.0112
33.0400 10.9969 -0.0158
33.0600 11.0036 -0.0154
33.0800 11.0102 -0.0084
33.1000 11.0168 -0.0145
33.1200 11.0235 -0.0141
33.1400 11.0302 -0.0112
33.1600 11.0369 -0.0179
33.1800 11.0436 -0.0181
33.2000 11.0503 -0.0133
33.2200 11.0570 -0.0194
33.2400 11.0636 -0.0184
33.2600 11.0703 -0.0154
33.2800 11.0769 -0.0208
33.3000 11.0835 -0.0143
33.3200 11.0901 -0.0161
33.3400 11.0969 -0.0255
33.3600 11.1035 -0.0128
33.3800 11.1102 -0.0206
33.4000 11.1169 -0.0240
33.4200 11.1236 -0.0202
33.4400 11.1302 -0.0214
33.4600 11.1368 -0.0235
33.4800 11.1434 -0.0200
33.5000 11.1501 -0.0196
33.5200 11.1568 -0.0245
33.5400 11.1635 -0.0183
33.5600 11.1702 -0.0256
33.5800 11.1769 -0.0288
33.6000 11.1836 -0.0210
33.6200 11.1902 -0.0300
33.6400 11.1968 -0.0237
33.6600 11.2035 -0.0244
33.6800 11.2102 -0.0249
33.7000 11.2169 -0.0269
33.7200 11.2236 -0.0307
33.7400 11.2303 -0.0289
33.7600 11.2370 -0.0255
33.7800 11.2436 -0.0319
33.8000 11.2502 -0.0321
33.8200 11.2568 -0.0242
33.8400 11.2635 -0.0296
33.8600 11.2701 -0.0278
33.8800 11.2769 -0.0307
33.9000 11.2836 -0.0310
33.9200 11.2902 -0.0301
33.9400 11.2969 -0.0317
33.9600 11.3036 -0.0321
33.9800 11.3103 -0.0326
34.0000 11.3169 -0.0378
34.0200 11.3235 -0.0297
34.0400 11.3301 -0.0362
34.0600 11.3368 -0.0326
34.0800 11.3435 -0.0329
34.1000 11.3502 -0.0392
34.1200 11.3569 -0.0341
34.1400 11.3636 -0.0340
34.1600 11.3703 -0.0386
34.1800 11.3768 -0.0353
34.2000 11.3834 -0.0347
34.2200 11.3901 -0.0410
34.2400 11.3968 -0.0335
34.2600 11.4035 -0.0416
34.2800 11.4102 -0.0437
34.3000 11.4169 -0.0298
34.3200 11.4235 -0.0443
34.3400 11.4302 -0.0459
34.3600 11.4368 -0.0290
34.3800 11.4435 -0.0426
34.4000 11.4501 -0.0417
34.4200 11.4568 -0.0343
34.4400 11.4636 -0.0419
34.4600 11.4702 -0.0457
34.4800 11.4769 -0.0298
34.5000 11.4836 -0.0484
34.5200 11.4903 -0.0433
34.5400 11.4969 -0.0383
34.5600 11.5035 -0.0457
34.5800 11.5101 -0.0427
34.6000 11.5169 -0.0413
34.6200 11.5236 -0.0462
34.6400 11.5303 -0.0416
34.6600 11.5369 -0.0436
34.6800 11.5436 -0.0469
34.7000 11.5502 -0.0444
34.7200 11.5568 -0.0378
34.7400 11.5634 -0.0475
34.7600 11.5701 -0.0436
34.7800 11.5768 -0.0410
34.8000 11.5835 -0.0512
34.8200 11.5902 -0.0482
34.8400 11.5969 -0.0426
34.8600 11.6035 -0.0485
34.8800 11.6102 -0.0481
34.9000 11.6168 -0.0471
34.9200 11.6234 -0.0509
34.9400 11.6301 -0.0465
34.9600 11.6368 -0.0464
34.9800 11.6435 -0.0539
35.0000 11.6502 -0.0505
35.0200 11.6569 -0.0471
35.0400 11.6636 -0.0543
35.0600 11.6703 -0.0482
35.0800 11.6769 -0.0502
35.1000 11.6835 -0.0534
35.1200 11.6901 -0.0563
35.1400 11.6968 -0.0469
35.1600 11.7035 -0.0548
35.1800 11.7102 -0.0541
35.2000 11.7169 -0.0465
35.2200 11.7236 -0.0574
35.2400 11.7303 -0.0584
35.2600 11.7369 -0.0508
35.2800 11.7435 -0.0550
35.3000 11.7501 -0.0564
35.3200 11.7568 -0.0543
35.3400 11.7636 -0.0577
35.3600 11.7702 -0.0605
35.3800 11.7769 -0.0536
35.4000 11.7836 -0.0525
35.4200 11.7903 -0.0643
35.4400 11.7969 -0.0588
35.4600 11.8035 -0.0559
35.4800 11.8102 -0.0569
35.5000 11.8168 -0.0608
35.5200 11.8235 -0.0580
35.5400 11.8302 -0.0612
35.5600 11.8369 -0.0562
35.5800 11.8436 -0.0582
35.6000 11.8503 -0.0629
35.6200 11.8569 -0.0595
35.6400 11.8635 -0.0527
35.6600 11.8701 -0.0679
35.6800 11.8768 -0.0601
35.7000 11.8835 -0.0600
35.7200 11.8902 -0.0654
35.7400 11.8969 -0.0586
35.7600 11.9036 -0.0659
35.7800 11.9102 -0.0666
35.8000 11.9169 -0.0556
35.8200 11.9235 -0.0684
35.8400 11.9301 -0.0649
35.8600 11.9368 -0.0586
35.8800 11.9435 -0.0706
35.9000 11.9502 -0.0635
35.9200 11.9569 -0.0563
35.9400 11.9636 -0.0710
35.9600 11.9703 -0.0641
35.9800 11.9769 -0.0592
36.0000 11.9835 -0.0682
36.0200 11.9902 -0.0665
36.0400 11.9968 -0.0593
36.0600 12.0035 -0.0727
36.0800 12.0102 -0.0693
36.1000 12.0169 -0.0595
36.1200 12.0236 -0.0762
36.1400 12.0303 -0.0665
36.1600 12.0369 -0.0659
36.1800 12.0435 -0.0748
36.2000 12.0501 -0.0671
36.2200 12.0568 -0.0618
36.2400 12.0635 -0.0757
36.2600 12.0702 -0.0716
36.2800 12.0769 -0.0663
36.3000 12.0836 -0.0744
36.3200 12.0903 -0.0700
36.3400 12.0969 -0.0647
36.3600 12.1035 -0.0764
36.3800 12.1101 -0.0735
36.4000 12.1168 -0.0701
36.4200 12.1235 -0.0763
36.4400 12.1302 -0.0700
36.4600 12.1368 -0.0699
36.4800 12.1435 -0.0789
36.5000 12.1502 -0.0773
36.5200 12.1569 -0.0730
36.5400 12.1635 -0.0789
36.5600 12.1701 -0.0727
36.5800 12.1768 -0.0758
36.6000 12.1835 -0.0812
36.6200 12.1903 -0.0788
36.6400 12.1969 -0.0790
36.6600 12.2036 -0.0811
36.6800 12.2103 -0.0790
36.7000 12.2169 -0.0816
36.7200 12.2235 -0.0745
36.7400 12.2302 -0.0842
36.7600 12.2369 -0.0790
36.7800 12.2436 -0.0819
36.8000 12.2503 -0.0891
36.8200 12.2569 -0.0813
36.8400 12.2636 -0.0792
36.8600 12.2702 -0.0890
36.8800 12.2769 -0.0870
36.9000 12.2835 -0.0813
36.9200 12.2901 -0.0854
36.9400 12.2968 -0.0849
36.9600 12.3035 -0.0888
36.9800 12.3102 -0.0887
37.0000 12.3169 -0.0890
37.0200 12.3235 -0.0901
37.0400 12.3302 -0.0870
37.0600 12.3369 -0.0899
37.0800 12.3435 -0.0882
37.1000 12.3501 -0.0873
37.1200 12.3568 -0.0955
37.1400 12.3635 -0.0885
37.1600 12.3702 -0.0919
37.1800 12.3769 -0.0972
37.2000 12.3836 -0.0925
37.2200 12.3903 -0.0903
37.2400 12.3969 -0.1043
37.2600 12.4035 -0.0890
37.2800 12.4101 -0.0941
37.3000 12.4168 -0.1024
37.3200 12.4235 -0.0863
37.3400 12.4302 -0.0948
37.3600 12.4369 -0.1052
37.3800 12.4436 -0.0844
37.4000 12.4503 -0.1037
37.4200 12.4569 -0.1048
37.4400 12.4636 -0.0848
37.4600 12.4702 -0.1013
37.4800 12.4768 -0.1056
37.5000 12.4835 -0.0838
37.5200 12.4902 -0.1089
37.5400 12.4969 -0.1071
37.5600 12.5036 -0.0826
37.5800 12.5103 -0.1137
37.6000 12.5169 -0.1012
37.6200 12.5235 -0.0917
37.6400 12.5301 -0.1126
37.6600 12.5368 -0.0989
37.6800 12.5435 -0.0933
37.7000 12.5502 -0.1185
37.7200 12.5569 -0.0980
37.7400 12.5636 -0.1007
37.7600 12.5703 -0.1216
37.7800 12.5769 -0.0962
37.8000 12.5834 -0.0989
37.8200 12.5900 -0.1237
37.8400 12.5967 -0.0988
37.8600 12.6034 -0.1044
37.8800 12.6102 -0.1166
37.9000 12.6169 -0.0989
37.9200 12.6236 -0.1048
37.9400 12.6303 -0.1183
37.9600 12.6369 -0.0968
37.9800 12.6435 -0.1162
38.0000 12.6501 -0.1131
38.0200 12.6568 -0.0934
38.0400 12.6636 -0.1195
38.0600 12.6703 -0.1192
38.0800 12.6769 -0.0993
38.1000 12.6836 -0.1166
38.1200 12.6903 -0.1191
38.1400 12.6969 -0.1020
38.1600 12.7035 -0.1202
38.1800 12.7101 -0.1112
38.2000 12.7168 -0.1041
38.2200 12.7235 -0.1230
38.2400 12.7302 -0.1161
38.2600 12.7369 -0.1081
38.2800 12.7436 -0.1229
38.3000 12.7503 -0.1116
38.3200 12.7569 -0.1140
38.3400 12.7635 -0.1236
38.3600 12.7701 -0.1165
38.3800 12.7768 -0.1110
38.4000 12.7835 -0.1230
38.4200 12.7902 -0.1139
38.4400 12.7969 -0.1168
38.4600 12.8036 -0.1188
38.4800 12.8103 -0.1141
38.5000 12.8169 -0.1198
38.5200 12.8235 -0.1233
38.5400 12.8301 -0.1145
38.5600 12.8368 -0.1219
38.5800 12.8435 -0.1216
38.6000 12.8502 -0.1139
38.6200 12.8568 -0.1215
38.6400 12.8635 -0.1222
38.6600 12.8702 -0.1218
38.6800 12.8768 -0.1212
38.7000 12.8835 -0.1235
38.7200 12.8901 -0.1222
38.7400 12.8968 -0.1272
38.7600 12.9035 -0.1272
38.7800 12.9103 -0.1252
38.8000 12.9169 -0.1226
38.8200 12.9236 -0.1271
38.8400 12.9303 -0.1243
38.8600 12.9369 -0.1230
38.8800 12.9435 -0.1298
38.9000 12.9501 -0.1278
38.9200 12.9568 -0.1164
38.9400 12.9636 -0.1318
38.9600 12.9703 -0.1278
38.9800 12.9769 -0.1228
39.0000 12.9836 -0.1349
39.0200 12.9903 -0.1283
39.0400 12.9969 -0.1213
39.0600 13.0035 -0.1409
39.0800 13.0102 -0.1227
39.1000 13.0168 -0.1214
39.1200 13.0235 -0.1426
39.1400 13.0302 -0.1218
39.1600 13.0368 -0.1285
39.1800 13.0435 -0.1405
39.2000 13.0502 -0.1258
39.2200 13.0569 -0.1288
39.2400 13.0635 -0.1441
39.2600 13.0701 -0.1264
39.2800 13.0768 -0.1281
39.3000 13.0835 -0.1380
39.3200 13.0902 -0.1296
39.3400 13.0969 -0.1335
39.3600 13.1036 -0.1416
39.3800 13.1102 -0.1278
39.4000 13.1169 -0.1373
39.4200 13.1235 -0.1388
39.4400 13.1301 -0.1340
39.4600 13.1368 -0.1356
39.4800 13.1435 -0.1411
39.5000 13.1502 -0.1339
39.5200 13.1569 -0.1366
39.5400 13.1636 -0.1402
39.5600 13.1703 -0.1382
39.5800 13.1770 -0.1401
39.6000 13.1836 -0.1375
39.6200 13.1902 -0.1388
39.6400 13.1968 -0.1435
39.6600 13.2035 -0.1374
39.6800 13.2102 -0.1409
39.7000 13.2169 -0.1407
39.7200 13.2236 -0.1433
39.7400 13.2303 -0.1421
39.7600 13.2369 -0.1386
39.7800 13.2435 -0.1470
39.8000 13.2501 -0.1426
39.8200 13.2568 -0.1408
39.8400 13.2635 -0.1492
39.8600 13.2702 -0.1469
39.8800 13.2769 -0.1422
39.9000 13.2836 -0.1511
39.9200 13.2903 -0.1422
39.9400 13.2969 -0.1454
39.9600 13.3035 -0.1513
39.9800 13.3101 -0.1432
40.0000 13.3168 -0.1444
40.0200 13.3235 -0.1548
40.0400 13.3302 -0.1451
40.0600 13.3369 -0.1501
40.0800 13.3435 -0.1486
40.1000 13.3502 -0.1440
40.1200 13.3569 -0.1516
40.1400 13.3635 -0.1546
40.1600 13.3701 -0.1443
40.1800 13.3768 -0.1525
40.2000 13.3835 -0.1528
40.2200 13.3902 -0.1475
40.2400 13.3969 -0.1570
40.2600 13.4036 -0.1486
40.2800 13.4103 -0.1541
40.3000 13.4169 -0.1572
40.3200 13.4236 -0.1505
40.3400 13.4302 -0.1520
40.3600 13.4368 -0.1550
40.3800 13.4436 -0.1544
40.4000 13.4503 -0.1586
40.4200 13.4570 -0.1537
40.4400 13.4636 -0.1567
40.4600 13.4703 -0.1546
40.4800 13.4769 -0.1555
40.5000 13.4835 -0.1545
40.5200 13.4901 -0.1597
40.5400 13.4968 -0.1582
40.5600 13.5035 -0.1589
40.5800 13.5102 -0.1600
40.6000 13.5169 -0.1604
40.6200 13.5235 -0.1553
40.6400 13.5302 -0.1597
40.6600 13.5369 -0.1673
40.6800 13.5435 -0.1637
40.7000 13.5501 -0.1525
40.7200 13.5567 -0.1661
40.7400 13.5634 -0.1638
40.7600 13.5702 -0.1554
40.7800 13.5768 -0.1704
40.8000 13.5835 -0.1602
40.8200 13.5902 -0.1606
40.8400 13.5969 -0.1734
40.8600 13.6035 -0.1577
40.8800 13.6101 -0.1619
40.9000 13.6168 -0.1790
40.9200 13.6235 -0.1538
40.9400 13.6302 -0.1651
40.9600 13.6369 -0.1760
40.9800 13.6436 -0.1637
41.0000 13.6502 -0.1668
41.0200 13.6569 -0.1743
41.0400 13.6635 -0.1600
41.0600 13.6702 -0.1679
41.0800 13.6768 -0.1766
41.1000 13.6835 -0.1619
41.1200 13.6902 -0.1685
41.1400 13.6969 -0.1797
41.1600 13.7036 -0.1598
41.1800 13.7103 -0.1688
41.2000 13.7170 -0.1791
41.2200 13.7236 -0.1638
41.2400 13.7302 -0.1688
41.2600 13.7368 -0.1742
41.2800 13.7435 -0.1664
41.3000 13.7502 -0.1687
41.3200 13.7569 -0.1804
41.3400 13.7636 -0.1636
41.3600 13.7702 -0.1672
41.3800 13.7769 -0.1823
41.4000 13.7835 -0.1680
41.4200 13.7901 -0.1696
41.4400 13.7967 -0.1801
41.4600 13.8034 -0.1660
41.4800 13.8102 -0.1726
41.5000 13.8169 -0.1796
41.5200 13.8235 -0.1723
41.5400 13.8302 -0.1723
41.5600 13.8369 -0.1837
41.5800 13.8436 -0.1722
41.6000 13.8502 -0.1746
41.6200 13.8568 -0.1854
41.6400 13.8635 -0.1729
41.6600 13.8702 -0.1763
41.6800 13.8769 -0.1819
41.7000 13.8836 -0.1697
41.7200 13.8903 -0.1765
41.7400 13.8970 -0.1855
41.7600 13.9036 -0.1794
41.7800 13.9102 -0.1766
41.8000 13.9168 -0.1834
41.8200 13.9235 -0.1767
41.8400 13.9302 -0.1817
41.8600 13.9369 -0.1911
41.8800 13.9436 -0.1768
41.9000 13.9502 -0.1823
41.9200 13.9569 -0.1875
41.9400 13.9636 -0.1806
41.9600 13.9702 -0.1839
41.9800 13.9769 -0.1871
42.0000 13.9835 -0.1830
42.0200 13.9902 -0.1859
42.0400 13.9969 -0.1869
42.0600 14.0036 -0.1891
42.0800 14.0102 -0.1867
42.1000 14.0169 -0.1891
42.1200 14.0236 -0.1895
42.1400 14.0302 -0.1876
42.1600 14.0368 -0.1861
42.1800 14.0434 -0.1921
42.2000 14.0501 -0.1899
42.2200 14.0568 -0.1927
42.2400 14.0635 -0.1891
42.2600 14.0702 -0.1902
42.2800 14.0769 -0.1976
42.3000 14.0836 -0.1943
42.3200 14.0902 -0.1939
42.3400 14.0968 -0.1945
42.3600 14.1035 -0.1902
42.3800 14.1102 -0.1955
42.4000 14.1169 -0.2016
42.4200 14.1236 -0.1913
42.4400 14.1303 -0.1964
42.4600 14.1370 -0.2021
42.4800 14.1436 -0.1965
42.5000 14.1502 -0.1952
42.5200 14.1568 -0.2020
42.5400 14.1635 -0.1951
42.5600 14.1702 -0.2002
42.5800 14.1769 -0.2035
42.6000 14.1836 -0.1964
42.6200 14.1902 -0.1988
42.6400 14.1969 -0.2036
42.6600 14.2035 -0.1980
42.6800 14.2101 -0.2003
42.7000 14.2168 -0.2015
42.7200 14.2235 -0.1976
42.7400 14.2302 -0.2011
42.7600 14.2369 -0.2024
42.7800 14.2436 -0.1988
42.8000 14.2503 -0.2027
42.8200 14.2570 -0.2075
42.8400 14.2636 -0.2029
42.8600 14.2702 -0.2026
42.8800 14.2768 -0.2047
42.9000 14.2834 -0.2018
42.9200 14.2902 -0.2061
42.9400 14.2969 -0.2121
42.9600 14.3036 -0.1992
42.9800 14.3102 -0.2065
43.0000 14.3169 -0.2090
43.0200 14.3235 -0.2052
43.0400 14.3302 -0.2100
43.0600 14.3368 -0.2134
43.0800 14.3435 -0.1998
43.1000 14.3502 -0.2118
43.1200 14.3569 -0.2133
43.1400 14.3636 -0.2048
43.1600 14.3702 -0.2103
43.1800 14.3769 -0.2160
43.2000 14.3836 -0.2030
43.2200 14.3902 -0.2100
43.2400 14.3968 -0.2181
43.2600 14.4035 -0.2058
43.2800 14.4102 -0.2133
43.3000 14.4169 -0.2207
43.3200 14.4236 -0.2042
43.3400 14.4303 -0.2190
43.3600 14.4370 -0.2207
43.3800 14.4436 -0.2042
43.4000 14.4502 -0.2192
43.4200 14.4568 -0.2238
43.4400 14.4634 -0.2027
43.4600 14.4701 -0.2152
43.4800 14.4768 -0.2271
43.5000 14.4835 -0.2073
43.5200 14.4902 -0.2168
43.5400 14.4969 -0.2222
43.5600 14.5036 -0.2156
43.5800 14.5102 -0.2215
43.6000 14.5168 -0.2202
43.6200 14.5235 -0.2114
43.6400 14.5302 -0.2261
43.6600 14.5369 -0.2206
43.6800 14.5435 -0.2167
43.7000 14.5502 -0.2204
43.7200 14.5569 -0.2221
43.7400 14.5636 -0.2181
43.7600 14.5702 -0.2218
43.7800 14.5768 -0.2247
43.8000 14.5835 -0.2203
43.8200 14.5902 -0.2191
43.8400 14.5969 -0.2231
43.8600 14.6036 -0.2257
43.8800 14.6103 -0.2273
43.9000 14.6169 -0.2214
43.9200 14.6236 -0.2227
43.9400 14.6302 -0.2231
43.9600 14.6368 -0.2229
43.9800 14.6435 -0.2287
44.0000 14.6502 -0.2243
44.0200 14.6569 -0.2275
44.0400 14.6636 -0.2269
44.0600 14.6703 -0.2259
44.0800 14.6769 -0.2287
44.1000 14.6836 -0.2336
44.1200 14.6902 -0.2221
44.1400 14.6968 -0.2289
44.1600 14.7035 -0.2322
44.1800 14.7102 -0.2279
44.2000 14.7169 -0.2303
44.2200 14.7235 -0.2335
44.2400 14.7302 -0.2241
44.2600 14.7369 -0.2319
44.2800 14.7435 -0.2334
44.3000 14.7502 -0.2324
44.3200 14.7567 -0.2335
44.3400 14.7634 -0.2338
44.3600 14.7701 -0.2259
44.3800 14.7769 -0.2402
44.4000 14.7836 -0.2363
44.4200 14.7902 -0.2277
44.4400 14.7969 -0.2397
44.4600 14.8035 -0.2331
44.4800 14.8102 -0.2327
44.5000 14.8168 -0.2381
44.5200 14.8235 -0.2348
44.5400 14.8302 -0.2337
44.5600 14.8369 -0.2392
44.5800 14.8436 -0.2319
44.6000 14.8503 -0.2402
44.6200 14.8569 -0.2398
44.6400 14.8636 -0.2349
44.6600 14.8703 -0.2447
44.6800 14.8769 -0.2388
44.7000 14.8835 -0.2345
44.7200 14.8902 -0.2440
44.7400 14.8969 -0.2367
44.7600 14.9036 -0.2456
44.7800 14.9103 -0.2405
44.8000 14.9170 -0.2368
44.8200 14.9236 -0.2467
44.8400 14.9302 -0.2439
44.8600 14.9368 -0.2373
44.8800 14.9434 -0.2456
44.9000 14.9501 -0.2435
44.9200 14.9568 -0.2452
44.9400 14.9635 -0.2486
44.9600 14.9702 -0.2407
44.9800 14.9769 -0.2453
45.0000 14.9836 -0.2528
45.0200 14.9902 -0.2416
45.0400 14.9968 -0.2431
45.0600 15.0034 -0.2537
45.0800 15.0101 -0.2394
45.1000 15.0169 -0.2489
45.1200 15.0235 -0.2543
45.1400 15.0302 -0.2446
45.1600 15.0369 -0.2499
45.1800 15.0436 -0.2537
45.2000 15.0503 -0.2466
45.2200 15.0569 -0.2519
45.2400 15.0635 -0.2515
45.2600 15.0702 -0.2520
45.2800 15.0769 -0.2508
45.3000 15.0836 -0.2542
45.3200 15.0903 -0.2515
45.3400 15.0970 -0.2551
45.3600 15.1036 -0.2551
45.3800 15.1103 -0.2561
45.4000 15.1168 -0.2555
45.4200 15.1235 -0.2551
45.4400 15.1302 -0.2569
45.4600 15.1369 -0.2548
45.4800 15.1436 -0.2580
45.5000 15.1503 -0.2577
45.5200 15.1569 -0.2564
45.5400 15.1636 -0.2615
45.5600 15.1702 -0.2619
45.5800 15.1768 -0.2526
45.6000 15.1835 -0.2636
45.6200 15.1902 -0.2617
45.6400 15.1969 -0.2551
45.6600 15.2036 -0.2626
45.6800 15.2102 -0.2642
45.7000 15.2169 -0.2542
45.7200 15.2236 -0.2722
45.7400 15.2302 -0.2612
45.7600 15.2368 -0.2549
45.7800 15.2434 -0.2697
45.8000 15.2501 -0.2627
45.8200 15.2568 -0.2554
45.8400 15.2635 -0.2720
45.8600 15.2702 -0.2621
45.8800 15.2769 -0.2584
45.9000 15.2836 -0.2752
45.9200 15.2902 -0.2630
45.9400 15.2968 -0.2612
45.9600 15.3035 -0.2773
45.9800 15.3102 -0.2590
46.0000 15.3169 -0.2608
46.0200 15.3236 -0.2807
46.0400 15.3303 -0.2616
46.0600 15.3369 -0.2698
46.0800 15.3436 -0.2797
46.1000 15.3502 -0.2674
46.1200 15.3568 -0.2664
46.1400 15.3635 -0.2758
46.1600 15.3702 -0.2668
46.1800 15.3769 -0.2709
46.2000 15.3836 -0.2738
46.2200 15.3903 -0.2728
46.2400 15.3969 -0.2734
46.2600 15.4036 -0.2746
46.2800 15.4102 -0.2750
46.3000 15.4168 -0.2753
46.3200 15.4235 -0.2698
46.3400 15.4301 -0.2813
46.3600 15.4368 -0.2765
46.3800 15.4436 -0.2723
46.4000 15.4502 -0.2801
46.4200 15.4569 -0.2773
46.4400 15.4636 -0.2816
46.4600 15.4702 -0.2847
46.4800 15.4768 -0.2761
46.5000 15.4834 -0.2788
46.5200 15.4901 -0.2794
46.5400 15.4968 -0.2776
46.5600 15.5035 -0.2841
46.5800 15.5102 -0.2827
46.6000 15.5169 -0.2741
46.6200 15.5236 -0.2868
46.6400 15.5302 -0.2862
46.6600 15.5368 -0.2740
46.6800 15.5435 -0.2906
46.7000 15.5501 -0.2876
46.7200 15.5568 -0.2829
46.7400 15.5635 -0.2839
46.7600 15.5702 -0.2864
46.7800 15.5769 -0.2878
46.8000 15.5837 -0.2947
46.8200 15.5903 -0.2870
46.8400 15.5969 -0.2897
46.8600 15.6035 -0.2883
46.8800 15.6102 -0.2894
46.9000 15.6169 -0.2885
46.9200 15.6236 -0.2989
46.9400 15.6303 -0.2873
46.9600 15.6369 -0.2937
46.9800 15.6436 -0.2946
47.0000 15.6502 -0.2904
47.0200 15.6568 -0.2951
47.0400 15.6634 -0.2844
47.0600 15.6701 -0.2970
47.0800 15.6769 -0.2982
47.1000 15.6836 -0.2848
47.1200 15.6902 -0.2999
47.1400 15.6969 -0.2981
47.1600 15.7036 -0.2841
47.1800 15.7102 -0.3094
47.2000 15.7169 -0.2997
47.2200 15.7235 -0.2811
47.2400 15.7301 -0.3091
47.2600 15.7368 -0.3003
47.2800 15.7435 -0.2812
47.3000 15.7502 -0.3182
47.3200 15.7569 -0.2909
47.3400 15.7636 -0.2877
47.3600 15.7702 -0.3199
47.3800 15.7769 -0.2924
47.4000 15.7835 -0.2922
47.4200 15.7901 -0.3210
47.4400 15.7968 -0.2899
47.4600 15.8036 -0.2995
47.4800 15.8102 -0.3181
47.5000 15.8169 -0.2917
47.5200 15.8236 -0.3041
47.5400 15.8302 -0.3205
47.5600 15.8369 -0.2859
47.5800 15.8435 -0.3033
47.6000 15.8502 -0.3203
47.6200 15.8569 -0.2874
47.6400 15.8636 -0.3109
47.6600 15.8703 -0.3152
47.6800 15.8769 -0.2952
47.7000 15.8836 -0.3139
47.7200 15.8903 -0.3179
47.7400 15.8969 -0.2967
47.7600 15.9035 -0.3154
47.7800 15.9101 -0.3136
47.8000 15.9169 -0.3019
47.8200 15.9236 -0.3181
47.8400 15.9302 -0.3175
47.8600 15.9369 -0.3003
47.8800 15.9436 -0.3153
47.9000 15.9502 -0.3193
47.9200 15.9569 -0.3037
47.9400 15.9635 -0.3133
47.9600 15.9701 -0.3144
47.9800 15.9768 -0.3029
48.0000 15.9835 -0.3207
48.0200 15.9902 -0.3175
48.0400 15.9969 -0.3069
48.0600 16.0036 -0.3189
48.0800 16.0102 -0.3189
48.1000 16.0169 -0.3046
48.1200 16.0235 -0.3167
48.1400 16.0302 -0.3226
48.1600 16.0369 -0.3091
48.1800 16.0436 -0.3209
48.2000 16.0503 -0.3197
48.2200 16.0569 -0.3143
48.2400 16.0636 -0.3227
48.2600 16.0703 -0.3205
48.2800 16.0769 -0.3114
48.3000 16.0835 -0.3255
48.3200 16.0901 -0.3197
48.3400 16.0968 -0.3139
48.3600 16.1035 -0.3292
48.3800 16.1102 -0.3209
48.4000 16.1170 -0.3150
48.4200 16.1236 -0.3305
48.4400 16.1303 -0.3175
48.4600 16.1369 -0.3197
48.4800 16.1435 -0.3267
48.5000 16.1501 -0.3180
48.5200 16.1568 -0.3200
48.5400 16.1635 -0.3272
48.5600 16.1702 -0.3199
48.5800 16.1769 -0.3232
48.6000 16.1836 -0.3311
48.6200 16.1903 -0.3179
48.6400 16.1968 -0.3209
48.6600 16.2034 -0.3332
48.6800 16.2101 -0.3192
48.7000 16.2168 -0.3246
48.7200 16.2235 -0.3293
48.7400 16.2302 -0.3248
48.7600 16.2369 -0.3305
48.7800 16.2436 -0.3294
48.8000 16.2502 -0.3256
48.8200 16.2569 -0.3250
48.8400 16.2635 -0.3345
48.8600 16.2701 -0.3271
48.8800 16.2768 -0.3306
48.9000 16.2835 -0.3268
48.9200 16.2902 -0.3311
48.9400 16.2969 -0.3377
48.9600 16.3036 -0.3293
48.9800 16.3103 -0.3307
49.0000 16.3169 -0.3380
49.0200 16.3235 -0.3304
49.0400 16.3301 -0.3293
49.0600 16.3368 -0.3379
49.0800 16.3436 -0.3369
49.1000 16.3503 -0.3301
49.1200 16.3569 -0.3408
49.1400 16.3636 -0.3363
49.1600 16.3702 -0.3293
49.1800 16.3769 -0.3422
49.2000 16.3835 -0.3346
49.2200 16.3901 -0.3332
49.2400 16.3968 -0.3412
49.2600 16.4035 -0.3376
49.2800 16.4102 -0.3356
49.3000 16.4168 -0.3431
49.3200 16.4235 -0.3323
49.3400 16.4302 -0.3397
49.3600 16.4368 -0.3495
49.3800 16.4435 -0.3322
49.4000 16.4501 -0.3344
49.4200 16.4568 -0.3533
49.4400 16.4635 -0.3302
49.4600 16.4702 -0.3498
49.4800 16.4769 -0.3498
49.5000 16.4836 -0.3305
49.5200 16.4903 -0.3470
49.5400 16.4969 -0.3496
49.5600 16.5035 -0.3293
49.5800 16.5101 -0.3537
49.6000 16.5168 -0.3493
49.6200 16.5236 -0.3299
49.6400 16.5303 -0.3566
49.6600 16.5369 -0.3484
49.6800 16.5436 -0.3359
49.7000 16.5503 -0.3559
49.7200 16.5569 -0.3448
49.7400 16.5635 -0.3402
49.7600 16.5701 -0.3571
49.7800 16.5768 -0.3453
49.8000 16.5836 -0.3442
49.8200 16.5902 -0.3581
49.8400 16.5969 -0.3484
49.8600 16.6036 -0.3446
49.8800 16.6103 -0.3606
49.9000 16.6169 -0.3502
49.9200 16.6235 -0.3512
49.9400 16.6302 -0.3504
49.9600 16.6368 -0.3473
49.9800 16.6435 -0.3546
50.0000 16.6502 -0.3527
50.0200 16.6569 -0.3520
50.0400 16.6636 -0.3551
50.0600 16.6703 -0.3517
50.0800 16.6769 -0.3622
50.1000 16.6835 -0.3565
50.1200 16.6901 -0.3516
50.1400 16.6968 -0.3605
50.1600 16.7035 -0.3622
50.1800 16.7102 -0.3500
50.2000 16.7169 -0.3626
50.2200 16.7236 -0.3648
50.2400 16.7302 -0.3521
50.2600 16.7369 -0.3651
50.2800 16.7435 -0.3587
50.3000 16.7501 -0.3574
50.3200 16.7568 -0.3683
50.3400 16.7635 -0.3587
50.3600 16.7702 -0.3638
50.3800 16.7769 -0.3695
50.4000 16.7836 -0.3586
50.4200 16.7903 -0.3637
50.4400 16.7969 -0.3712
50.4600 16.8035 -0.3622
50.4800 16.8102 -0.3640
50.5000 16.8168 -0.3735
50.5200 16.8235 -0.3612
50.5400 16.8302 -0.3695
50.5600 16.8369 -0.3702
50.5800 16.8436 -0.3652
50.6000 16.8503 -0.3720
50.6200 16.8569 -0.3721
50.6400 16.8635 -0.3673
50.6600 16.8701 -0.3716
50.6800 16.8768 -0.3738
50.7000 16.8835 -0.3667
50.7200 16.8903 -0.3700
50.7400 16.8969 -0.3794
50.7600 16.9036 -0.3703
50.7800 16.9102 -0.3736
50.8000 16.9169 -0.3786
50.8200 16.9235 -0.3765
50.8400 16.9301 -0.3703
50.8600 16.9368 -0.3784
50.8800 16.9435 -0.3828
50.9000 16.9502 -0.3706
50.9200 16.9568 -0.3815
50.9400 16.9635 -0.3789
50.9600 16.9702 -0.3732
50.9800 16.9769 -0.3863
51.0000 16.9835 -0.3867
51.0200 16.9901 -0.3639
51.0400 16.9968 -0.3857
51.0600 17.0035 -0.3894
51.0800 17.0102 -0.3709
51.1000 17.0169 -0.3901
51.1200 17.0236 -0.3921
51.1400 17.0303 -0.3719
51.1600 17.0369 -0.3871
51.1800 17.0435 -0.3890
51.2000 17.0501 -0.3781
51.2200 17.0568 -0.3926
51.2400 17.0635 -0.3864
51.2600 17.0703 -0.3772
51.2800 17.0769 -0.3953
51.3000 17.0836 -0.3880
51.3200 17.0903 -0.3770
51.3400 17.0969 -0.3965
51.3600 17.1035 -0.3851
51.3800 17.1101 -0.3806
51.4000 17.1168 -0.3951
51.4200 17.1235 -0.3920
51.4400 17.1302 -0.3769
51.4600 17.1369 -0.3947
51.4800 17.1435 -0.3931
51.5000 17.1502 -0.3868
51.5200 17.1569 -0.3947
51.5400 17.1635 -0.3915
51.5600 17.1701 -0.3804
51.5800 17.1768 -0.4002
51.6000 17.1835 -0.3991
51.6200 17.1902 -0.3858
51.6400 17.1969 -0.3998
51.6600 17.2036 -0.3964
51.6800 17.2103 -0.3852
51.7000 17.2169 -0.4071
51.7200 17.2235 -0.3986
51.7400 17.2301 -0.3863
51.7600 17.2368 -0.4035
51.7800 17.2435 -0.3979
51.8000 17.2502 -0.3936
51.8200 17.2569 -0.4071
51.8400 17.2636 -0.3998
51.8600 17.2703 -0.3949
51.8800 17.2769 -0.4136
51.9000 17.2836 -0.4030
51.9200 17.2902 -0.3951
51.9400 17.2968 -0.4087
51.9600 17.3035 -0.4052
51.9800 17.3102 -0.3933
52.0000 17.3169 -0.4121
52.0200 17.3236 -0.4100
52.0400 17.3303 -0.3974
52.0600 17.3370 -0.4122
52.0800 17.3435 -0.4072
52.1000 17.3501 -0.3977
52.1200 17.3568 -0.4175
52.1400 17.3635 -0.4057
52.1600 17.3702 -0.4012
52.1800 17.3769 -0.4194
52.2000 17.3835 -0.4091
52.2200 17.3902 -0.3998
52.2400 17.3969 -0.4208
52.2600 17.4035 -0.4140
52.2800 17.4101 -0.4015
52.3000 17.4168 -0.4131
52.3200 17.4235 -0.4109
52.3400 17.4302 -0.4085
52.3600 17.4368 -0.4172
52.3800 17.4435 -0.4145
52.4000 17.4502 -0.4052
52.4200 17.4569 -0.4242
52.4400 17.4635 -0.4128
52.4600 17.4701 -0.4070
52.4800 17.4768 -0.4206
52.5000 17.4835 -0.4219
52.5200 17.4902 -0.4074
52.5400 17.4969 -0.4223
52.5600 17.5036 -0.4185
52.5800 17.5103 -0.4122
52.6000 17.5169 -0.4225
52.6200 17.5236 -0.4207
52.6400 17.5302 -0.4089
52.6600 17.5368 -0.4253
52.6800 17.5435 -0.4214
52.7000 17.5502 -0.4048
52.7200 17.5569 -0.4277
52.7400 17.5636 -0.4256
52.7600 17.5703 -0.4073
52.7800 17.5769 -0.4289
52.8000 17.5835 -0.4226
52.8200 17.5901 -0.4126
52.8400 17.5968 -0.4297
52.8600 17.6035 -0.4239
52.8800 17.6102 -0.4184
52.9000 17.6169 -0.4305
52.9200 17.6236 -0.4260
52.9400 17.6302 -0.4163
52.9600 17.6369 -0.4354
52.9800 17.6435 -0.4254
53.0000 17.6501 -0.4218
53.0200 17.6568 -0.4303
53.0400 17.6635 -0.4282
53.0600 17.6702 -0.4298
53.0800 17.6769 -0.4329
53.1000 17.6836 -0.4241
53.1200 17.6902 -0.4352
53.1400 17.6969 -0.4378
53.1600 17.7035 -0.4273
53.1800 17.7101 -0.4318
53.2000 17.7168 -0.4326
53.2200 17.7235 -0.4319
53.2400 17.7302 -0.4428
53.2600 17.7369 -0.4337
53.2800 17.7436 -0.4331
53.3000 17.7503 -0.4427
53.3200 17.7569 -0.4349
53.3400 17.7635 -0.4325
53.3600 17.7702 -0.4444
53.3800 17.7768 -0.4329
53.4000 17.7835 -0.4368
53.4200 17.7903 -0.4471
53.4400 17.7970 -0.4340
53.4600 17.8036 -0.4480
53.4800 17.8103 -0.4464
53.5000 17.8169 -0.4347
53.5200 17.8235 -0.4479
53.5400 17.8302 -0.4451
53.5600 17.8368 -0.4325
53.5800 17.8435 -0.4529
53.6000 17.8502 -0.4446
53.6200 17.8569 -0.4414
53.6400 17.8635 -0.4514
53.6600 17.8702 -0.4463
53.6800 17.8769 -0.4457
53.7000 17.8835 -0.4526
53.7200 17.8901 -0.4408
53.7400 17.8968 -0.4483
53.7600 17.9035 -0.4522
53.7800 17.9102 -0.4465
53.8000 17.9169 -0.4517
53.8200 17.9235 -0.4500
53.8400 17.9302 -0.4461
53.8600 17.9369 -0.4555
53.8800 17.9435 -0.4499
53.9000 17.9501 -0.4441
53.9200 17.9568 -0.4564
53.9400 17.9635 -0.4492
53.9600 17.9702 -0.4520
53.9800 17.9769 -0.4567
54.0000 17.9836 -0.4497
54.0200 17.9903 -0.4529
54.0400 17.9969 -0.4553
54.0600 18.0036 -0.4515
54.0800 18.0102 -0.4648
54.1000 18.0168 -0.4502
54.1200 18.0235 -0.4493
54.1400 18.0302 -0.4619
54.1600 18.0369 -0.4549
54.1800 18.0436 -0.4519
54.2000 18.0503 -0.4665
54.2200 18.0570 -0.4501
54.2400 18.0636 -0.4582
54.2600 18.0702 -0.4654
54.2800 18.0768 -0.4504
54.3000 18.0835 -0.4576
54.3200 18.0902 -0.4690
54.3400 18.0969 -0.4531
54.3600 18.1036 -0.4624
54.3800 18.1102 -0.4699
54.4000 18.1169 -0.4512
54.4200 18.1235 -0.4676
54.4400 18.1301 -0.4723
54.4600 18.1368 -0.4528
54.4800 18.1435 -0.4720
54.5000 18.1502 -0.4734
54.5200 18.1568 -0.4528
54.5400 18.1635 -0.4773
54.5600 18.1702 -0.4734
54.5800 18.1769 -0.4590
54.6000 18.1835 -0.4767
54.6200 18.1901 -0.4728
54.6400 18.1968 -0.4625
54.6600 18.2035 -0.4794
54.6800 18.2102 -0.4723
54.7000 18.2169 -0.4659
54.7200 18.2236 -0.4772
54.7400 18.2303 -0.4732
54.7600 18.2370 -0.4699
54.7800 18.2436 -0.4814
54.8000 18.2502 -0.4720
54.8200 18.2568 -0.4706
54.8400 18.2635 -0.4763
54.8600 18.2702 -0.4823
54.8800 18.2769 -0.4717
54.9000 18.2836 -0.4722
54.9200 18.2903 -0.4819
54.9400 18.2969 -0.4817
54.9600 18.3036 -0.4762
54.9800 18.3102 -0.4822
55.0000 18.3168 -0.4815
55.0200 18.3235 -0.4668
55.0400 18.3302 -0.4887
55.0600 18.3369 -0.4792
55.0800 18.3435 -0.4743
55.1000 18.3502 -0.4907
55.1200 18.3569 -0.4795
55.1400 18.3635 -0.4785
55.1600 18.3701 -0.4980
55.1800 18.3767 -0.4775
55.2000 18.3834 -0.4799
55.2200 18.3901 -0.4941
55.2400 18.3968 -0.4774
55.2600 18.4035 -0.4811
55.2800 18.4102 -0.4974
55.3000 18.4169 -0.4770
55.3200 18.4235 -0.4845
55.3400 18.4301 -0.5016
55.3600 18.4368 -0.4808
55.3800 18.4435 -0.4845
55.4000 18.4502 -0.5025
55.4200 18.4569 -0.4845
55.4400 18.4636 -0.4902
55.4600 18.4703 -0.5025
55.4800 18.4770 -0.4826
55.5000 18.4836 -0.4917
55.5200 18.4902 -0.5053
55.5400 18.4968 -0.4836
55.5600 18.5035 -0.4911
55.5800 18.5102 -0.5075
55.6000 18.5169 -0.4834
55.6200 18.5236 -0.4994
55.6400 18.5303 -0.5058
55.6600 18.5369 -0.4910
55.6800 18.5436 -0.5008
55.7000 18.5502 -0.5086
55.7200 18.5568 -0.4874
55.7400 18.5635 -0.4997
55.7600 18.5702 -0.5116
55.7800 18.5769 -0.4901
55.8000 18.5836 -0.4993
55.8200 18.5902 -0.5161
55.8400 18.5969 -0.4899
55.8600 18.6036 -0.5061
55.8800 18.6102 -0.5131
55.9000 18.6168 -0.4925
55.9200 18.6234 -0.5085
55.9400 18.6301 -0.5144
55.9600 18.6369 -0.4992
55.9800 18.6435 -0.5088
56.0000 18.6502 -0.5146
56.0200 18.6569 -0.4990
56.0400 18.6636 -0.5127
56.0600 18.6702 -0.5205
56.0800 18.6768 -0.4981
56.1000 18.6835 -0.5106
56.1200 18.6902 -0.5243
56.1400 18.6969 -0.5029
56.1600 18.7036 -0.5171
56.1800 18.7103 -0.5172
56.2000 18.7170 -0.5055
56.2200 18.7236 -0.5259
56.2400 18.7302 -0.5214
56.2600 18.7368 -0.4997
56.2800 18.7435 -0.5258
56.3000 18.7502 -0.5246
56.3200 18.7569 -0.5076
56.3400 18.7636 -0.5268
56.3600 18.7703 -0.5282
56.3800 18.7769 -0.5116
56.4000 18.7836 -0.5273
56.4200 18.7902 -0.5240
56.4400 18.7968 -0.5201
56.4600 18.8035 -0.5337
56.4800 18.8102 -0.5211
56.5000 18.8169 -0.5233
56.5200 18.8235 -0.5393
56.5400 18.8302 -0.5226
56.5600 18.8369 -0.5208
56.5800 18.8436 -0.5385
56.6000 18.8502 -0.5255
56.6200 18.8567 -0.5257
56.6400 18.8634 -0.5355
56.6600 18.8701 -0.5241
56.6800 18.8768 -0.5299
56.7000 18.8835 -0.5429
56.7200 18.8902 -0.5238
56.7400 18.8969 -0.5358
56.7600 18.9036 -0.5433
56.7800 18.9102 -0.5241
56.8000 18.9168 -0.5340
56.8200 18.9235 -0.5487
56.8400 18.9302 -0.5201
56.8600 18.9369 -0.5442
56.8800 18.9436 -0.5475
56.9000 18.9503 -0.5196
56.9200 18.9570 -0.5483
56.9400 18.9636 -0.5464
56.9600 18.9702 -0.5135
56.9800 18.9768 -0.5550
57.0000 18.9835 -0.5482
57.0200 18.9902 -0.5195
57.0400 18.9969 -0.5611
57.0600 19.0036 -0.5431
57.0800 19.0102 -0.5266
57.1000 19.0169 -0.5629
57.1200 19.0236 -0.5407
57.1400 19.0302 -0.5294
57.1600 19.0368 -0.5664
57.1800 19.0434 -0.5380
57.2000 19.0501 -0.5387
57.2200 19.0569 -0.5667
57.2400 19.0636 -0.5412
57.2600 19.0703 -0.5436
57.2800 19.0769 -0.5659
57.3000 19.0836 -0.5407
57.3200 19.0902 -0.5522
57.3400 19.0968 -0.5620
57.3600 19.1034 -0.5370
57.3800 19.1101 -0.5517
57.4000 19.1169 -0.5625
57.4200 19.1236 -0.5394
57.4400 19.1302 -0.5642
57.4600 19.1369 -0.5585
57.4800 19.1436 -0.5430
57.5000 19.1502 -0.5664
57.5200 19.1568 -0.5566
57.5400 19.1635 -0.5494
57.5600 19.1702 -0.5659
57.5800 19.1769 -0.5605
57.6000 19.1836 -0.5529
57.6200 19.1903 -0.5641
57.6400 19.1969 -0.5632
57.6600 19.2036 -0.5562
57.6800 19.2102 -0.5639
57.7000 19.2168 -0.5587
57.7200 19.2235 -0.5612
57.7400 19.2302 -0.5635
57.7600 19.2369 -0.5564
57.7800 19.2436 -0.5717
57.8000 19.2503 -0.5669
57.8200 19.2570 -0.5641
57.8400 19.2636 -0.5720
57.8600 19.2702 -0.5636
57.8800 19.2768 -0.5627
57.9000 19.2834 -0.5730
57.9200 19.2901 -0.5654
57.9400 19.2968 -0.5728
57.9600 19.3035 -0.5761
57.9800 19.3102 -0.5588
58.0000 19.3169 -0.5750
58.0200 19.3235 -0.5795
58.0400 19.3302 -0.5657
58.0600 19.3368 -0.5759
58.0800 19.3434 -0.5762
58.1000 19.3501 -0.5652
58.1200 19.3569 -0.5837
58.1400 19.3635 -0.5765
58.1600 19.3702 -0.5726
58.1800 19.3769 -0.5858
58.2000 19.3836 -0.5753
58.2200 19.3902 -0.5677
58.2400 19.3968 -0.5895
58.2600 19.4035 -0.5794
58.2800 19.4102 -0.5683
58.3000 19.4169 -0.5844
58.3200 19.4236 -0.5852
58.3400 19.4302 -0.5707
58.3600 19.4370 -0.5889
58.3800 19.4436 -0.5843
58.4000 19.4502 -0.5781
58.4200 19.4568 -0.5884
58.4400 19.4635 -0.5837
58.4600 19.4702 -0.5782
58.4800 19.4769 -0.5898
58.5000 19.4836 -0.5913
58.5200 19.4903 -0.5785
58.5400 19.4969 -0.5907
58.5600 19.5036 -0.5955
58.5800 19.5102 -0.5807
58.6000 19.5168 -0.5881
58.6200 19.5235 -0.5952
58.6400 19.5302 -0.5845
58.6600 19.5369 -0.5975
58.6800 19.5436 -0.6002
58.7000 19.5502 -0.5841
58.7200 19.5569 -0.5935
58.7400 19.5636 -0.6097
58.7600 19.5702 -0.5844
58.7800 19.5768 -0.5990
58.8000 19.5834 -0.6103
58.8200 19.5901 -0.5885
58.8400 19.5968 -0.6024
58.8600 19.6035 -0.6133
58.8800 19.6102 -0.5884
58.9000 19.6169 -0.6092
58.9200 19.6236 -0.6147
58.9400 19.6302 -0.5937
58.9600 19.6368 -0.6107
58.9800 19.6435 -0.6147
59.0000 19.6502 -0.5955
59.0200 19.6569 -0.6158
59.0400 19.6636 -0.6199
59.0600 19.6703 -0.6043
59.0800 19.6769 -0.6161
59.1000 19.6836 -0.6192
59.1200 19.6902 -0.6116
59.1400 19.6969 -0.6158
59.1600 19.7035 -0.6234
59.1800 19.7102 -0.6137
59.2000 19.7169 -0.6215
59.2200 19.7236 -0.6266
59.2400 19.7303 -0.6129
59.2600 19.7369 -0.6258
59.2800 19.7436 -0.6307
59.3000 19.7502 -0.6259
