Raw Data
Time Displacement Force
(s) (mm) (N)
0.0000 0.0001 -0.2284
0.0200 0.0001 -0.2025
0.0400 0.0009 -0.1696
0.0600 0.0042 -0.1604
0.0800 0.0097 -0.1795
0.1000 0.0155 -0.1810
0.1200 0.0214 -0.1463
0.1400 0.0281 -0.1303
0.1600 0.0354 -0.1309
0.1800 0.0428 -0.0882
0.2000 0.0500 -0.0784
0.2200 0.0568 -0.0684
0.2400 0.0635 -0.0216
0.2600 0.0702 -0.0063
0.2800 0.0768 0.0040
0.3000 0.0835 0.0514
0.3200 0.0903 0.0536
0.3400 0.0970 0.0833
0.3600 0.1037 0.1313
0.3800 0.1103 0.1229
0.4000 0.1170 0.1358
0.4200 0.1236 0.1777
0.4400 0.1303 0.1658
0.4600 0.1370 0.1852
0.4800 0.1437 0.2273
0.5000 0.1504 0.2248
0.5200 0.1571 0.2328
0.5400 0.1637 0.2524
0.5600 0.1703 0.2331
0.5800 0.1769 0.2650
0.6000 0.1836 0.3066
0.6200 0.1904 0.2981
0.6400 0.1971 0.3085
0.6600 0.2037 0.3244
0.6800 0.2104 0.3103
0.7000 0.2171 0.3076
0.7200 0.2237 0.3203
0.7400 0.2303 0.3142
0.7600 0.2369 0.3188
0.7800 0.2436 0.3162
0.8000 0.2503 0.3151
0.8200 0.2570 0.3250
0.8400 0.2637 0.3254
0.8600 0.2704 0.3113
0.8800 0.2770 0.3284
0.9000 0.2837 0.3240
0.9200 0.2903 0.3229
0.9400 0.2969 0.3286
0.9600 0.3036 0.3273
0.9800 0.3103 0.3242
1.0000 0.3170 0.3319
1.0200 0.3237 0.3255
1.0400 0.3303 0.3260
1.0600 0.3370 0.3335
1.0800 0.3436 0.3279
1.1000 0.3503 0.3294
1.1200 0.3569 0.3339
1.1400 0.3636 0.3306
1.1600 0.3703 0.3323
1.1800 0.3771 0.3348
1.2000 0.3837 0.3300
1.2200 0.3904 0.3364
1.2400 0.3971 0.3313
1.2600 0.4037 0.3322
1.2800 0.4103 0.3345
1.3000 0.4170 0.3340
1.3200 0.4237 0.3329
1.3400 0.4304 0.3341
1.3600 0.4370 0.3306
1.3800 0.4437 0.3373
1.4000 0.4504 0.3332
1.4200 0.4571 0.3306
1.4400 0.4637 0.3294
1.4600 0.4703 0.3318
1.4800 0.4769 0.3339
1.5000 0.4836 0.3344
1.5200 0.4903 0.3258
1.5400 0.4970 0.3262
1.5600 0.5037 0.3339
1.5800 0.5104 0.3305
1.6000 0.5170 0.3221
1.6200 0.5236 0.3339
1.6400 0.5303 0.3245
1.6600 0.5369 0.3220
1.6800 0.5436 0.3383
1.7000 0.5503 0.3298
1.7200 0.5570 0.3213
1.7400 0.5637 0.3241
1.7600 0.5703 0.3275
1.7800 0.5770 0.3262
1.8000 0.5837 0.3258
1.8200 0.5903 0.3168
1.8400 0.5970 0.3252
1.8600 0.6036 0.3264
1.8800 0.6103 0.3151
1.9000 0.6170 0.3252
1.9200 0.6237 0.3224
1.9400 0.6304 0.3142
1.9600 0.6371 0.3224
1.9800 0.6437 0.3180
2.0000 0.6503 0.3089
2.0200 0.6569 0.3220
2.0400 0.6636 0.3178
2.0600 0.6703 0.3058
2.0800 0.6770 0.3215
2.1000 0.6837 0.3130
2.1200 0.6904 0.3084
2.1400 0.6971 0.3142
2.1600 0.7037 0.3136
2.1800 0.7103 0.3132
2.2000 0.7169 0.3113
2.2200 0.7236 0.3100
2.2400 0.7303 0.3051
2.2600 0.7370 0.3114
2.2800 0.7437 0.3089
2.3000 0.7503 0.3137
2.3200 0.7570 0.3077
2.3400 0.7637 0.3017
2.3600 0.7703 0.3142
2.3800 0.7769 0.3076
2.4000 0.7836 0.2995
2.4200 0.7903 0.3184
2.4400 0.7970 0.2998
2.4600 0.8037 0.3006
2.4800 0.8104 0.3137
2.5000 0.8171 0.3056
2.5200 0.8237 0.2973
2.5400 0.8303 0.3164
2.5600 0.8369 0.2986
2.5800 0.8436 0.2980
2.6000 0.8503 0.3163
2.6200 0.8571 0.3002
2.6400 0.8638 0.2906
2.6600 0.8704 0.3074
2.6800 0.8771 0.2958
2.7000 0.8837 0.2915
2.7200 0.8903 0.3130
2.7400 0.8969 0.2949
2.7600 0.9036 0.2920
2.7800 0.9103 0.3126
2.8000 0.9171 0.2918
2.8200 0.9237 0.2932
2.8400 0.9304 0.3168
2.8600 0.9371 0.2898
2.8800 0.9437 0.2920
2.9000 0.9503 0.3164
2.9200 0.9569 0.2891
2.9400 0.9636 0.2893
2.9600 0.9703 0.3189
2.9800 0.9770 0.2860
3.0000 0.9837 0.2939
3.0200 0.9904 0.3097
3.0400 0.9971 0.2883
3.0600 1.0037 0.2920
3.0800 1.0103 0.3065
3.1000 1.0169 0.2877
3.1200 1.0235 0.2994
3.1400 1.0303 0.3061
3.1600 1.0370 0.2846
3.1800 1.0437 0.2976
3.2000 1.0503 0.3079
3.2200 1.0570 0.2810
3.2400 1.0637 0.2994
3.2600 1.0703 0.3024
3.2800 1.0769 0.2820
3.3000 1.0836 0.3001
3.3200 1.0903 0.2990
3.3400 1.0970 0.2804
3.3600 1.1037 0.2986
3.3800 1.1104 0.3003
3.4000 1.1171 0.2764
3.4200 1.1238 0.2977
3.4400 1.1304 0.3034
3.4600 1.1370 0.2806
3.4800 1.1436 0.2951
3.5000 1.1503 0.3001
3.5200 1.1570 0.2806
3.5400 1.1637 0.2997
3.5600 1.1704 0.2953
3.5800 1.1771 0.2828
3.6000 1.1837 0.3004
3.6200 1.1903 0.2954
3.6400 1.1969 0.2808
3.6600 1.2036 0.3005
3.6800 1.2103 0.2908
3.7000 1.2170 0.2851
3.7200 1.2237 0.2945
3.7400 1.2304 0.2909
3.7600 1.2370 0.2876
3.7800 1.2437 0.2896
3.8000 1.2503 0.2875
3.8200 1.2569 0.2883
3.8400 1.2636 0.2914
3.8600 1.2703 0.2865
3.8800 1.2770 0.2901
3.9000 1.2837 0.2863
3.9200 1.2903 0.2891
3.9400 1.2970 0.2880
3.9600 1.3037 0.2841
3.9800 1.3103 0.2838
4.0000 1.3169 0.2898
4.0200 1.3236 0.2835
4.0400 1.3303 0.2912
4.0600 1.3370 0.2831
4.0800 1.3437 0.2824
4.1000 1.3504 0.2868
4.1200 1.3571 0.2842
4.1400 1.3637 0.2790
4.1600 1.3704 0.2901
4.1800 1.3769 0.2799
4.2000 1.3836 0.2796
4.2200 1.3903 0.2900
4.2400 1.3970 0.2795
4.2600 1.4037 0.2791
4.2800 1.4104 0.2930
4.3000 1.4171 0.2733
4.3200 1.4238 0.2729
4.3400 1.4304 0.2922
4.3600 1.4370 0.2791
4.3800 1.4436 0.2763
4.4000 1.4503 0.2897
4.4200 1.4570 0.2749
4.4400 1.4637 0.2756
4.4600 1.4704 0.2895
4.4800 1.4770 0.2716
4.5000 1.4837 0.2772
4.5200 1.4903 0.2872
4.5400 1.4969 0.2739
4.5600 1.5036 0.2748
4.5800 1.5103 0.2865
4.6000 1.5170 0.2741
4.6200 1.5237 0.2774
4.6400 1.5304 0.2763
4.6600 1.5371 0.2745
4.6800 1.5437 0.2726
4.7000 1.5504 0.2867
4.7200 1.5570 0.2756
4.7400 1.5636 0.2739
4.7600 1.5703 0.2809
4.7800 1.5771 0.2766
4.8000 1.5838 0.2732
4.8200 1.5904 0.2817
4.8400 1.5971 0.2753
4.8600 1.6037 0.2699
4.8800 1.6104 0.2758
4.9000 1.6170 0.2749
4.9200 1.6236 0.2717
4.9400 1.6303 0.2749
4.9600 1.6370 0.2704
4.9800 1.6437 0.2701
5.0000 1.6504 0.2769
5.0200 1.6571 0.2730
5.0400 1.6637 0.2713
5.0600 1.6704 0.2697
5.0800 1.6770 0.2722
5.1000 1.6836 0.2723
5.1200 1.6903 0.2739
5.1400 1.6970 0.2673
5.1600 1.7037 0.2686
5.1800 1.7104 0.2759
5.2000 1.7171 0.2725
5.2200 1.7237 0.2613
5.2400 1.7304 0.2733
5.2600 1.7370 0.2744
5.2800 1.7436 0.2635
5.3000 1.7503 0.2659
5.3200 1.7570 0.2746
5.3400 1.7637 0.2654
5.3600 1.7703 0.2718
5.3800 1.7770 0.2741
5.4000 1.7837 0.2694
5.4200 1.7903 0.2686
5.4400 1.7970 0.2638
5.4600 1.8036 0.2652
5.4800 1.8103 0.2707
5.5000 1.8170 0.2652
5.5200 1.8237 0.2657
5.5400 1.8304 0.2683
5.5600 1.8371 0.2666
5.5800 1.8438 0.2678
5.6000 1.8504 0.2619
5.6200 1.8570 0.2711
5.6400 1.8636 0.2644
5.6600 1.8703 0.2649
5.6800 1.8770 0.2682
5.7000 1.8837 0.2666
5.7200 1.8904 0.2619
5.7400 1.8971 0.2672
5.7600 1.9037 0.2616
5.7800 1.9103 0.2642
5.8000 1.9169 0.2727
5.8200 1.9235 0.2577
5.8400 1.9302 0.2641
5.8600 1.9370 0.2718
5.8800 1.9437 0.2593
5.9000 1.9503 0.2663
5.9200 1.9570 0.2653
5.9400 1.9637 0.2581
5.9600 1.9704 0.2635
5.9800 1.9770 0.2691
6.0000 1.9836 0.2635
6.0200 1.9903 0.2642
6.0400 1.9970 0.2650
6.0600 2.0037 0.2588
6.0800 2.0104 0.2644
6.1000 2.0171 0.2642
6.1200 2.0238 0.2626
6.1400 2.0304 0.2622
6.1600 2.0370 0.2619
6.1800 2.0436 0.2624
6.2000 2.0503 0.2576
6.2200 2.0570 0.2592
6.2400 2.0637 0.2654
6.2600 2.0704 0.2489
6.2800 2.0771 0.2662
6.3000 2.0837 0.2594
6.3200 2.0904 0.2519
6.3400 2.0970 0.2684
6.3600 2.1036 0.2605
6.3800 2.1103 0.2461
6.4000 2.1170 0.2643
6.4200 2.1237 0.2579
6.4400 2.1304 0.2452
6.4600 2.1371 0.2669
6.4800 2.1438 0.2551
6.5000 2.1504 0.2449
6.5200 2.1570 0.2608
6.5400 2.1636 0.2553
6.5600 2.1703 0.2505
6.5800 2.1770 0.2583
6.6000 2.1837 0.2517
6.6200 2.1903 0.2472
6.6400 2.1970 0.2589
6.6600 2.2037 0.2522
6.6800 2.2104 0.2408
6.7000 2.2170 0.2577
6.7200 2.2236 0.2546
6.7400 2.2302 0.2458
6.7600 2.2370 0.2526
6.7800 2.2437 0.2592
6.8000 2.2504 0.2454
6.8200 2.2570 0.2488
6.8400 2.2637 0.2557
6.8600 2.2704 0.2469
6.8800 2.2770 0.2511
6.9000 2.2836 0.2571
6.9200 2.2903 0.2411
6.9400 2.2970 0.2450
6.9600 2.3037 0.2614
6.9800 2.3104 0.2473
7.0000 2.3170 0.2435
7.0200 2.3237 0.2578
7.0400 2.3304 0.2361
7.0600 2.3370 0.2460
7.0800 2.3436 0.2603
7.1000 2.3503 0.2398
7.1200 2.3570 0.2458
7.1400 2.3637 0.2532
7.1600 2.3704 0.2339
7.1800 2.3771 0.2525
7.2000 2.3838 0.2565
7.2200 2.3904 0.2240
7.2400 2.3970 0.2507
7.2600 2.4036 0.2579
7.2800 2.4103 0.2265
7.3000 2.4170 0.2505
7.3200 2.4237 0.2645
7.3400 2.4304 0.2246
7.3600 2.4370 0.2411
7.3800 2.4437 0.2590
7.4000 2.4504 0.2306
7.4200 2.4570 0.2426
7.4400 2.4636 0.2600
7.4600 2.4702 0.2226
7.4800 2.4769 0.2459
7.5000 2.4836 0.2553
7.5200 2.4903 0.2230
7.5400 2.4970 0.2495
7.5600 2.5037 0.2558
7.5800 2.5104 0.2257
7.6000 2.5170 0.2449
7.6200 2.5236 0.2483
7.6400 2.5303 0.2245
7.6600 2.5370 0.2536
7.6800 2.5437 0.2476
7.7000 2.5504 0.2266
7.7200 2.5571 0.2472
7.7400 2.5638 0.2400
7.7600 2.5704 0.2213
7.7800 2.5770 0.2592
7.8000 2.5836 0.2523
7.8200 2.5903 0.2129
7.8400 2.5970 0.2413
7.8600 2.6037 0.2525
7.8800 2.6104 0.2234
7.9000 2.6171 0.2379
7.9200 2.6237 0.2405
7.9400 2.6304 0.2261
7.9600 2.6370 0.2459
7.9800 2.6436 0.2449
8.0000 2.6503 0.2191
8.0200 2.6570 0.2458
8.0400 2.6637 0.2450
8.0600 2.6703 0.2197
8.0800 2.6770 0.2406
8.1000 2.6837 0.2416
8.1200 2.6904 0.2238
8.1400 2.6970 0.2344
8.1600 2.7036 0.2422
8.1800 2.7102 0.2336
8.2000 2.7169 0.2364
8.2200 2.7237 0.2290
8.2400 2.7303 0.2342
8.2600 2.7370 0.2530
8.2800 2.7437 0.2320
8.3000 2.7504 0.2098
8.3200 2.7570 0.2400
8.3400 2.7636 0.2511
8.3600 2.7703 0.2251
8.3800 2.7770 0.2191
8.4000 2.7837 0.2385
8.4200 2.7904 0.2342
8.4400 2.7970 0.2372
8.4600 2.8037 0.2268
8.4800 2.8104 0.2231
8.5000 2.8170 0.2383
8.5200 2.8236 0.2339
8.5400 2.8303 0.2240
8.5600 2.8370 0.2305
8.5800 2.8437 0.2292
8.6000 2.8504 0.2260
8.6200 2.8571 0.2329
8.6400 2.8638 0.2340
8.6600 2.8705 0.2256
8.6800 2.8771 0.2218
8.7000 2.8837 0.2313
8.7200 2.8903 0.2350
8.7400 2.8970 0.2324
8.7600 2.9037 0.2234
8.7800 2.9104 0.2217
8.8000 2.9170 0.2309
8.8200 2.9237 0.2395
8.8400 2.9304 0.2227
8.8600 2.9370 0.2182
8.8800 2.9436 0.2343
8.9000 2.9502 0.2315
8.9200 2.9569 0.2180
8.9400 2.9636 0.2350
8.9600 2.9703 0.2269
8.9800 2.9770 0.2143
9.0000 2.9837 0.2313
9.0200 2.9904 0.2267
9.0400 2.9970 0.2168
9.0600 3.0036 0.2327
9.0800 3.0103 0.2270
9.1000 3.0170 0.2192
9.1200 3.0237 0.2313
9.1400 3.0304 0.2280
9.1600 3.0371 0.2180
9.1800 3.0438 0.2272
9.2000 3.0504 0.2214
9.2200 3.0571 0.2191
9.2400 3.0636 0.2245
9.2600 3.0703 0.2210
9.2800 3.0770 0.2241
9.3000 3.0837 0.2242
9.3200 3.0904 0.2212
9.3400 3.0971 0.2161
9.3600 3.1038 0.2284
9.3800 3.1104 0.2233
9.4000 3.1170 0.2134
9.4200 3.1236 0.2217
9.4400 3.1303 0.2320
9.4600 3.1370 0.2109
9.4800 3.1437 0.2243
9.5000 3.1504 0.2296
9.5200 3.1570 0.2104
9.5400 3.1637 0.2254
9.5600 3.1704 0.2272
9.5800 3.1770 0.2086
9.6000 3.1836 0.2278
9.6200 3.1903 0.2271
9.6400 3.1970 0.2052
9.6600 3.2037 0.2240
9.6800 3.2103 0.2284
9.7000 3.2170 0.2060
9.7200 3.2237 0.2185
9.7400 3.2303 0.2268
9.7600 3.2370 0.2074
9.7800 3.2436 0.2216
9.8000 3.2502 0.2244
9.8200 3.2570 0.2147
9.8400 3.2637 0.2220
9.8600 3.2704 0.2109
9.8800 3.2770 0.2111
9.9000 3.2837 0.2311
9.9200 3.2904 0.2130
9.9400 3.2971 0.2078
9.9600 3.3037 0.2253
9.9800 3.3103 0.2208
10.0000 3.3170 0.2031
10.0200 3.3237 0.2173
10.0400 3.3304 0.2260
10.0600 3.3371 0.2122
10.0800 3.3437 0.2079
10.1000 3.3504 0.2194
10.1200 3.3570 0.2130
10.1400 3.3636 0.2181
10.1600 3.3703 0.2158
10.1800 3.3769 0.2051
10.2000 3.3836 0.2185
10.2200 3.3903 0.2206
10.2400 3.3970 0.2050
10.2600 3.4037 0.2177
10.2800 3.4104 0.2202
10.3000 3.4170 0.2076
10.3200 3.4236 0.2182
10.3400 3.4302 0.2137
10.3600 3.4369 0.2083
10.3800 3.4437 0.2150
10.4000 3.4504 0.2134
10.4200 3.4570 0.2170
10.4400 3.4637 0.2154
10.4600 3.4704 0.1994
10.4800 3.4770 0.2115
10.5000 3.4836 0.2163
10.5200 3.4903 0.2144
10.5400 3.4970 0.2109
10.5600 3.5037 0.2066
10.5800 3.5104 0.2072
10.6000 3.5170 0.2202
10.6200 3.5237 0.2078
10.6400 3.5304 0.2048
10.6600 3.5371 0.2120
10.6800 3.5436 0.2042
10.7000 3.5502 0.2140
10.7200 3.5569 0.2174
10.7400 3.5636 0.1944
10.7600 3.5704 0.2102
10.7800 3.5771 0.2168
10.8000 3.5838 0.1969
10.8200 3.5904 0.2086
10.8400 3.5971 0.2087
10.8600 3.6037 0.1980
10.8800 3.6103 0.2126
10.9000 3.6170 0.2125
10.9200 3.6237 0.1974
10.9400 3.6304 0.2098
10.9600 3.6371 0.2053
10.9800 3.6437 0.2073
11.0000 3.6504 0.2114
11.0200 3.6570 0.1989
11.0400 3.6636 0.2000
11.0600 3.6702 0.2197
11.0800 3.6769 0.2006
11.1000 3.6836 0.2010
11.1200 3.6903 0.2057
11.1400 3.6970 0.1929
11.1600 3.7037 0.2056
11.1800 3.7103 0.2215
11.2000 3.7170 0.1890
11.2200 3.7236 0.1936
11.2400 3.7303 0.2137
11.2600 3.7369 0.2077
11.2800 3.7437 0.2027
11.3000 3.7504 0.2003
11.3200 3.7571 0.1939
11.3400 3.7638 0.1993
11.3600 3.7705 0.2131
11.3800 3.7771 0.1969
11.4000 3.7837 0.1964
11.4200 3.7903 0.2028
11.4400 3.7969 0.1977
11.4600 3.8037 0.2031
11.4800 3.8104 0.2058
11.5000 3.8170 0.1878
11.5200 3.8237 0.1957
11.5400 3.8304 0.2076
11.5600 3.8371 0.2002
11.5800 3.8437 0.1893
11.6000 3.8503 0.2066
11.6200 3.8570 0.1920
11.6400 3.8636 0.2041
11.6600 3.8703 0.2063
11.6800 3.8770 0.1927
11.7000 3.8837 0.1945
11.7200 3.8904 0.2038
11.7400 3.8970 0.1996
11.7600 3.9036 0.2004
11.7800 3.9102 0.1936
11.8000 3.9169 0.1933
11.8200 3.9236 0.2055
11.8400 3.9303 0.2013
11.8600 3.9370 0.1933
11.8800 3.9437 0.1923
11.9000 3.9504 0.1932
11.9200 3.9570 0.2098
11.9400 3.9636 0.1950
11.9600 3.9703 0.1912
11.9800 3.9769 0.2006
12.0000 3.9837 0.1860
12.0200 3.9904 0.1914
12.0400 3.9971 0.2177
12.0600 4.0037 0.1904
12.0800 4.0104 0.1703
12.1000 4.0171 0.2075
12.1200 4.0237 0.1982
12.1400 4.0303 0.1952
12.1600 4.0370 0.1935
12.1800 4.0437 0.1869
12.2000 4.0504 0.1938
12.2200 4.0570 0.2004
12.2400 4.0637 0.1935
12.2600 4.0704 0.1940
12.2800 4.0771 0.1909
12.3000 4.0836 0.1861
12.3200 4.0902 0.2009
12.3400 4.0969 0.1994
12.3600 4.1036 0.1848
12.3800 4.1103 0.1879
12.4000 4.1170 0.1928
12.4200 4.1237 0.1965
12.4400 4.1304 0.1891
12.4600 4.1371 0.1878
12.4800 4.1437 0.1975
12.5000 4.1503 0.1938
12.5200 4.1569 0.1873
12.5400 4.1636 0.1885
12.5600 4.1703 0.1930
12.5800 4.1770 0.1844
12.6000 4.1837 0.1910
12.6200 4.1904 0.1906
12.6400 4.1971 0.1894
12.6600 4.2037 0.1861
12.6800 4.2103 0.1914
12.7000 4.2170 0.1898
12.7200 4.2236 0.1819
12.7400 4.2303 0.1895
12.7600 4.2370 0.1885
12.7800 4.2437 0.1821
12.8000 4.2504 0.1848
12.8200 4.2571 0.1919
12.8400 4.2637 0.1924
12.8600 4.2703 0.1800
12.8800 4.2769 0.1864
12.9000 4.2836 0.1923
12.9200 4.2904 0.1809
12.9400 4.2971 0.1878
12.9600 4.3038 0.1950
12.9800 4.3104 0.1810
13.0000 4.3171 0.1825
13.0200 4.3237 0.1881
13.0400 4.3303 0.1837
13.0600 4.3369 0.1950
13.0800 4.3436 0.1802
13.1000 4.3503 0.1773
13.1200 4.3570 0.1917
13.1400 4.3637 0.1829
13.1600 4.3704 0.1783
13.1800 4.3771 0.1964
13.2000 4.3837 0.1756
13.2200 4.3903 0.1791
13.2400 4.3969 0.1938
13.2600 4.4036 0.1785
13.2800 4.4103 0.1770
13.3000 4.4170 0.1971
13.3200 4.4237 0.1774
13.3400 4.4304 0.1776
13.3600 4.4371 0.1904
13.3800 4.4437 0.1770
13.4000 4.4503 0.1803
13.4200 4.4569 0.1920
13.4400 4.4636 0.1758
13.4600 4.4704 0.1775
13.4800 4.4771 0.1851
13.5000 4.4838 0.1768
13.5200 4.4904 0.1777
13.5400 4.4971 0.1812
13.5600 4.5037 0.1830
13.5800 4.5103 0.1742
13.6000 4.5170 0.1843
13.6200 4.5237 0.1793
13.6400 4.5304 0.1703
13.6600 4.5371 0.1831
13.6800 4.5437 0.1818
13.7000 4.5504 0.1652
13.7200 4.5570 0.1839
13.7400 4.5637 0.1811
13.7600 4.5703 0.1691
13.7800 4.5769 0.1865
13.8000 4.5836 0.1835
13.8200 4.5903 0.1582
13.8400 4.5970 0.1820
13.8600 4.6037 0.1897
13.8800 4.6103 0.1654
13.9000 4.6170 0.1801
13.9200 4.6236 0.1818
13.9400 4.6302 0.1646
13.9600 4.6369 0.1848
13.9800 4.6436 0.1798
14.0000 4.6504 0.1608
14.0200 4.6571 0.1816
14.0400 4.6637 0.1755
14.0600 4.6704 0.1690
14.0800 4.6770 0.1788
14.1000 4.6837 0.1666
14.1200 4.6903 0.1670
14.1400 4.6969 0.1855
14.1600 4.7036 0.1714
14.1800 4.7104 0.1661
14.2000 4.7171 0.1798
14.2200 4.7237 0.1745
14.2400 4.7304 0.1653
14.2600 4.7371 0.1822
14.2800 4.7437 0.1696
14.3000 4.7503 0.1662
14.3200 4.7570 0.1752
14.3400 4.7636 0.1794
14.3600 4.7703 0.1663
14.3800 4.7770 0.1683
14.4000 4.7837 0.1792
14.4200 4.7904 0.1685
14.4400 4.7971 0.1677
14.4600 4.8037 0.1771
14.4800 4.8103 0.1717
14.5000 4.8169 0.1690
14.5200 4.8236 0.1745
14.5400 4.8303 0.1659
14.5600 4.8370 0.1714
14.5800 4.8437 0.1762
14.6000 4.8503 0.1663
14.6200 4.8570 0.1690
14.6400 4.8636 0.1695
14.6600 4.8702 0.1622
14.6800 4.8768 0.1762
14.7000 4.8835 0.1753
14.7200 4.8902 0.1637
14.7400 4.8969 0.1702
14.7600 4.9036 0.1735
14.7800 4.9104 0.1601
14.8000 4.9171 0.1757
14.8200 4.9237 0.1664
14.8400 4.9304 0.1583
14.8600 4.9370 0.1738
14.8800 4.9437 0.1758
14.9000 4.9504 0.1544
14.9200 4.9570 0.1730
14.9400 4.9637 0.1705
14.9600 4.9704 0.1553
14.9800 4.9771 0.1727
15.0000 4.9837 0.1672
15.0200 4.9903 0.1563
15.0400 4.9969 0.1733
15.0600 5.0036 0.1681
15.0800 5.0103 0.1543
15.1000 5.0171 0.1669
15.1200 5.0237 0.1601
15.1400 5.0304 0.1613
15.1600 5.0371 0.1668
15.1800 5.0437 0.1661
15.2000 5.0503 0.1543
15.2200 5.0570 0.1625
15.2400 5.0636 0.1646
15.2600 5.0703 0.1671
15.2800 5.0770 0.1586
15.3000 5.0837 0.1609
15.3200 5.0904 0.1571
15.3400 5.0971 0.1615
15.3600 5.1037 0.1643
15.3800 5.1103 0.1616
15.4000 5.1169 0.1519
15.4200 5.1236 0.1644
15.4400 5.1303 0.1623
15.4600 5.1370 0.1501
15.4800 5.1436 0.1656
15.5000 5.1503 0.1559
15.5200 5.1569 0.1505
15.5400 5.1636 0.1742
15.5600 5.1702 0.1528
15.5800 5.1769 0.1441
15.6000 5.1837 0.1723
15.6200 5.1904 0.1564
15.6400 5.1971 0.1451
15.6600 5.2037 0.1720
15.6800 5.2104 0.1536
15.7000 5.2171 0.1366
15.7200 5.2238 0.1682
15.7400 5.2304 0.1574
15.7600 5.2370 0.1508
15.7800 5.2437 0.1613
15.8000 5.2504 0.1439
15.8200 5.2571 0.1533
15.8400 5.2638 0.1731
15.8600 5.2704 0.1382
15.8800 5.2771 0.1453
15.9000 5.2837 0.1809
15.9200 5.2903 0.1432
15.9400 5.2969 0.1334
15.9600 5.3036 0.1759
15.9800 5.3103 0.1503
16.0000 5.3170 0.1466
16.0200 5.3237 0.1626
16.0400 5.3304 0.1404
16.0600 5.3370 0.1523
16.0800 5.3437 0.1663
16.1000 5.3503 0.1319
16.1200 5.3569 0.1682
16.1400 5.3636 0.1806
16.1600 5.3704 0.1131
16.1800 5.3770 0.1369
16.2000 5.3837 0.1958
16.2200 5.3903 0.1718
16.2400 5.3970 0.1149
16.2600 5.4037 0.1416
16.2800 5.4103 0.1752
16.3000 5.4169 0.1503
16.3200 5.4236 0.1535
16.3400 5.4302 0.1504
16.3600 5.4370 0.1488
16.3800 5.4437 0.1510
16.4000 5.4505 0.1452
16.4200 5.4572 0.1505
16.4400 5.4638 0.1627
16.4600 5.4704 0.1526
16.4800 5.4769 0.1271
16.5000 5.4836 0.1560
16.5200 5.4903 0.1680
16.5400 5.4971 0.1414
16.5600 5.5037 0.1494
16.5800 5.5104 0.1564
16.6000 5.5171 0.1413
16.6200 5.5237 0.1591
16.6400 5.5303 0.1475
16.6600 5.5369 0.1390
16.6800 5.5436 0.1803
16.7000 5.5503 0.1468
16.7200 5.5570 0.1150
16.7400 5.5637 0.1578
16.7600 5.5704 0.1710
16.7800 5.5770 0.1438
16.8000 5.5837 0.1452
16.8200 5.5903 0.1426
16.8400 5.5969 0.1475
16.8600 5.6036 0.1545
16.8800 5.6103 0.1509
16.9000 5.6170 0.1506
16.9200 5.6237 0.1450
16.9400 5.6304 0.1386
16.9600 5.6371 0.1468
16.9800 5.6437 0.1527
17.0000 5.6503 0.1611
17.0200 5.6569 0.1314
17.0400 5.6636 0.1413
17.0600 5.6703 0.1545
17.0800 5.6770 0.1439
17.1000 5.6837 0.1580
17.1200 5.6904 0.1439
17.1400 5.6970 0.1275
17.1600 5.7036 0.1588
17.1800 5.7103 0.1575
17.2000 5.7170 0.1332
17.2200 5.7237 0.1587
17.2400 5.7304 0.1418
17.2600 5.7371 0.1376
17.2800 5.7438 0.1680
17.3000 5.7504 0.1370
17.3200 5.7571 0.1392
17.3400 5.7638 0.1667
17.3600 5.7704 0.1322
17.3800 5.7770 0.1445
17.4000 5.7836 0.1616
17.4200 5.7903 0.1338
17.4400 5.7970 0.1489
17.4600 5.8037 0.1598
17.4800 5.8104 0.1303
17.5000 5.8171 0.1542
17.5200 5.8237 0.1484
17.5400 5.8303 0.1322
17.5600 5.8369 0.1618
17.5800 5.8435 0.1458
17.6000 5.8503 0.1272
17.6200 5.8570 0.1627
17.6400 5.8637 0.1454
17.6600 5.8704 0.1379
17.6800 5.8770 0.1620
17.7000 5.8837 0.1317
17.7200 5.8903 0.1419
17.7400 5.8970 0.1628
17.7600 5.9036 0.1320
17.7800 5.9103 0.1446
17.8000 5.9170 0.1601
17.8200 5.9237 0.1261
17.8400 5.9304 0.1482
17.8600 5.9371 0.1561
17.8800 5.9438 0.1323
17.9000 5.9504 0.1498
17.9200 5.9570 0.1457
17.9400 5.9636 0.1267
17.9600 5.9703 0.1590
17.9800 5.9770 0.1448
18.0000 5.9837 0.1314
18.0200 5.9905 0.1436
18.0400 5.9971 0.1398
18.0600 6.0038 0.1364
18.0800 6.0104 0.1489
18.1000 6.0169 0.1430
18.1200 6.0236 0.1347
18.1400 6.0303 0.1478
18.1600 6.0370 0.1407
18.1800 6.0437 0.1354
18.2000 6.0504 0.1386
18.2200 6.0570 0.1452
18.2400 6.0637 0.1366
18.2600 6.0703 0.1324
18.2800 6.0769 0.1409
18.3000 6.0836 0.1421
18.3200 6.0903 0.1361
18.3400 6.0970 0.1403
18.3600 6.1037 0.1376
18.3800 6.1103 0.1430
18.4000 6.1170 0.1385
18.4200 6.1237 0.1330
18.4400 6.1304 0.1385
18.4600 6.1370 0.1386
18.4800 6.1436 0.1337
18.5000 6.1503 0.1454
18.5200 6.1570 0.1373
18.5400 6.1637 0.1294
18.5600 6.1704 0.1410
18.5800 6.1771 0.1397
18.6000 6.1838 0.1266
18.6200 6.1904 0.1436
18.6400 6.1970 0.1346
18.6600 6.2036 0.1266
18.6800 6.2103 0.1532
18.7000 6.2170 0.1341
18.7200 6.2237 0.1197
18.7400 6.2304 0.1439
18.7600 6.2370 0.1323
18.7800 6.2438 0.1245
18.8000 6.2504 0.1415
18.8200 6.2570 0.1292
18.8400 6.2636 0.1264
18.8600 6.2703 0.1466
18.8800 6.2770 0.1369
18.9000 6.2837 0.1179
18.9200 6.2904 0.1410
18.9400 6.2970 0.1359
18.9600 6.3037 0.1276
18.9800 6.3104 0.1396
19.0000 6.3169 0.1261
19.0200 6.3236 0.1277
19.0400 6.3302 0.1422
19.0600 6.3370 0.1238
19.0800 6.3437 0.1263
19.1000 6.3504 0.1442
19.1200 6.3570 0.1227
19.1400 6.3637 0.1200
19.1600 6.3703 0.1373
19.1800 6.3770 0.1291
19.2000 6.3836 0.1336
19.2200 6.3903 0.1331
19.2400 6.3971 0.1168
19.2600 6.4038 0.1365
19.2800 6.4104 0.1325
19.3000 6.4171 0.1194
19.3200 6.4237 0.1349
19.3400 6.4304 0.1260
19.3600 6.4370 0.1216
19.3800 6.4436 0.1353
19.4000 6.4503 0.1185
19.4200 6.4570 0.1342
19.4400 6.4637 0.1345
19.4600 6.4704 0.1094
19.4800 6.4771 0.1394
19.5000 6.4838 0.1386
19.5200 6.4904 0.1034
19.5400 6.4970 0.1361
19.5600 6.5036 0.1416
19.5800 6.5102 0.1161
19.6000 6.5170 0.1290
19.6200 6.5237 0.1252
19.6400 6.5304 0.1244
19.6600 6.5371 0.1403
19.6800 6.5438 0.1147
19.7000 6.5504 0.1180
19.7200 6.5569 0.1447
19.7400 6.5635 0.1202
19.7600 6.5702 0.1197
19.7800 6.5770 0.1377
19.8000 6.5837 0.1221
19.8200 6.5903 0.1205
19.8400 6.5970 0.1356
19.8600 6.6037 0.1195
19.8800 6.6103 0.1339
19.9000 6.6170 0.1303
19.9200 6.6236 0.1152
19.9400 6.6303 0.1284
19.9600 6.6370 0.1320
19.9800 6.6437 0.1179
20.0000 6.6504 0.1266
20.0200 6.6571 0.1278
20.0400 6.6638 0.1232
20.0600 6.6704 0.1223
20.0800 6.6770 0.1247
20.1000 6.6836 0.1193
20.1200 6.6903 0.1252
20.1400 6.6970 0.1265
20.1600 6.7037 0.1164
20.1800 6.7104 0.1217
20.2000 6.7171 0.1319
20.2200 6.7238 0.1191
20.2400 6.7304 0.1131
20.2600 6.7370 0.1422
20.2800 6.7436 0.1242
20.3000 6.7503 0.1045
20.3200 6.7570 0.1291
20.3400 6.7637 0.1349
20.3600 6.7703 0.1078
20.3800 6.7770 0.1239
20.4000 6.7837 0.1267
20.4200 6.7904 0.1123
20.4400 6.7970 0.1251
20.4600 6.8036 0.1235
20.4800 6.8103 0.1120
20.5000 6.8170 0.1334
20.5200 6.8237 0.1062
20.5400 6.8303 0.1110
20.5600 6.8370 0.1395
20.5800 6.8437 0.1102
20.6000 6.8504 0.1046
20.6200 6.8570 0.1245
20.6400 6.8636 0.1088
20.6600 6.8703 0.1243
20.6800 6.8770 0.1268
20.7000 6.8837 0.1037
20.7200 6.8904 0.1187
20.7400 6.8971 0.1260
20.7600 6.9038 0.1029
20.7800 6.9104 0.1277
20.8000 6.9170 0.1179
20.8200 6.9236 0.0987
20.8400 6.9303 0.1363
20.8600 6.9370 0.1101
20.8800 6.9437 0.1044
20.9000 6.9504 0.1390
20.9200 6.9571 0.1053
20.9400 6.9637 0.1047
20.9600 6.9704 0.1319
20.9800 6.9770 0.0998
21.0000 6.9837 0.1092
21.0200 6.9903 0.1302
21.0400 6.9970 0.0997
21.0600 7.0037 0.1083
21.0800 7.0103 0.1310
21.1000 7.0170 0.0977
21.1200 7.0237 0.1152
21.1400 7.0304 0.1201
21.1600 7.0370 0.0988
21.1800 7.0436 0.1221
21.2000 7.0502 0.1175
21.2200 7.0569 0.0991
21.2400 7.0636 0.1183
21.2600 7.0703 0.1099
21.2800 7.0770 0.1019
21.3000 7.0837 0.1205
21.3200 7.0903 0.1080
21.3400 7.0970 0.1035
21.3600 7.1036 0.1200
21.3800 7.1103 0.1067
21.4000 7.1170 0.1033
21.4200 7.1237 0.1173
21.4400 7.1304 0.0996
21.4600 7.1370 0.1093
21.4800 7.1437 0.1155
21.5000 7.1504 0.0990
21.5200 7.1570 0.1086
21.5400 7.1637 0.1154
21.5600 7.1703 0.1025
21.5800 7.1770 0.1116
21.6000 7.1837 0.1118
21.6200 7.1904 0.1025
21.6400 7.1971 0.1076
21.6600 7.2038 0.1131
21.6800 7.2104 0.0996
21.7000 7.2170 0.1095
21.7200 7.2236 0.1099
21.7400 7.2303 0.0993
21.7600 7.2370 0.1109
21.7800 7.2437 0.1116
21.8000 7.2504 0.1016
21.8200 7.2571 0.1089
21.8400 7.2637 0.1138
21.8600 7.2704 0.0984
21.8800 7.2770 0.1079
21.9000 7.2836 0.1092
21.9200 7.2903 0.1045
21.9400 7.2969 0.1069
21.9600 7.3036 0.1098
21.9800 7.3103 0.1002
22.0000 7.3170 0.1059
22.0200 7.3237 0.1094
22.0400 7.3304 0.1035
22.0600 7.3370 0.0991
22.0800 7.3436 0.1120
22.1000 7.3503 0.1020
22.1200 7.3570 0.1032
22.1400 7.3637 0.1098
22.1600 7.3704 0.1020
22.1800 7.3771 0.0991
22.2000 7.3838 0.1096
22.2200 7.3904 0.1045
22.2400 7.3970 0.0972
22.2600 7.4036 0.1045
22.2800 7.4103 0.1057
22.3000 7.4170 0.0961
22.3200 7.4237 0.1105
22.3400 7.4304 0.1045
22.3600 7.4371 0.0898
22.3800 7.4437 0.1165
22.4000 7.4504 0.1020
22.4200 7.4570 0.0924
22.4400 7.4636 0.1110
22.4600 7.4703 0.1074
22.4800 7.4769 0.0935
22.5000 7.4836 0.1117
22.5200 7.4903 0.1001
22.5400 7.4970 0.0927
22.5600 7.5037 0.1166
22.5800 7.5104 0.0967
22.6000 7.5170 0.0901
22.6200 7.5236 0.1168
22.6400 7.5302 0.0913
22.6600 7.5369 0.0938
22.6800 7.5437 0.1139
22.7000 7.5504 0.0946
22.7200 7.5571 0.0937
22.7400 7.5637 0.1132
22.7600 7.5704 0.0876
22.7800 7.5770 0.0966
22.8000 7.5836 0.1129
22.8200 7.5903 0.0887
22.8400 7.5970 0.0932
22.8600 7.6037 0.1034
22.8800 7.6104 0.0926
22.9000 7.6170 0.0983
22.9200 7.6237 0.1062
22.9400 7.6304 0.0902
22.9600 7.6371 0.0960
22.9800 7.6437 0.1041
23.0000 7.6503 0.0927
23.0200 7.6570 0.0926
23.0400 7.6637 0.1052
23.0600 7.6704 0.0978
23.0800 7.6770 0.0916
23.1000 7.6838 0.1006
23.1200 7.6904 0.1006
23.1400 7.6971 0.0903
23.1600 7.7037 0.1001
23.1800 7.7103 0.1007
23.2000 7.7169 0.0916
23.2200 7.7237 0.0939
23.2400 7.7304 0.1003
23.2600 7.7371 0.0885
23.2800 7.7437 0.0987
23.3000 7.7504 0.1033
23.3200 7.7570 0.0856
23.3400 7.7636 0.1022
23.3600 7.7702 0.0995
23.3800 7.7769 0.0887
23.4000 7.7836 0.1003
23.4200 7.7903 0.0953
23.4400 7.7970 0.0846
23.4600 7.8037 0.1002
23.4800 7.8103 0.0957
23.5000 7.8170 0.0886
23.5200 7.8236 0.0973
23.5400 7.8303 0.0945
23.5600 7.8370 0.0877
23.5800 7.8437 0.1034
23.6000 7.8504 0.0892
23.6200 7.8571 0.0856
23.6400 7.8638 0.0981
23.6600 7.8704 0.0918
23.6800 7.8771 0.0832
23.7000 7.8837 0.1024
23.7200 7.8903 0.0878
23.7400 7.8970 0.0846
23.7600 7.9037 0.1042
23.7800 7.9104 0.0872
23.8000 7.9171 0.0819
23.8200 7.9238 0.1039
23.8400 7.9304 0.0856
23.8600 7.9371 0.0792
23.8800 7.9436 0.1006
23.9000 7.9503 0.0868
23.9200 7.9570 0.0816
23.9400 7.9637 0.0952
23.9600 7.9704 0.0857
23.9800 7.9770 0.0830
24.0000 7.9837 0.0966
24.0200 7.9904 0.0826
24.0400 7.9971 0.0890
24.0600 8.0037 0.0915
24.0800 8.0103 0.0792
24.1000 8.0169 0.0861
24.1200 8.0236 0.0956
24.1400 8.0303 0.0783
24.1600 8.0370 0.0853
24.1800 8.0437 0.0871
24.2000 8.0504 0.0870
24.2200 8.0570 0.0883
24.2400 8.0636 0.0824
24.2600 8.0703 0.0803
24.2800 8.0769 0.0913
24.3000 8.0837 0.0838
24.3200 8.0904 0.0797
24.3400 8.0971 0.0853
24.3600 8.1038 0.0767
24.3800 8.1104 0.0899
24.4000 8.1170 0.0906
24.4200 8.1236 0.0773
24.4400 8.1303 0.0840
24.4600 8.1370 0.0905
24.4800 8.1437 0.0790
24.5000 8.1504 0.0828
24.5200 8.1571 0.0848
24.5400 8.1637 0.0777
24.5600 8.1704 0.0836
24.5800 8.1770 0.0855
24.6000 8.1837 0.0751
24.6200 8.1903 0.0869
24.6400 8.1969 0.0776
24.6600 8.2036 0.0787
24.6800 8.2103 0.0868
24.7000 8.2170 0.0773
24.7200 8.2237 0.0731
24.7400 8.2304 0.0876
24.7600 8.2370 0.0782
24.7800 8.2436 0.0760
24.8000 8.2502 0.0865
24.8200 8.2569 0.0780
24.8400 8.2636 0.0746
24.8600 8.2704 0.0849
24.8800 8.2770 0.0754
24.9000 8.2837 0.0755
24.9200 8.2904 0.0847
24.9400 8.2970 0.0705
24.9600 8.3036 0.0765
24.9800 8.3103 0.0886
25.0000 8.3170 0.0747
25.0200 8.3237 0.0669
25.0400 8.3304 0.0837
25.0600 8.3370 0.0752
25.0800 8.3437 0.0750
25.1000 8.3504 0.0845
25.1200 8.3571 0.0726
25.1400 8.3637 0.0692
25.1600 8.3703 0.0870
25.1800 8.3769 0.0724
25.2000 8.3836 0.0716
25.2200 8.3903 0.0872
25.2400 8.3970 0.0763
25.2600 8.4037 0.0671
25.2800 8.4104 0.0796
25.3000 8.4171 0.0778
25.3200 8.4237 0.0759
25.3400 8.4303 0.0794
25.3600 8.4370 0.0756
25.3800 8.4437 0.0715
25.4000 8.4504 0.0788
25.4200 8.4570 0.0795
25.4400 8.4637 0.0741
25.4600 8.4704 0.0736
25.4800 8.4770 0.0752
25.5000 8.4837 0.0789
25.5200 8.4902 0.0750
25.5400 8.4969 0.0742
25.5600 8.5036 0.0747
25.5800 8.5103 0.0733
25.6000 8.5170 0.0709
25.6200 8.5237 0.0790
25.6400 8.5304 0.0701
25.6600 8.5370 0.0742
25.6800 8.5436 0.0739
25.7000 8.5503 0.0699
25.7200 8.5569 0.0784
25.7400 8.5636 0.0727
25.7600 8.5704 0.0708
25.7800 8.5771 0.0819
25.8000 8.5838 0.0669
25.8200 8.5905 0.0731
25.8400 8.5971 0.0771
25.8600 8.6037 0.0706
25.8800 8.6103 0.0724
25.9000 8.6170 0.0741
25.9200 8.6237 0.0680
25.9400 8.6304 0.0692
25.9600 8.6371 0.0715
25.9800 8.6437 0.0689
26.0000 8.6504 0.0746
26.0200 8.6571 0.0722
26.0400 8.6637 0.0713
26.0600 8.6703 0.0699
26.0800 8.6769 0.0726
26.1000 8.6836 0.0673
26.1200 8.6903 0.0686
26.1400 8.6970 0.0680
26.1600 8.7037 0.0731
26.1800 8.7104 0.0650
26.2000 8.7170 0.0683
26.2200 8.7237 0.0720
26.2400 8.7302 0.0704
26.2600 8.7369 0.0677
26.2800 8.7436 0.0718
26.3000 8.7503 0.0669
26.3200 8.7570 0.0670
26.3400 8.7637 0.0709
26.3600 8.7704 0.0639
26.3800 8.7770 0.0700
26.4000 8.7836 0.0732
26.4200 8.7903 0.0604
26.4400 8.7969 0.0729
26.4600 8.8037 0.0681
26.4800 8.8104 0.0615
26.5000 8.8171 0.0713
26.5200 8.8237 0.0626
26.5400 8.8304 0.0648
26.5600 8.8371 0.0695
26.5800 8.8437 0.0660
26.6000 8.8503 0.0638
26.6200 8.8570 0.0704
26.6400 8.8637 0.0614
26.6600 8.8704 0.0652
26.6800 8.8770 0.0716
26.7000 8.8837 0.0597
26.7200 8.8904 0.0626
26.7400 8.8971 0.0685
26.7600 8.9037 0.0602
26.7800 8.9103 0.0686
26.8000 8.9169 0.0666
26.8200 8.9236 0.0641
26.8400 8.9303 0.0679
26.8600 8.9370 0.0619
26.8800 8.9437 0.0584
26.9000 8.9504 0.0692
26.9200 8.9571 0.0649
26.9400 8.9637 0.0583
26.9600 8.9703 0.0683
26.9800 8.9769 0.0620
27.0000 8.9836 0.0580
27.0200 8.9903 0.0623
27.0400 8.9970 0.0633
27.0600 9.0037 0.0580
27.0800 9.0104 0.0605
27.1000 9.0170 0.0607
27.1200 9.0237 0.0654
27.1400 9.0303 0.0585
27.1600 9.0369 0.0619
27.1800 9.0436 0.0593
27.2000 9.0503 0.0568
27.2200 9.0570 0.0568
27.2400 9.0637 0.0633
27.2600 9.0704 0.0546
27.2800 9.0771 0.0582
27.3000 9.0837 0.0652
27.3200 9.0903 0.0543
27.3400 9.0969 0.0592
27.3600 9.1036 0.0621
27.3800 9.1104 0.0544
27.4000 9.1171 0.0625
27.4200 9.1237 0.0522
27.4400 9.1304 0.0552
27.4600 9.1371 0.0645
27.4800 9.1437 0.0497
27.5000 9.1503 0.0559
27.5200 9.1569 0.0663
27.5400 9.1637 0.0528
27.5600 9.1704 0.0488
27.5800 9.1770 0.0640
27.6000 9.1837 0.0483
27.6200 9.1904 0.0515
27.6400 9.1971 0.0673
27.6600 9.2037 0.0479
27.6800 9.2103 0.0482
27.7000 9.2169 0.0667
27.7200 9.2236 0.0442
27.7400 9.2303 0.0535
27.7600 9.2370 0.0645
27.7800 9.2437 0.0429
27.8000 9.2504 0.0499
27.8200 9.2571 0.0663
27.8400 9.2637 0.0400
27.8600 9.2703 0.0530
27.8800 9.2769 0.0659
27.9000 9.2836 0.0421
27.9200 9.2903 0.0516
27.9400 9.2971 0.0580
27.9600 9.3038 0.0433
27.9800 9.3104 0.0534
28.0000 9.3171 0.0598
28.0200 9.3237 0.0430
28.0400 9.3303 0.0532
28.0600 9.3370 0.0646
28.0800 9.3437 0.0390
28.1000 9.3504 0.0473
28.1200 9.3571 0.0630
28.1400 9.3637 0.0371
28.1600 9.3704 0.0584
28.1800 9.3771 0.0512
28.2000 9.3837 0.0370
28.2200 9.3903 0.0576
28.2400 9.3969 0.0567
28.2600 9.4036 0.0445
28.2800 9.4103 0.0544
28.3000 9.4170 0.0497
28.3200 9.4237 0.0458
28.3400 9.4304 0.0508
28.3600 9.4371 0.0483
28.3800 9.4437 0.0478
28.4000 9.4503 0.0524
28.4200 9.4569 0.0432
28.4400 9.4636 0.0491
28.4600 9.4703 0.0536
28.4800 9.4770 0.0438
28.5000 9.4837 0.0495
28.5200 9.4904 0.0493
28.5400 9.4970 0.0422
28.5600 9.5037 0.0495
28.5800 9.5103 0.0521
28.6000 9.5169 0.0457
28.6200 9.5236 0.0456
28.6400 9.5303 0.0529
28.6600 9.5370 0.0443
28.6800 9.5437 0.0400
28.7000 9.5504 0.0549
28.7200 9.5571 0.0427
28.7400 9.5637 0.0392
28.7600 9.5704 0.0576
28.7800 9.5770 0.0483
28.8000 9.5836 0.0346
28.8200 9.5903 0.0548
28.8400 9.5970 0.0452
28.8600 9.6037 0.0347
28.8800 9.6104 0.0532
28.9000 9.6171 0.0474
28.9200 9.6237 0.0416
28.9400 9.6303 0.0507
28.9600 9.6369 0.0449
28.9800 9.6436 0.0424
29.0000 9.6503 0.0496
29.0200 9.6570 0.0464
29.0400 9.6637 0.0393
29.0600 9.6703 0.0461
29.0800 9.6770 0.0452
29.1000 9.6837 0.0448
29.1200 9.6903 0.0456
29.1400 9.6969 0.0420
29.1600 9.7036 0.0458
29.1800 9.7103 0.0380
29.2000 9.7170 0.0487
29.2200 9.7237 0.0434
29.2400 9.7303 0.0372
29.2600 9.7370 0.0467
29.2800 9.7437 0.0431
29.3000 9.7503 0.0332
29.3200 9.7570 0.0500
29.3400 9.7636 0.0418
29.3600 9.7703 0.0342
29.3800 9.7770 0.0503
29.4000 9.7837 0.0448
29.4200 9.7904 0.0328
29.4400 9.7971 0.0503
29.4600 9.8037 0.0390
29.4800 9.8103 0.0377
29.5000 9.8169 0.0504
29.5200 9.8236 0.0384
29.5400 9.8303 0.0385
29.5600 9.8370 0.0463
29.5800 9.8437 0.0392
29.6000 9.8504 0.0420
29.6200 9.8571 0.0465
29.6400 9.8637 0.0369
29.6600 9.8703 0.0394
29.6800 9.8770 0.0430
29.7000 9.8836 0.0388
29.7200 9.8903 0.0376
29.7400 9.8970 0.0441
29.7600 9.9037 0.0348
29.7800 9.9104 0.0416
29.8000 9.9170 0.0387
29.8200 9.9237 0.0410
29.8400 9.9303 0.0370
29.8600 9.9369 0.0405
29.8800 9.9435 0.0459
29.9000 9.9503 0.0366
29.9200 9.9570 0.0337
29.9400 9.9637 0.0406
29.9600 9.9703 0.0364
29.9800 9.9770 0.0372
30.0000 9.9837 0.0376
30.0200 9.9903 0.0345
30.0400 9.9969 0.0354
30.0600 10.0036 0.0403
30.0800 10.0103 0.0344
30.1000 10.0170 0.0346
30.1200 10.0237 0.0378
30.1400 10.0304 0.0309
30.1600 10.0371 0.0381
30.1800 10.0437 0.0329
30.2000 10.0504 0.0363
30.2200 10.0570 0.0370
30.2400 10.0637 0.0326
30.2600 10.0704 0.0296
30.2800 10.0770 0.0389
30.3000 10.0837 0.0307
30.3200 10.0904 0.0290
30.3400 10.0971 0.0366
30.3600 10.1037 0.0288
30.3800 10.1103 0.0295
30.4000 10.1169 0.0413
30.4200 10.1236 0.0272
30.4400 10.1303 0.0332
30.4600 10.1370 0.0347
30.4800 10.1437 0.0235
30.5000 10.1503 0.0319
30.5200 10.1570 0.0364
30.5400 10.1637 0.0234
30.5600 10.1703 0.0315
30.5800 10.1769 0.0354
30.6000 10.1836 0.0242
30.6200 10.1903 0.0346
30.6400 10.1970 0.0335
30.6600 10.2037 0.0243
30.6800 10.2104 0.0335
30.7000 10.2170 0.0277
30.7200 10.2237 0.0199
30.7400 10.2304 0.0363
30.7600 10.2370 0.0258
30.7800 10.2436 0.0245
30.8000 10.2503 0.0361
30.8200 10.2570 0.0235
30.8400 10.2637 0.0255
30.8600 10.2704 0.0397
30.8800 10.2771 0.0218
30.9000 10.2838 0.0256
30.9200 10.2904 0.0339
30.9400 10.2970 0.0213
30.9600 10.3036 0.0270
30.9800 10.3103 0.0330
31.0000 10.3170 0.0179
31.0200 10.3237 0.0285
31.0400 10.3304 0.0298
31.0600 10.3371 0.0211
31.0800 10.3437 0.0297
31.1000 10.3503 0.0265
31.1200 10.3569 0.0238
31.1400 10.3636 0.0275
31.1600 10.3703 0.0260
31.1800 10.3770 0.0187
31.2000 10.3837 0.0285
31.2200 10.3904 0.0235
31.2400 10.3970 0.0242
31.2600 10.4037 0.0311
31.2800 10.4103 0.0228
31.3000 10.4169 0.0246
31.3200 10.4236 0.0313
31.3400 10.4303 0.0180
31.3600 10.4370 0.0225
31.3800 10.4437 0.0219
31.4000 10.4503 0.0223
31.4200 10.4570 0.0190
31.4400 10.4637 0.0187
31.4600 10.4704 0.0222
31.4800 10.4770 0.0217
31.5000 10.4836 0.0184
31.5200 10.4903 0.0258
31.5400 10.4970 0.0237
31.5600 10.5037 0.0144
31.5800 10.5104 0.0197
31.6000 10.5171 0.0253
31.6200 10.5238 0.0202
31.6400 10.5304 0.0206
31.6600 10.5370 0.0176
31.6800 10.5436 0.0184
31.7000 10.5503 0.0264
31.7200 10.5570 0.0154
31.7400 10.5637 0.0184
31.7600 10.5704 0.0200
31.7800 10.5771 0.0144
31.8000 10.5838 0.0181
31.8200 10.5904 0.0251
31.8400 10.5970 0.0161
31.8600 10.6036 0.0229
31.8800 10.6103 0.0208
31.9000 10.6170 0.0155
31.9200 10.6237 0.0194
31.9400 10.6304 0.0189
31.9600 10.6371 0.0107
31.9800 10.6437 0.0196
32.0000 10.6503 0.0197
32.0200 10.6569 0.0158
32.0400 10.6635 0.0238
32.0600 10.6702 0.0173
32.0800 10.6770 0.0135
32.1000 10.6837 0.0181
32.1200 10.6904 0.0127
32.1400 10.6970 0.0146
32.1600 10.7037 0.0205
32.1800 10.7104 0.0089
32.2000 10.7170 0.0144
32.2200 10.7236 0.0256
32.2400 10.7303 0.0126
32.2600 10.7370 0.0143
32.2800 10.7437 0.0214
32.3000 10.7504 0.0019
32.3200 10.7571 0.0165
32.3400 10.7638 0.0190
32.3600 10.7704 0.0033
32.3800 10.7770 0.0142
32.4000 10.7836 0.0220
32.4200 10.7903 0.0026
32.4400 10.7970 0.0119
32.4600 10.8037 0.0185
32.4800 10.8104 0.0065
32.5000 10.8171 0.0133
32.5200 10.8237 0.0213
32.5400 10.8303 0.0056
32.5600 10.8369 0.0101
32.5800 10.8436 0.0157
32.6000 10.8503 0.0097
32.6200 10.8570 0.0113
32.6400 10.8637 0.0122
32.6600 10.8704 0.0086
32.6800 10.8770 0.0062
32.7000 10.8837 0.0139
32.7200 10.8904 0.0102
32.7400 10.8970 0.0090
32.7600 10.9036 0.0113
32.7800 10.9103 0.0134
32.8000 10.9170 0.0037
32.8200 10.9237 0.0121
32.8400 10.9304 0.0095
32.8600 10.9370 0.0064
32.8800 10.9437 0.0115
32.9000 10.9504 0.0100
32.9200 10.9570 0.0044
32.9400 10.9636 0.0109
32.9600 10.9703 0.0037
32.9800 10.9770 0.0121
33.0000 10.9837 0.0112
33.0200 10.9904 0.0025
33.0400 10.9971 0.0073
33.0600 11.0038 0.0088
33.0800 11.0104 -0.0011
33.1000 11.0170 0.0075
33.1200 11.0236 0.0127
33.1400 11.0303 -0.0003
33.1600 11.0370 0.0053
33.1800 11.0437 0.0107
33.2000 11.0504 -0.0002
33.2200 11.0571 0.0122
33.2400 11.0638 0.0053
33.2600 11.0704 -0.0047
33.2800 11.0770 0.0123
33.3000 11.0836 0.0023
33.3200 11.0903 0.0008
33.3400 11.0970 0.0101
33.3600 11.1037 -0.0014
33.3800 11.1103 0.0000
33.4000 11.1170 0.0141
33.4200 11.1237 -0.0046
33.4400 11.1304 -0.0016
33.4600 11.1370 0.0116
33.4800 11.1436 -0.0010
33.5000 11.1502 -0.0046
33.5200 11.1570 0.0136
33.5400 11.1637 -0.0065
33.5600 11.1704 -0.0025
33.5800 11.1770 0.0094
33.6000 11.1837 -0.0056
33.6200 11.1904 -0.0045
33.6400 11.1970 0.0087
33.6600 11.2036 -0.0069
33.6800 11.2103 -0.0020
33.7000 11.2170 0.0088
33.7200 11.2237 -0.0074
33.7400 11.2304 0.0001
33.7600 11.2371 0.0088
33.7800 11.2438 -0.0057
33.8000 11.2504 -0.0020
33.8200 11.2570 0.0038
33.8400 11.2636 -0.0044
33.8600 11.2703 0.0017
33.8800 11.2770 -0.0024
33.9000 11.2837 -0.0017
33.9200 11.2904 0.0005
33.9400 11.2971 -0.0013
33.9600 11.3037 -0.0055
33.9800 11.3104 0.0018
34.0000 11.3170 -0.0030
34.0200 11.3236 -0.0029
34.0400 11.3303 0.0005
34.0600 11.3370 0.0010
34.0800 11.3437 -0.0037
34.1000 11.3504 -0.0033
34.1200 11.3571 -0.0015
34.1400 11.3638 -0.0056
34.1600 11.3704 -0.0054
34.1800 11.3770 0.0031
34.2000 11.3836 -0.0015
34.2200 11.3902 -0.0055
34.2400 11.3970 0.0009
34.2600 11.4037 -0.0054
34.2800 11.4103 -0.0103
34.3000 11.4170 0.0045
34.3200 11.4237 -0.0101
34.3400 11.4303 -0.0155
34.3600 11.4370 0.0076
34.3800 11.4436 -0.0090
34.4000 11.4503 -0.0080
34.4200 11.4570 0.0019
34.4400 11.4637 -0.0083
34.4600 11.4704 -0.0076
34.4800 11.4771 0.0000
34.5000 11.4838 -0.0123
34.5200 11.4904 -0.0067
34.5400 11.4970 -0.0040
34.5600 11.5036 -0.0093
34.5800 11.5103 -0.0071
34.6000 11.5170 -0.0015
34.6200 11.5237 -0.0121
34.6400 11.5304 -0.0052
34.6600 11.5371 -0.0068
34.6800 11.5438 -0.0130
34.7000 11.5504 -0.0021
34.7200 11.5570 -0.0048
34.7400 11.5636 -0.0187
34.7600 11.5702 -0.0017
34.7800 11.5770 -0.0051
34.8000 11.5837 -0.0169
34.8200 11.5903 -0.0042
34.8400 11.5970 -0.0089
34.8600 11.6037 -0.0136
34.8800 11.6104 -0.0046
34.9000 11.6170 -0.0121
34.9200 11.6236 -0.0105
34.9400 11.6303 -0.0049
34.9600 11.6370 -0.0130
34.9800 11.6437 -0.0132
35.0000 11.6503 -0.0090
35.0200 11.6570 -0.0097
35.0400 11.6637 -0.0156
35.0600 11.6704 -0.0074
35.0800 11.6770 -0.0103
35.1000 11.6836 -0.0113
35.1200 11.6903 -0.0125
35.1400 11.6970 -0.0085
35.1600 11.7037 -0.0116
35.1800 11.7104 -0.0151
35.2000 11.7171 -0.0105
35.2200 11.7238 -0.0095
35.2400 11.7304 -0.0135
35.2600 11.7370 -0.0092
35.2800 11.7436 -0.0148
35.3000 11.7503 -0.0099
35.3200 11.7570 -0.0049
35.3400 11.7637 -0.0165
35.3600 11.7704 -0.0162
35.3800 11.7771 -0.0064
35.4000 11.7837 -0.0146
35.4200 11.7904 -0.0176
35.4400 11.7970 -0.0059
35.4600 11.8037 -0.0168
35.4800 11.8103 -0.0128
35.5000 11.8170 -0.0115
35.5200 11.8237 -0.0162
35.5400 11.8304 -0.0176
35.5600 11.8370 -0.0054
35.5800 11.8437 -0.0156
35.6000 11.8504 -0.0187
35.6200 11.8570 -0.0109
35.6400 11.8636 -0.0150
35.6600 11.8702 -0.0183
35.6800 11.8769 -0.0003
35.7000 11.8836 -0.0202
35.7200 11.8903 -0.0201
35.7400 11.8970 -0.0061
35.7600 11.9037 -0.0195
35.7800 11.9103 -0.0127
35.8000 11.9170 -0.0126
35.8200 11.9236 -0.0184
35.8400 11.9303 -0.0130
35.8600 11.9370 -0.0142
35.8800 11.9437 -0.0211
35.9000 11.9504 -0.0127
35.9200 11.9570 -0.0110
35.9400 11.9637 -0.0225
35.9600 11.9704 -0.0144
35.9800 11.9770 -0.0108
36.0000 11.9837 -0.0262
36.0200 11.9903 -0.0134
36.0400 11.9970 -0.0126
36.0600 12.0037 -0.0161
36.0800 12.0104 -0.0237
36.1000 12.0171 -0.0150
36.1200 12.0238 -0.0195
36.1400 12.0304 -0.0189
36.1600 12.0370 -0.0153
36.1800 12.0436 -0.0168
36.2000 12.0502 -0.0211
36.2200 12.0570 -0.0185
36.2400 12.0637 -0.0179
36.2600 12.0704 -0.0228
36.2800 12.0771 -0.0165
36.3000 12.0837 -0.0184
36.3200 12.0904 -0.0255
36.3400 12.0970 -0.0150
36.3600 12.1036 -0.0213
36.3800 12.1102 -0.0176
36.4000 12.1169 -0.0215
36.4200 12.1236 -0.0258
36.4400 12.1303 -0.0161
36.4600 12.1370 -0.0157
36.4800 12.1437 -0.0267
36.5000 12.1504 -0.0195
36.5200 12.1570 -0.0139
36.5400 12.1636 -0.0296
36.5600 12.1703 -0.0193
36.5800 12.1770 -0.0173
36.6000 12.1837 -0.0265
36.6200 12.1904 -0.0247
36.6400 12.1971 -0.0179
36.6600 12.2038 -0.0247
36.6800 12.2104 -0.0221
36.7000 12.2170 -0.0217
36.7200 12.2236 -0.0302
36.7400 12.2303 -0.0180
36.7600 12.2370 -0.0210
36.7800 12.2437 -0.0313
36.8000 12.2504 -0.0226
36.8200 12.2571 -0.0274
36.8400 12.2637 -0.0273
36.8600 12.2704 -0.0226
36.8800 12.2770 -0.0269
36.9000 12.2836 -0.0317
36.9200 12.2903 -0.0175
36.9400 12.2969 -0.0252
36.9600 12.3037 -0.0282
36.9800 12.3103 -0.0238
37.0000 12.3170 -0.0236
37.0200 12.3237 -0.0287
37.0400 12.3304 -0.0296
37.0600 12.3370 -0.0238
37.0800 12.3436 -0.0306
37.1000 12.3502 -0.0259
37.1200 12.3569 -0.0269
37.1400 12.3636 -0.0291
37.1600 12.3704 -0.0272
37.1800 12.3770 -0.0228
37.2000 12.3837 -0.0356
37.2200 12.3904 -0.0280
37.2400 12.3970 -0.0239
37.2600 12.4036 -0.0326
37.2800 12.4103 -0.0329
37.3000 12.4170 -0.0225
37.3200 12.4237 -0.0346
37.3400 12.4304 -0.0280
37.3600 12.4370 -0.0248
37.3800 12.4437 -0.0355
37.4000 12.4504 -0.0286
37.4200 12.4571 -0.0288
37.4400 12.4637 -0.0357
37.4600 12.4703 -0.0277
37.4800 12.4770 -0.0273
37.5000 12.4837 -0.0398
37.5200 12.4904 -0.0313
37.5400 12.4970 -0.0244
37.5600 12.5038 -0.0371
37.5800 12.5104 -0.0317
37.6000 12.5171 -0.0243
37.6200 12.5237 -0.0396
37.6400 12.5303 -0.0282
37.6600 12.5369 -0.0299
37.6800 12.5436 -0.0361
37.7000 12.5504 -0.0266
37.7200 12.5570 -0.0324
37.7400 12.5637 -0.0437
37.7600 12.5704 -0.0283
37.7800 12.5770 -0.0320
37.8000 12.5836 -0.0358
37.8200 12.5902 -0.0286
37.8400 12.5969 -0.0329
37.8600 12.6036 -0.0470
37.8800 12.6103 -0.0321
37.9000 12.6170 -0.0373
37.9200 12.6237 -0.0358
37.9400 12.6304 -0.0334
37.9600 12.6370 -0.0386
37.9800 12.6436 -0.0333
38.0000 12.6503 -0.0352
38.0200 12.6569 -0.0382
38.0400 12.6637 -0.0365
38.0600 12.6704 -0.0376
38.0800 12.6771 -0.0402
38.1000 12.6838 -0.0344
38.1200 12.6904 -0.0423
38.1400 12.6971 -0.0389
38.1600 12.7037 -0.0337
38.1800 12.7103 -0.0417
38.2000 12.7169 -0.0372
38.2200 12.7237 -0.0355
38.2400 12.7304 -0.0446
38.2600 12.7371 -0.0363
38.2800 12.7437 -0.0356
38.3000 12.7504 -0.0416
38.3200 12.7571 -0.0406
38.3400 12.7637 -0.0384
38.3600 12.7703 -0.0424
38.3800 12.7770 -0.0375
38.4000 12.7837 -0.0427
38.4200 12.7904 -0.0409
38.4400 12.7970 -0.0374
38.4600 12.8037 -0.0458
38.4800 12.8104 -0.0417
38.5000 12.8170 -0.0408
38.5200 12.8237 -0.0446
38.5400 12.8303 -0.0375
38.5600 12.8369 -0.0381
38.5800 12.8436 -0.0497
38.6000 12.8503 -0.0419
38.6200 12.8570 -0.0393
38.6400 12.8636 -0.0463
38.6600 12.8703 -0.0437
38.6800 12.8770 -0.0393
38.7000 12.8836 -0.0485
38.7200 12.8903 -0.0441
38.7400 12.8969 -0.0374
38.7600 12.9037 -0.0485
38.7800 12.9104 -0.0493
38.8000 12.9171 -0.0341
38.8200 12.9238 -0.0485
38.8400 12.9304 -0.0478
38.8600 12.9370 -0.0374
38.8800 12.9436 -0.0488
38.9000 12.9503 -0.0476
38.9200 12.9570 -0.0324
38.9400 12.9637 -0.0564
38.9600 12.9704 -0.0451
38.9800 12.9771 -0.0326
39.0000 12.9838 -0.0599
39.0200 12.9904 -0.0419
39.0400 12.9971 -0.0304
39.0600 13.0037 -0.0608
39.0800 13.0103 -0.0417
39.1000 13.0169 -0.0381
39.1200 13.0236 -0.0643
39.1400 13.0303 -0.0406
39.1600 13.0370 -0.0424
39.1800 13.0437 -0.0577
39.2000 13.0504 -0.0411
39.2200 13.0570 -0.0446
39.2400 13.0636 -0.0581
39.2600 13.0702 -0.0374
39.2800 13.0769 -0.0456
39.3000 13.0836 -0.0585
39.3200 13.0903 -0.0380
39.3400 13.0970 -0.0467
39.3600 13.1037 -0.0569
39.3800 13.1104 -0.0367
39.4000 13.1170 -0.0529
39.4200 13.1236 -0.0542
39.4400 13.1303 -0.0368
39.4600 13.1370 -0.0539
39.4800 13.1437 -0.0562
39.5000 13.1504 -0.0375
39.5200 13.1571 -0.0564
39.5400 13.1637 -0.0551
39.5600 13.1704 -0.0392
39.5800 13.1771 -0.0546
39.6000 13.1837 -0.0512
39.6200 13.1903 -0.0449
39.6400 13.1969 -0.0542
39.6600 13.2036 -0.0468
39.6800 13.2103 -0.0464
39.7000 13.2170 -0.0590
39.7200 13.2237 -0.0490
39.7400 13.2304 -0.0419
39.7600 13.2371 -0.0584
39.7800 13.2437 -0.0561
39.8000 13.2503 -0.0372
39.8200 13.2569 -0.0607
39.8400 13.2636 -0.0464
39.8600 13.2704 -0.0411
39.8800 13.2770 -0.0625
39.9000 13.2837 -0.0509
39.9200 13.2904 -0.0391
39.9400 13.2971 -0.0659
39.9600 13.3037 -0.0497
39.9800 13.3103 -0.0401
40.0000 13.3169 -0.0615
40.0200 13.3236 -0.0478
40.0400 13.3303 -0.0452
40.0600 13.3370 -0.0642
40.0800 13.3437 -0.0454
40.1000 13.3503 -0.0437
40.1200 13.3570 -0.0702
40.1400 13.3637 -0.0438
40.1600 13.3703 -0.0438
40.1800 13.3769 -0.0657
40.2000 13.3836 -0.0456
40.2200 13.3903 -0.0460
40.2400 13.3970 -0.0684
40.2600 13.4037 -0.0461
40.2800 13.4105 -0.0449
40.3000 13.4171 -0.0674
40.3200 13.4238 -0.0562
40.3400 13.4303 -0.0412
40.3600 13.4370 -0.0670
40.3800 13.4437 -0.0477
40.4000 13.4504 -0.0481
40.4200 13.4571 -0.0697
40.4400 13.4637 -0.0512
40.4600 13.4704 -0.0434
40.4800 13.4771 -0.0682
40.5000 13.4837 -0.0512
40.5200 13.4903 -0.0459
40.5400 13.4969 -0.0635
40.5600 13.5036 -0.0492
40.5800 13.5103 -0.0522
40.6000 13.5170 -0.0670
40.6200 13.5237 -0.0471
40.6400 13.5304 -0.0532
40.6600 13.5370 -0.0708
40.6800 13.5437 -0.0502
40.7000 13.5502 -0.0516
40.7200 13.5569 -0.0650
40.7400 13.5636 -0.0528
40.7600 13.5703 -0.0498
40.7800 13.5770 -0.0668
40.8000 13.5837 -0.0519
40.8200 13.5904 -0.0547
40.8400 13.5970 -0.0652
40.8600 13.6037 -0.0549
40.8800 13.6103 -0.0525
40.9000 13.6169 -0.0645
40.9200 13.6236 -0.0539
40.9400 13.6304 -0.0460
40.9600 13.6371 -0.0653
40.9800 13.6437 -0.0607
41.0000 13.6504 -0.0457
41.0200 13.6571 -0.0731
41.0400 13.6637 -0.0601
41.0600 13.6703 -0.0453
41.0800 13.6770 -0.0721
41.1000 13.6837 -0.0585
41.1200 13.6904 -0.0505
41.1400 13.6971 -0.0671
41.1600 13.7037 -0.0569
41.1800 13.7104 -0.0486
41.2000 13.7171 -0.0763
41.2200 13.7237 -0.0594
41.2400 13.7303 -0.0481
41.2600 13.7369 -0.0733
41.2800 13.7436 -0.0560
41.3000 13.7503 -0.0493
41.3200 13.7570 -0.0815
41.3400 13.7637 -0.0529
41.3600 13.7704 -0.0540
41.3800 13.7771 -0.0781
41.4000 13.7837 -0.0551
41.4200 13.7903 -0.0534
41.4400 13.7969 -0.0776
41.4600 13.8036 -0.0508
41.4800 13.8103 -0.0582
41.5000 13.8170 -0.0790
41.5200 13.8236 -0.0478
41.5400 13.8303 -0.0575
41.5600 13.8370 -0.0794
41.5800 13.8437 -0.0491
41.6000 13.8503 -0.0589
41.6200 13.8570 -0.0739
41.6400 13.8637 -0.0515
41.6600 13.8703 -0.0592
41.6800 13.8770 -0.0696
41.7000 13.8837 -0.0554
41.7200 13.8904 -0.0637
41.7400 13.8971 -0.0708
41.7600 13.9037 -0.0576
41.7800 13.9103 -0.0658
41.8000 13.9169 -0.0676
41.8200 13.9236 -0.0586
41.8400 13.9303 -0.0672
41.8600 13.9370 -0.0690
41.8800 13.9437 -0.0602
41.9000 13.9504 -0.0674
41.9200 13.9571 -0.0706
41.9400 13.9637 -0.0648
41.9600 13.9703 -0.0604
41.9800 13.9769 -0.0710
42.0000 13.9836 -0.0640
42.0200 13.9904 -0.0645
42.0400 13.9970 -0.0732
42.0600 14.0037 -0.0662
42.0800 14.0104 -0.0628
42.1000 14.0171 -0.0732
42.1200 14.0237 -0.0698
42.1400 14.0303 -0.0658
42.1600 14.0369 -0.0719
42.1800 14.0436 -0.0674
42.2000 14.0503 -0.0647
42.2200 14.0570 -0.0724
42.2400 14.0637 -0.0647
42.2600 14.0704 -0.0702
42.2800 14.0771 -0.0753
42.3000 14.0837 -0.0656
42.3200 14.0903 -0.0706
42.3400 14.0969 -0.0718
42.3600 14.1036 -0.0684
42.3800 14.1103 -0.0744
42.4000 14.1171 -0.0728
42.4200 14.1238 -0.0639
42.4400 14.1305 -0.0766
42.4600 14.1371 -0.0709
42.4800 14.1437 -0.0699
42.5000 14.1503 -0.0739
42.5200 14.1570 -0.0716
42.5400 14.1637 -0.0704
42.5600 14.1704 -0.0764
42.5800 14.1771 -0.0698
42.6000 14.1837 -0.0720
42.6200 14.1904 -0.0753
42.6400 14.1971 -0.0709
42.6600 14.2037 -0.0722
42.6800 14.2103 -0.0758
42.7000 14.2169 -0.0730
42.7200 14.2236 -0.0728
42.7400 14.2303 -0.0782
42.7600 14.2370 -0.0758
42.7800 14.2437 -0.0700
42.8000 14.2504 -0.0784
42.8200 14.2571 -0.0815
42.8400 14.2637 -0.0677
42.8600 14.2703 -0.0773
42.8800 14.2769 -0.0765
42.9000 14.2836 -0.0723
42.9200 14.2903 -0.0769
42.9400 14.2970 -0.0785
42.9600 14.3037 -0.0749
42.9800 14.3104 -0.0792
43.0000 14.3170 -0.0719
43.0200 14.3237 -0.0783
43.0400 14.3303 -0.0809
43.0600 14.3370 -0.0711
43.0800 14.3436 -0.0762
43.1000 14.3503 -0.0840
43.1200 14.3570 -0.0737
43.1400 14.3637 -0.0775
43.1600 14.3704 -0.0844
43.1800 14.3771 -0.0756
43.2000 14.3838 -0.0784
43.2200 14.3904 -0.0831
43.2400 14.3970 -0.0714
43.2600 14.4036 -0.0813
43.2800 14.4103 -0.0837
43.3000 14.4170 -0.0711
43.3200 14.4238 -0.0840
43.3400 14.4305 -0.0803
43.3600 14.4371 -0.0773
43.3800 14.4438 -0.0861
43.4000 14.4503 -0.0822
43.4200 14.4569 -0.0719
43.4400 14.4636 -0.0849
43.4600 14.4703 -0.0789
43.4800 14.4770 -0.0753
43.5000 14.4837 -0.0862
43.5200 14.4903 -0.0820
43.5400 14.4970 -0.0763
43.5600 14.5037 -0.0899
43.5800 14.5103 -0.0829
43.6000 14.5169 -0.0749
43.6200 14.5236 -0.0900
43.6400 14.5303 -0.0857
43.6600 14.5370 -0.0748
43.6800 14.5437 -0.0923
43.7000 14.5503 -0.0856
43.7200 14.5570 -0.0739
43.7400 14.5637 -0.0915
43.7600 14.5704 -0.0901
43.7800 14.5770 -0.0723
43.8000 14.5836 -0.0904
43.8200 14.5903 -0.0936
43.8400 14.5970 -0.0713
43.8600 14.6037 -0.0864
43.8800 14.6104 -0.0930
43.9000 14.6171 -0.0758
43.9200 14.6237 -0.0876
43.9400 14.6303 -0.0940
43.9600 14.6369 -0.0726
43.9800 14.6436 -0.0886
44.0000 14.6503 -0.0879
44.0200 14.6571 -0.0747
44.0400 14.6638 -0.0862
44.0600 14.6704 -0.0934
44.0800 14.6771 -0.0715
44.1000 14.6837 -0.0899
44.1200 14.6903 -0.0921
44.1400 14.6970 -0.0716
44.1600 14.7036 -0.0931
44.1800 14.7103 -0.0935
44.2000 14.7170 -0.0710
44.2200 14.7237 -0.0941
44.2400 14.7304 -0.0905
44.2600 14.7371 -0.0732
44.2800 14.7437 -0.0925
44.3000 14.7503 -0.0931
44.3200 14.7569 -0.0731
44.3400 14.7636 -0.0898
44.3600 14.7703 -0.0954
44.3800 14.7770 -0.0763
44.4000 14.7837 -0.0920
44.4200 14.7903 -0.0863
44.4400 14.7970 -0.0849
44.4600 14.8037 -0.0925
44.4800 14.8103 -0.0866
44.5000 14.8169 -0.0806
44.5200 14.8236 -0.0919
44.5400 14.8303 -0.0881
44.5600 14.8370 -0.0868
44.5800 14.8437 -0.0888
44.6000 14.8504 -0.0911
44.6200 14.8571 -0.0851
44.6400 14.8638 -0.0917
44.6600 14.8704 -0.0893
44.6800 14.8770 -0.0901
44.7000 14.8837 -0.0897
44.7200 14.8903 -0.0941
44.7400 14.8970 -0.0861
44.7600 14.9037 -0.0859
44.7800 14.9104 -0.0965
44.8000 14.9171 -0.0845
44.8200 14.9238 -0.0894
44.8400 14.9304 -0.1003
44.8600 14.9370 -0.0869
44.8800 14.9436 -0.0832
44.9000 14.9503 -0.0962
44.9200 14.9570 -0.0868
44.9400 14.9637 -0.0920
44.9600 14.9704 -0.0920
44.9800 14.9770 -0.0848
45.0000 14.9837 -0.0973
45.0200 14.9903 -0.0984
45.0400 14.9969 -0.0797
45.0600 15.0036 -0.0958
45.0800 15.0103 -0.0967
45.1000 15.0170 -0.0856
45.1200 15.0237 -0.0928
45.1400 15.0304 -0.1046
45.1600 15.0370 -0.0878
45.1800 15.0437 -0.0958
45.2000 15.0504 -0.1033
45.2200 15.0570 -0.0865
45.2400 15.0636 -0.0942
45.2600 15.0703 -0.1010
45.2800 15.0770 -0.0897
45.3000 15.0837 -0.0970
45.3200 15.0904 -0.0971
45.3400 15.0971 -0.0924
45.3600 15.1038 -0.0907
45.3800 15.1104 -0.0989
45.4000 15.1170 -0.0954
45.4200 15.1236 -0.0900
45.4400 15.1303 -0.0996
45.4600 15.1370 -0.0892
45.4800 15.1437 -0.0953
45.5000 15.1504 -0.1044
45.5200 15.1571 -0.0924
45.5400 15.1637 -0.0952
45.5600 15.1703 -0.1034
45.5800 15.1769 -0.0930
45.6000 15.1836 -0.0920
45.6200 15.1903 -0.1025
45.6400 15.1970 -0.0994
45.6600 15.2037 -0.0918
45.6800 15.2104 -0.1010
45.7000 15.2170 -0.0947
45.7200 15.2237 -0.0990
45.7400 15.2304 -0.0992
45.7600 15.2370 -0.0965
45.7800 15.2436 -0.0946
45.8000 15.2503 -0.1018
45.8200 15.2570 -0.0974
45.8400 15.2636 -0.0946
45.8600 15.2703 -0.1062
45.8800 15.2770 -0.0959
45.9000 15.2837 -0.0963
45.9200 15.2904 -0.1035
45.9400 15.2970 -0.0962
45.9600 15.3036 -0.0939
45.9800 15.3103 -0.1044
46.0000 15.3170 -0.0957
46.0200 15.3237 -0.0960
46.0400 15.3304 -0.1069
46.0600 15.3371 -0.0999
46.0800 15.3437 -0.0931
46.1000 15.3504 -0.1097
46.1200 15.3570 -0.0994
46.1400 15.3636 -0.0958
46.1600 15.3703 -0.1022
46.1800 15.3770 -0.1024
46.2000 15.3837 -0.0997
46.2200 15.3904 -0.1011
46.2400 15.3971 -0.1030
46.2600 15.4038 -0.1003
46.2800 15.4104 -0.1016
46.3000 15.4170 -0.1055
46.3200 15.4236 -0.0980
46.3400 15.4303 -0.1015
46.3600 15.4370 -0.1093
46.3800 15.4437 -0.0985
46.4000 15.4504 -0.1028
46.4200 15.4571 -0.1117
46.4400 15.4637 -0.1011
46.4600 15.4704 -0.1015
46.4800 15.4770 -0.1118
46.5000 15.4836 -0.0926
46.5200 15.4902 -0.1055
46.5400 15.4970 -0.1133
46.5600 15.5037 -0.0987
46.5800 15.5104 -0.1041
46.6000 15.5170 -0.1135
46.6200 15.5237 -0.0923
46.6400 15.5304 -0.1100
46.6600 15.5370 -0.1163
46.6800 15.5436 -0.0901
46.7000 15.5503 -0.1073
46.7200 15.5570 -0.1201
46.7400 15.5637 -0.0967
46.7600 15.5704 -0.1091
46.7800 15.5771 -0.1189
46.8000 15.5838 -0.0976
46.8200 15.5904 -0.1073
46.8400 15.5970 -0.1153
46.8600 15.6036 -0.0985
46.8800 15.6103 -0.1113
46.9000 15.6170 -0.1177
46.9200 15.6237 -0.0989
46.9400 15.6304 -0.1123
46.9600 15.6371 -0.1141
46.9800 15.6438 -0.1046
47.0000 15.6504 -0.1126
47.0200 15.6570 -0.1127
47.0400 15.6636 -0.0985
47.0600 15.6703 -0.1148
47.0800 15.6770 -0.1121
47.1000 15.6837 -0.1057
47.1200 15.6904 -0.1174
47.1400 15.6970 -0.1078
47.1600 15.7037 -0.1007
47.1800 15.7103 -0.1193
47.2000 15.7169 -0.1095
47.2200 15.7236 -0.1081
47.2400 15.7303 -0.1137
47.2600 15.7370 -0.1095
47.2800 15.7437 -0.1114
47.3000 15.7504 -0.1159
47.3200 15.7570 -0.1042
47.3400 15.7637 -0.1104
47.3600 15.7704 -0.1153
47.3800 15.7770 -0.1055
47.4000 15.7836 -0.1134
47.4200 15.7903 -0.1100
47.4400 15.7970 -0.1119
47.4600 15.8037 -0.1156
47.4800 15.8104 -0.1123
47.5000 15.8171 -0.1105
47.5200 15.8237 -0.1172
47.5400 15.8304 -0.1132
47.5600 15.8370 -0.1142
47.5800 15.8436 -0.1124
47.6000 15.8503 -0.1150
47.6200 15.8570 -0.1103
47.6400 15.8637 -0.1119
47.6600 15.8704 -0.1127
47.6800 15.8771 -0.1184
47.7000 15.8838 -0.1134
47.7200 15.8904 -0.1127
47.7400 15.8970 -0.1193
47.7600 15.9036 -0.1141
47.7800 15.9103 -0.1107
47.8000 15.9170 -0.1238
47.8200 15.9237 -0.1124
47.8400 15.9303 -0.1129
47.8600 15.9370 -0.1212
47.8800 15.9437 -0.1159
47.9000 15.9504 -0.1124
47.9200 15.9570 -0.1240
47.9400 15.9636 -0.1177
47.9600 15.9702 -0.1090
47.9800 15.9769 -0.1230
48.0000 15.9837 -0.1184
48.0200 15.9904 -0.1194
48.0400 15.9970 -0.1223
48.0600 16.0037 -0.1199
48.0800 16.0104 -0.1161
48.1000 16.0170 -0.1195
48.1200 16.0236 -0.1192
48.1400 16.0303 -0.1190
48.1600 16.0370 -0.1236
48.1800 16.0437 -0.1246
48.2000 16.0504 -0.1097
48.2200 16.0571 -0.1259
48.2400 16.0638 -0.1244
48.2600 16.0704 -0.1125
48.2800 16.0770 -0.1287
48.3000 16.0836 -0.1255
48.3200 16.0903 -0.1044
48.3400 16.0970 -0.1326
48.3600 16.1037 -0.1225
48.3800 16.1104 -0.1068
48.4000 16.1171 -0.1322
48.4200 16.1238 -0.1253
48.4400 16.1304 -0.1105
48.4600 16.1370 -0.1376
48.4800 16.1436 -0.1191
48.5000 16.1502 -0.1125
48.5200 16.1569 -0.1405
48.5400 16.1637 -0.1185
48.5600 16.1703 -0.1141
48.5800 16.1770 -0.1365
48.6000 16.1837 -0.1161
48.6200 16.1904 -0.1208
48.6400 16.1970 -0.1440
48.6600 16.2036 -0.1138
48.6800 16.2102 -0.1236
48.7000 16.2169 -0.1344
48.7200 16.2237 -0.1139
48.7400 16.2303 -0.1257
48.7600 16.2370 -0.1381
48.7800 16.2437 -0.1135
48.8000 16.2504 -0.1285
48.8200 16.2570 -0.1299
48.8400 16.2636 -0.1186
48.8600 16.2703 -0.1360
48.8800 16.2770 -0.1308
48.9000 16.2837 -0.1152
48.9200 16.2904 -0.1324
48.9400 16.2971 -0.1303
48.9600 16.3038 -0.1195
48.9800 16.3104 -0.1343
49.0000 16.3170 -0.1270
49.0200 16.3236 -0.1224
49.0400 16.3303 -0.1332
49.0600 16.3370 -0.1188
49.0800 16.3437 -0.1233
49.1000 16.3504 -0.1412
49.1200 16.3571 -0.1217
49.1400 16.3637 -0.1296
49.1600 16.3704 -0.1357
49.1800 16.3770 -0.1182
49.2000 16.3836 -0.1296
49.2200 16.3903 -0.1389
49.2400 16.3970 -0.1152
49.2600 16.4037 -0.1385
49.2800 16.4103 -0.1348
49.3000 16.4170 -0.1139
49.3200 16.4237 -0.1393
49.3400 16.4304 -0.1393
49.3600 16.4370 -0.1190
49.3800 16.4436 -0.1377
49.4000 16.4502 -0.1323
49.4200 16.4569 -0.1235
49.4400 16.4636 -0.1414
49.4600 16.4703 -0.1295
49.4800 16.4771 -0.1206
49.5000 16.4838 -0.1439
49.5200 16.4904 -0.1298
49.5400 16.4970 -0.1234
49.5600 16.5036 -0.1458
49.5800 16.5103 -0.1274
49.6000 16.5170 -0.1266
49.6200 16.5237 -0.1434
49.6400 16.5304 -0.1296
49.6600 16.5371 -0.1260
49.6800 16.5437 -0.1446
49.7000 16.5504 -0.1315
49.7200 16.5570 -0.1297
49.7400 16.5636 -0.1438
49.7600 16.5703 -0.1334
49.7800 16.5770 -0.1257
49.8000 16.5837 -0.1438
49.8200 16.5904 -0.1320
49.8400 16.5971 -0.1328
49.8600 16.6037 -0.1450
49.8800 16.6104 -0.1354
49.9000 16.6171 -0.1298
49.9200 16.6237 -0.1485
49.9400 16.6303 -0.1287
49.9600 16.6370 -0.1355
49.9800 16.6437 -0.1496
50.0000 16.6504 -0.1282
50.0200 16.6570 -0.1377
50.0400 16.6637 -0.1446
50.0600 16.6704 -0.1330
50.0800 16.6770 -0.1378
50.1000 16.6836 -0.1439
50.1200 16.6902 -0.1319
50.1400 16.6969 -0.1376
50.1600 16.7036 -0.1450
50.1800 16.7104 -0.1368
50.2000 16.7170 -0.1354
50.2200 16.7237 -0.1466
50.2400 16.7304 -0.1372
50.2600 16.7370 -0.1394
50.2800 16.7436 -0.1417
50.3000 16.7503 -0.1408
50.3200 16.7570 -0.1356
50.3400 16.7637 -0.1491
50.3600 16.7704 -0.1401
50.3800 16.7771 -0.1354
50.4000 16.7837 -0.1517
50.4200 16.7904 -0.1426
50.4400 16.7970 -0.1383
50.4600 16.8037 -0.1499
50.4800 16.8103 -0.1434
50.5000 16.8170 -0.1341
50.5200 16.8237 -0.1449
50.5400 16.8304 -0.1465
50.5600 16.8371 -0.1358
50.5800 16.8438 -0.1481
50.6000 16.8504 -0.1454
50.6200 16.8570 -0.1365
50.6400 16.8636 -0.1533
50.6600 16.8703 -0.1392
50.6800 16.8770 -0.1391
50.7000 16.8837 -0.1501
50.7200 16.8904 -0.1411
50.7400 16.8971 -0.1394
50.7600 16.9037 -0.1563
50.7800 16.9104 -0.1413
50.8000 16.9170 -0.1395
50.8200 16.9236 -0.1538
50.8400 16.9303 -0.1418
50.8600 16.9369 -0.1414
50.8800 16.9436 -0.1565
50.9000 16.9503 -0.1404
50.9200 16.9570 -0.1439
50.9400 16.9637 -0.1550
50.9600 16.9704 -0.1428
50.9800 16.9770 -0.1423
51.0000 16.9836 -0.1548
51.0200 16.9902 -0.1444
51.0400 16.9969 -0.1433
51.0600 17.0036 -0.1562
51.0800 17.0104 -0.1469
51.1000 17.0171 -0.1450
51.1200 17.0238 -0.1517
51.1400 17.0304 -0.1500
51.1600 17.0371 -0.1465
51.1800 17.0436 -0.1547
51.2000 17.0503 -0.1438
51.2200 17.0570 -0.1438
51.2400 17.0637 -0.1603
51.2600 17.0704 -0.1532
51.2800 17.0771 -0.1428
51.3000 17.0837 -0.1599
51.3200 17.0904 -0.1541
51.3400 17.0970 -0.1465
51.3600 17.1036 -0.1532
51.3800 17.1103 -0.1594
51.4000 17.1169 -0.1484
51.4200 17.1236 -0.1563
51.4400 17.1303 -0.1529
51.4600 17.1370 -0.1475
51.4800 17.1437 -0.1619
51.5000 17.1504 -0.1564
51.5200 17.1570 -0.1490
51.5400 17.1636 -0.1563
51.5600 17.1702 -0.1577
51.5800 17.1769 -0.1487
51.6000 17.1836 -0.1583
51.6200 17.1904 -0.1599
51.6400 17.1971 -0.1485
51.6600 17.2037 -0.1555
51.6800 17.2104 -0.1658
51.7000 17.2170 -0.1478
51.7200 17.2236 -0.1579
51.7400 17.2303 -0.1623
51.7600 17.2369 -0.1505
51.7800 17.2437 -0.1570
51.8000 17.2503 -0.1693
51.8200 17.2570 -0.1488
51.8400 17.2637 -0.1565
51.8600 17.2704 -0.1628
51.8800 17.2771 -0.1525
51.9000 17.2837 -0.1631
51.9200 17.2903 -0.1612
51.9400 17.2970 -0.1503
51.9600 17.3037 -0.1653
51.9800 17.3104 -0.1639
52.0000 17.3171 -0.1502
52.0200 17.3237 -0.1617
52.0400 17.3304 -0.1658
52.0600 17.3371 -0.1541
52.0800 17.3437 -0.1579
52.1000 17.3503 -0.1646
52.1200 17.3569 -0.1531
52.1400 17.3636 -0.1599
52.1600 17.3704 -0.1626
52.1800 17.3770 -0.1577
52.2000 17.3837 -0.1674
52.2200 17.3904 -0.1637
52.2400 17.3970 -0.1571
52.2600 17.4036 -0.1693
52.2800 17.4102 -0.1643
52.3000 17.4169 -0.1521
52.3200 17.4236 -0.1665
52.3400 17.4303 -0.1709
52.3600 17.4370 -0.1538
52.3800 17.4437 -0.1685
52.4000 17.4504 -0.1678
52.4200 17.4570 -0.1615
52.4400 17.4637 -0.1662
52.4600 17.4703 -0.1655
52.4800 17.4770 -0.1620
52.5000 17.4837 -0.1683
52.5200 17.4904 -0.1647
52.5400 17.4971 -0.1627
52.5600 17.5037 -0.1704
52.5800 17.5104 -0.1648
52.6000 17.5171 -0.1665
52.6200 17.5237 -0.1708
52.6400 17.5303 -0.1597
52.6600 17.5369 -0.1692
52.6800 17.5436 -0.1706
52.7000 17.5504 -0.1651
52.7200 17.5571 -0.1711
52.7400 17.5638 -0.1680
52.7600 17.5704 -0.1725
52.7800 17.5771 -0.1632
52.8000 17.5837 -0.1721
52.8200 17.5903 -0.1701
52.8400 17.5969 -0.1692
52.8600 17.6037 -0.1703
52.8800 17.6104 -0.1705
52.9000 17.6170 -0.1736
52.9200 17.6237 -0.1685
52.9400 17.6304 -0.1701
52.9600 17.6370 -0.1736
52.9800 17.6437 -0.1716
53.0000 17.6503 -0.1738
53.0200 17.6569 -0.1695
53.0400 17.6636 -0.1712
53.0600 17.6703 -0.1765
53.0800 17.6770 -0.1730
53.1000 17.6837 -0.1744
53.1200 17.6903 -0.1750
53.1400 17.6970 -0.1729
53.1600 17.7036 -0.1699
53.1800 17.7103 -0.1752
53.2000 17.7169 -0.1705
53.2200 17.7236 -0.1709
53.2400 17.7304 -0.1748
53.2600 17.7371 -0.1765
53.2800 17.7437 -0.1735
53.3000 17.7504 -0.1771
53.3200 17.7571 -0.1800
53.3400 17.7637 -0.1715
53.3600 17.7703 -0.1749
53.3800 17.7769 -0.1803
53.4000 17.7837 -0.1738
53.4200 17.7904 -0.1751
53.4400 17.7971 -0.1793
53.4600 17.8038 -0.1766
53.4800 17.8104 -0.1730
53.5000 17.8171 -0.1823
53.5200 17.8237 -0.1748
53.5400 17.8303 -0.1730
53.5600 17.8369 -0.1834
53.5800 17.8436 -0.1708
53.6000 17.8503 -0.1749
53.6200 17.8570 -0.1885
53.6400 17.8637 -0.1655
53.6600 17.8704 -0.1698
53.6800 17.8770 -0.1914
53.7000 17.8837 -0.1702
53.7200 17.8903 -0.1734
53.7400 17.8969 -0.1885
53.7600 17.9036 -0.1737
53.7800 17.9103 -0.1740
53.8000 17.9170 -0.1922
53.8200 17.9237 -0.1707
53.8400 17.9304 -0.1858
53.8600 17.9370 -0.1877
53.8800 17.9437 -0.1716
53.9000 17.9503 -0.1767
53.9200 17.9569 -0.1870
53.9400 17.9636 -0.1709
53.9600 17.9704 -0.1811
53.9800 17.9770 -0.1919
54.0000 17.9837 -0.1736
54.0200 17.9904 -0.1811
54.0400 17.9971 -0.1903
54.0600 18.0037 -0.1737
54.0800 18.0103 -0.1822
54.1000 18.0169 -0.1925
54.1200 18.0236 -0.1785
54.1400 18.0303 -0.1748
54.1600 18.0370 -0.1908
54.1800 18.0437 -0.1839
54.2000 18.0504 -0.1730
54.2200 18.0571 -0.1953
54.2400 18.0637 -0.1786
54.2600 18.0703 -0.1778
54.2800 18.0769 -0.1917
54.3000 18.0836 -0.1771
54.3200 18.0904 -0.1794
54.3400 18.0970 -0.1980
54.3600 18.1037 -0.1791
54.3800 18.1104 -0.1781
54.4000 18.1171 -0.1973
54.4200 18.1237 -0.1849
54.4400 18.1303 -0.1781
54.4600 18.1369 -0.2022
54.4800 18.1436 -0.1824
54.5000 18.1503 -0.1840
54.5200 18.1570 -0.1978
54.5400 18.1637 -0.1800
54.5600 18.1703 -0.1866
54.5800 18.1770 -0.2007
54.6000 18.1837 -0.1868
54.6200 18.1903 -0.1816
54.6400 18.1969 -0.1989
54.6600 18.2036 -0.1893
54.6800 18.2103 -0.1804
54.7000 18.2170 -0.2020
54.7200 18.2237 -0.1921
54.7400 18.2305 -0.1816
54.7600 18.2371 -0.1996
54.7800 18.2437 -0.1936
54.8000 18.2503 -0.1875
54.8200 18.2570 -0.1978
54.8400 18.2636 -0.1929
54.8600 18.2704 -0.1893
54.8800 18.2771 -0.2075
54.9000 18.2838 -0.1895
54.9200 18.2904 -0.1857
54.9400 18.2971 -0.2083
54.9600 18.3037 -0.1942
54.9800 18.3103 -0.1852
55.0000 18.3169 -0.2057
55.0200 18.3236 -0.1977
55.0400 18.3303 -0.1870
55.0600 18.3370 -0.2062
55.0800 18.3437 -0.1947
55.1000 18.3504 -0.1858
55.1200 18.3570 -0.2110
55.1400 18.3637 -0.1948
55.1600 18.3703 -0.1894
55.1800 18.3769 -0.2127
55.2000 18.3836 -0.1937
55.2200 18.3903 -0.1918
55.2400 18.3970 -0.2113
55.2600 18.4037 -0.1989
55.2800 18.4104 -0.1899
55.3000 18.4170 -0.2125
55.3200 18.4237 -0.1968
55.3400 18.4303 -0.1901
55.3600 18.4369 -0.2100
55.3800 18.4436 -0.1986
55.4000 18.4504 -0.1913
55.4200 18.4571 -0.2144
55.4400 18.4637 -0.1987
55.4600 18.4704 -0.1979
55.4800 18.4771 -0.2109
55.5000 18.4837 -0.2039
55.5200 18.4904 -0.1963
55.5400 18.4970 -0.2087
55.5600 18.5037 -0.2002
55.5800 18.5103 -0.1988
55.6000 18.5170 -0.2119
55.6200 18.5237 -0.1997
55.6400 18.5304 -0.1973
55.6600 18.5371 -0.2150
55.6800 18.5437 -0.2022
55.7000 18.5503 -0.1957
55.7200 18.5569 -0.2086
55.7400 18.5636 -0.2037
55.7600 18.5703 -0.2009
55.7800 18.5770 -0.2066
55.8000 18.5837 -0.2063
55.8200 18.5904 -0.1982
55.8400 18.5971 -0.2114
55.8600 18.6037 -0.2054
55.8800 18.6103 -0.1996
55.9000 18.6169 -0.2095
55.9200 18.6236 -0.2076
55.9400 18.6303 -0.2004
55.9600 18.6370 -0.2142
55.9800 18.6437 -0.2080
56.0000 18.6503 -0.2012
56.0200 18.6570 -0.2048
56.0400 18.6637 -0.2134
56.0600 18.6703 -0.2007
56.0800 18.6770 -0.2075
56.1000 18.6836 -0.2095
56.1200 18.6903 -0.2001
56.1400 18.6970 -0.2138
56.1600 18.7037 -0.2128
56.1800 18.7104 -0.1992
56.2000 18.7171 -0.2132
56.2200 18.7238 -0.2150
56.2400 18.7303 -0.1970
56.2600 18.7369 -0.2098
56.2800 18.7436 -0.2140
56.3000 18.7503 -0.2036
56.3200 18.7570 -0.2127
56.3400 18.7637 -0.2132
56.3600 18.7704 -0.2028
56.3800 18.7771 -0.2153
56.4000 18.7837 -0.2148
56.4200 18.7903 -0.2020
56.4400 18.7969 -0.2141
56.4600 18.8036 -0.2167
56.4800 18.8103 -0.1999
56.5000 18.8170 -0.2218
56.5200 18.8237 -0.2158
56.5400 18.8304 -0.2047
56.5600 18.8370 -0.2200
56.5800 18.8437 -0.2135
56.6000 18.8503 -0.2062
56.6200 18.8569 -0.2231
56.6400 18.8636 -0.2148
56.6600 18.8703 -0.2054
56.6800 18.8770 -0.2205
56.7000 18.8837 -0.2155
56.7200 18.8904 -0.2065
56.7400 18.8971 -0.2239
56.7600 18.9037 -0.2158
56.7800 18.9103 -0.2082
56.8000 18.9169 -0.2181
56.8200 18.9236 -0.2129
56.8400 18.9303 -0.2167
56.8600 18.9371 -0.2177
56.8800 18.9438 -0.2150
56.9000 18.9504 -0.2142
56.9200 18.9571 -0.2189
56.9400 18.9637 -0.2173
56.9600 18.9703 -0.2131
56.9800 18.9770 -0.2104
57.0000 18.9836 -0.2206
57.0200 18.9904 -0.2156
57.0400 18.9971 -0.2127
57.0600 19.0037 -0.2215
57.0800 19.0104 -0.2173
57.1000 19.0170 -0.2096
57.1200 19.0237 -0.2238
57.1400 19.0303 -0.2168
57.1600 19.0369 -0.2146
57.1800 19.0436 -0.2207
57.2000 19.0503 -0.2147
57.2200 19.0570 -0.2200
57.2400 19.0637 -0.2254
57.2600 19.0704 -0.2160
57.2800 19.0771 -0.2156
57.3000 19.0837 -0.2236
57.3200 19.0903 -0.2201
57.3400 19.0969 -0.2142
57.3600 19.1036 -0.2213
57.3800 19.1103 -0.2240
57.4000 19.1170 -0.2170
57.4200 19.1237 -0.2284
57.4400 19.1303 -0.2194
57.4600 19.1370 -0.2217
57.4800 19.1437 -0.2265
57.5000 19.1503 -0.2203
57.5200 19.1569 -0.2202
57.5400 19.1636 -0.2254
57.5600 19.1703 -0.2255
57.5800 19.1770 -0.2178
57.6000 19.1837 -0.2266
57.6200 19.1904 -0.2323
57.6400 19.1971 -0.2148
57.6600 19.2038 -0.2266
57.6800 19.2104 -0.2366
57.7000 19.2170 -0.2163
57.7200 19.2236 -0.2262
57.7400 19.2303 -0.2335
57.7600 19.2371 -0.2193
57.7800 19.2437 -0.2290
57.8000 19.2504 -0.2343
57.8200 19.2571 -0.2160
57.8400 19.2638 -0.2307
57.8600 19.2704 -0.2374
57.8800 19.2769 -0.2174
57.9000 19.2836 -0.2267
57.9200 19.2903 -0.2415
57.9400 19.2970 -0.2192
57.9600 19.3037 -0.2315
57.9800 19.3103 -0.2356
58.0000 19.3170 -0.2203
58.0200 19.3237 -0.2319
58.0400 19.3303 -0.2401
58.0600 19.3369 -0.2165
58.0800 19.3436 -0.2306
58.1000 19.3503 -0.2420
58.1200 19.3570 -0.2228
58.1400 19.3637 -0.2300
58.1600 19.3703 -0.2422
58.1800 19.3770 -0.2183
58.2000 19.3837 -0.2353
58.2200 19.3904 -0.2420
58.2400 19.3970 -0.2229
58.2600 19.4036 -0.2356
58.2800 19.4103 -0.2435
58.3000 19.4170 -0.2241
58.3200 19.4237 -0.2336
58.3400 19.4304 -0.2460
58.3600 19.4371 -0.2213
58.3800 19.4438 -0.2385
58.4000 19.4504 -0.2481
58.4200 19.4570 -0.2256
58.4400 19.4636 -0.2304
58.4600 19.4703 -0.2509
58.4800 19.4770 -0.2291
58.5000 19.4837 -0.2372
58.5200 19.4904 -0.2477
58.5400 19.4971 -0.2308
58.5600 19.5037 -0.2328
58.5800 19.5103 -0.2538
58.6000 19.5170 -0.2283
58.6200 19.5236 -0.2324
58.6400 19.5303 -0.2520
58.6600 19.5370 -0.2320
58.6800 19.5437 -0.2378
58.7000 19.5504 -0.2533
58.7200 19.5570 -0.2318
58.7400 19.5637 -0.2414
58.7600 19.5704 -0.2563
58.7800 19.5769 -0.2288
58.8000 19.5835 -0.2442
58.8200 19.5902 -0.2551
58.8400 19.5969 -0.2298
58.8600 19.6037 -0.2447
58.8800 19.6103 -0.2589
58.9000 19.6170 -0.2333
58.9200 19.6237 -0.2482
58.9400 19.6303 -0.2535
58.9600 19.6369 -0.2292
58.9800 19.6436 -0.2502
59.0000 19.6503 -0.2574
59.0200 19.6570 -0.2288
59.0400 19.6637 -0.2569
59.0600 19.6704 -0.2602
59.0800 19.6771 -0.2280
59.1000 19.6838 -0.2529
59.1200 19.6904 -0.2653
59.1400 19.6970 -0.2294
59.1600 19.7037 -0.2553
59.1800 19.7103 -0.2614
59.2000 19.7170 -0.2392
59.2200 19.7237 -0.2576
59.2400 19.7304 -0.2611
59.2600 19.7371 -0.2394
59.2800 19.7437 -0.2597
59.3000 19.7503 -0.2736
