Raw Data
Time Displacement Force
(s) (mm) (N)
0.0000 0.0000 -0.3309
0.0200 0.0000 -0.3368
0.0400 0.0008 -0.2706
0.0600 0.0039 -0.2346
0.0800 0.0095 -0.2853
0.1000 0.0153 -0.2653
0.1200 0.0212 -0.2168
0.1400 0.0277 -0.2175
0.1600 0.0350 -0.1787
0.1800 0.0424 -0.1419
0.2000 0.0496 -0.1320
0.2200 0.0565 -0.0811
0.2400 0.0632 -0.0427
0.2600 0.0698 -0.0381
0.2800 0.0765 0.0178
0.3000 0.0832 0.0531
0.3200 0.0899 0.0518
0.3400 0.0967 0.1107
0.3600 0.1033 0.1443
0.3800 0.1100 0.1476
0.4000 0.1166 0.2043
0.4200 0.1233 0.2352
0.4400 0.1300 0.2392
0.4600 0.1367 0.2860
0.4800 0.1434 0.2983
0.5000 0.1501 0.2979
0.5200 0.1567 0.3302
0.5400 0.1634 0.3467
0.5600 0.1699 0.3550
0.5800 0.1766 0.4048
0.6000 0.1833 0.4191
0.6200 0.1900 0.4116
0.6400 0.1967 0.4273
0.6600 0.2034 0.4487
0.6800 0.2100 0.4698
0.7000 0.2167 0.5329
0.7200 0.2234 0.5825
0.7400 0.2300 0.6069
0.7600 0.2366 0.6579
0.7800 0.2433 0.7084
0.8000 0.2499 0.7279
0.8200 0.2566 0.7675
0.8400 0.2633 0.7874
0.8600 0.2700 0.7688
0.8800 0.2767 0.7750
0.9000 0.2833 0.7859
0.9200 0.2899 0.7778
0.9400 0.2965 0.7790
0.9600 0.3032 0.7919
0.9800 0.3099 0.7786
1.0000 0.3166 0.7843
1.0200 0.3233 0.7966
1.0400 0.3300 0.7845
1.0600 0.3367 0.7849
1.0800 0.3433 0.7990
1.1000 0.3499 0.7821
1.1200 0.3566 0.7864
1.1400 0.3633 0.8068
1.1600 0.3700 0.7841
1.1800 0.3767 0.7763
1.2000 0.3834 0.8057
1.2200 0.3901 0.7915
1.2400 0.3967 0.7822
1.2600 0.4034 0.7937
1.2800 0.4100 0.7890
1.3000 0.4166 0.7812
1.3200 0.4233 0.7987
1.3400 0.4300 0.7871
1.3600 0.4367 0.7747
1.3800 0.4434 0.7948
1.4000 0.4500 0.7831
1.4200 0.4567 0.7727
1.4400 0.4634 0.7951
1.4600 0.4699 0.7821
1.4800 0.4766 0.7641
1.5000 0.4832 0.7922
1.5200 0.4899 0.7784
1.5400 0.4966 0.7621
1.5600 0.5033 0.7859
1.5800 0.5100 0.7762
1.6000 0.5167 0.7559
1.6200 0.5233 0.7814
1.6400 0.5299 0.7709
1.6600 0.5365 0.7570
1.6800 0.5432 0.7759
1.7000 0.5500 0.7655
1.7200 0.5567 0.7545
1.7400 0.5633 0.7708
1.7600 0.5700 0.7559
1.7800 0.5767 0.7516
1.8000 0.5833 0.7685
1.8200 0.5900 0.7530
1.8400 0.5966 0.7440
1.8600 0.6033 0.7671
1.8800 0.6100 0.7525
1.9000 0.6167 0.7418
1.9200 0.6234 0.7597
1.9400 0.6301 0.7493
1.9600 0.6368 0.7372
1.9800 0.6434 0.7524
2.0000 0.6500 0.7524
2.0200 0.6566 0.7374
2.0400 0.6632 0.7464
2.0600 0.6700 0.7511
2.0800 0.6767 0.7382
2.1000 0.6834 0.7397
2.1200 0.6900 0.7461
2.1400 0.6967 0.7355
2.1600 0.7033 0.7412
2.1800 0.7099 0.7379
2.2000 0.7166 0.7336
2.2200 0.7233 0.7387
2.2400 0.7300 0.7341
2.2600 0.7367 0.7292
2.2800 0.7433 0.7426
2.3000 0.7500 0.7323
2.3200 0.7567 0.7214
2.3400 0.7633 0.7369
2.3600 0.7700 0.7298
2.3800 0.7766 0.7223
2.4000 0.7832 0.7377
2.4200 0.7899 0.7246
2.4400 0.7966 0.7160
2.4600 0.8033 0.7350
2.4800 0.8100 0.7194
2.5000 0.8167 0.7157
2.5200 0.8234 0.7335
2.5400 0.8300 0.7179
2.5600 0.8366 0.7147
2.5800 0.8433 0.7306
2.6000 0.8500 0.7083
2.6200 0.8567 0.7201
2.6400 0.8634 0.7266
2.6600 0.8701 0.7076
2.6800 0.8767 0.7190
2.7000 0.8834 0.7254
2.7200 0.8900 0.7050
2.7400 0.8966 0.7184
2.7600 0.9033 0.7212
2.7800 0.9100 0.7058
2.8000 0.9167 0.7159
2.8200 0.9234 0.7150
2.8400 0.9301 0.7039
2.8600 0.9367 0.7124
2.8800 0.9434 0.7067
2.9000 0.9500 0.7079
2.9200 0.9566 0.7128
2.9400 0.9632 0.6995
2.9600 0.9699 0.7091
2.9800 0.9766 0.7109
3.0000 0.9833 0.6993
3.0200 0.9900 0.7069
3.0400 0.9967 0.7087
3.0600 1.0034 0.6976
3.0800 1.0100 0.7057
3.1000 1.0165 0.7028
3.1200 1.0232 0.7000
3.1400 1.0299 0.7038
3.1600 1.0366 0.6990
3.1800 1.0433 0.6956
3.2000 1.0500 0.7016
3.2200 1.0567 0.6951
3.2400 1.0633 0.6987
3.2600 1.0700 0.6989
3.2800 1.0766 0.6934
3.3000 1.0833 0.6981
3.3200 1.0900 0.6931
3.3400 1.0967 0.6866
3.3600 1.1034 0.7007
3.3800 1.1101 0.6909
3.4000 1.1168 0.6755
3.4200 1.1234 0.6967
3.4400 1.1301 0.6914
3.4600 1.1366 0.6806
3.4800 1.1433 0.6937
3.5000 1.1500 0.6875
3.5200 1.1567 0.6784
3.5400 1.1634 0.6900
3.5600 1.1701 0.6793
3.5800 1.1767 0.6824
3.6000 1.1834 0.6856
3.6200 1.1900 0.6764
3.6400 1.1966 0.6832
3.6600 1.2032 0.6881
3.6800 1.2099 0.6754
3.7000 1.2167 0.6751
3.7200 1.2233 0.6797
3.7400 1.2300 0.6806
3.7600 1.2367 0.6767
3.7800 1.2434 0.6780
3.8000 1.2500 0.6651
3.8200 1.2566 0.6759
3.8400 1.2633 0.6811
3.8600 1.2699 0.6698
3.8800 1.2766 0.6767
3.9000 1.2833 0.6730
3.9200 1.2900 0.6690
3.9400 1.2967 0.6698
3.9600 1.3034 0.6661
3.9800 1.3100 0.6672
4.0000 1.3166 0.6700
4.0200 1.3232 0.6656
4.0400 1.3299 0.6640
4.0600 1.3366 0.6665
4.0800 1.3433 0.6659
4.1000 1.3500 0.6616
4.1200 1.3567 0.6650
4.1400 1.3634 0.6554
4.1600 1.3700 0.6638
4.1800 1.3766 0.6639
4.2000 1.3833 0.6615
4.2200 1.3900 0.6580
4.2400 1.3967 0.6629
4.2600 1.4034 0.6552
4.2800 1.4101 0.6561
4.3000 1.4167 0.6637
4.3200 1.4234 0.6521
4.3400 1.4300 0.6531
4.3600 1.4366 0.6650
4.3800 1.4433 0.6454
4.4000 1.4500 0.6470
4.4200 1.4566 0.6617
4.4400 1.4633 0.6446
4.4600 1.4700 0.6456
4.4800 1.4767 0.6597
4.5000 1.4834 0.6432
4.5200 1.4900 0.6437
4.5400 1.4966 0.6609
4.5600 1.5032 0.6425
4.5800 1.5099 0.6428
4.6000 1.5166 0.6508
4.6200 1.5233 0.6390
4.6400 1.5300 0.6413
4.6600 1.5367 0.6501
4.6800 1.5434 0.6319
4.7000 1.5500 0.6413
4.7200 1.5566 0.6493
4.7400 1.5633 0.6360
4.7600 1.5700 0.6368
4.7800 1.5767 0.6474
4.8000 1.5834 0.6287
4.8200 1.5901 0.6373
4.8400 1.5967 0.6381
4.8600 1.6034 0.6303
4.8800 1.6100 0.6368
4.9000 1.6166 0.6393
4.9200 1.6232 0.6243
4.9400 1.6299 0.6354
4.9600 1.6366 0.6348
4.9800 1.6433 0.6221
5.0000 1.6500 0.6331
5.0200 1.6567 0.6304
5.0400 1.6634 0.6149
5.0600 1.6700 0.6289
5.0800 1.6766 0.6304
5.1000 1.6832 0.6168
5.1200 1.6899 0.6250
5.1400 1.6966 0.6240
5.1600 1.7033 0.6233
5.1800 1.7100 0.6221
5.2000 1.7167 0.6216
5.2200 1.7234 0.6185
5.2400 1.7300 0.6208
5.2600 1.7366 0.6167
5.2800 1.7432 0.6165
5.3000 1.7499 0.6160
5.3200 1.7566 0.6179
5.3400 1.7633 0.6152
5.3600 1.7700 0.6115
5.3800 1.7767 0.6151
5.4000 1.7833 0.6165
5.4200 1.7900 0.6097
5.4400 1.7966 0.6194
5.4600 1.8033 0.6188
5.4800 1.8099 0.6043
5.5000 1.8167 0.6130
5.5200 1.8234 0.6063
5.5400 1.8301 0.6094
5.5600 1.8367 0.6169
5.5800 1.8434 0.6072
5.6000 1.8500 0.6085
5.6200 1.8566 0.6144
5.6400 1.8632 0.6052
5.6600 1.8699 0.6094
5.6800 1.8767 0.6136
5.7000 1.8834 0.6018
5.7200 1.8900 0.6086
5.7400 1.8967 0.6127
5.7600 1.9034 0.6004
5.7800 1.9100 0.6145
5.8000 1.9166 0.6077
5.8200 1.9232 0.6022
5.8400 1.9299 0.6126
5.8600 1.9366 0.6035
5.8800 1.9433 0.6006
5.9000 1.9500 0.6161
5.9200 1.9566 0.6023
5.9400 1.9633 0.5989
5.9600 1.9700 0.6140
5.9800 1.9766 0.6002
6.0000 1.9832 0.6000
6.0200 1.9899 0.6120
6.0400 1.9966 0.6006
6.0600 2.0033 0.6010
6.0800 2.0100 0.6053
6.1000 2.0167 0.6004
6.1200 2.0234 0.6026
6.1400 2.0300 0.5962
6.1600 2.0366 0.6013
6.1800 2.0433 0.6031
6.2000 2.0499 0.5991
6.2200 2.0567 0.5993
6.2400 2.0634 0.5993
6.2600 2.0700 0.5921
6.2800 2.0767 0.5979
6.3000 2.0834 0.5992
6.3200 2.0900 0.5896
6.3400 2.0966 0.5971
6.3600 2.1033 0.5947
6.3800 2.1099 0.5868
6.4000 2.1166 0.5950
6.4200 2.1234 0.5887
6.4400 2.1300 0.5895
6.4600 2.1367 0.5948
6.4800 2.1434 0.5878
6.5000 2.1501 0.5841
6.5200 2.1567 0.5903
6.5400 2.1633 0.5853
6.5600 2.1699 0.5820
6.5800 2.1766 0.5886
6.6000 2.1833 0.5767
6.6200 2.1900 0.5804
6.6400 2.1967 0.5835
6.6600 2.2034 0.5775
6.6800 2.2101 0.5744
6.7000 2.2166 0.5829
6.7200 2.2232 0.5768
6.7400 2.2299 0.5761
6.7600 2.2366 0.5797
6.7800 2.2433 0.5741
6.8000 2.2500 0.5682
6.8200 2.2567 0.5820
6.8400 2.2634 0.5713
6.8600 2.2700 0.5673
6.8800 2.2766 0.5771
6.9000 2.2833 0.5680
6.9200 2.2899 0.5657
6.9400 2.2966 0.5751
6.9600 2.3033 0.5641
6.9800 2.3100 0.5658
7.0000 2.3167 0.5708
7.0200 2.3234 0.5625
7.0400 2.3300 0.5662
7.0600 2.3367 0.5681
7.0800 2.3433 0.5608
7.1000 2.3499 0.5602
7.1200 2.3566 0.5712
7.1400 2.3633 0.5571
7.1600 2.3700 0.5615
7.1800 2.3767 0.5676
7.2000 2.3834 0.5553
7.2200 2.3901 0.5561
7.2400 2.3967 0.5702
7.2600 2.4033 0.5549
7.2800 2.4099 0.5545
7.3000 2.4166 0.5663
7.3200 2.4233 0.5551
7.3400 2.4300 0.5505
7.3600 2.4367 0.5637
7.3800 2.4434 0.5481
7.4000 2.4500 0.5544
7.4200 2.4566 0.5620
7.4400 2.4632 0.5528
7.4600 2.4699 0.5522
7.4800 2.4766 0.5580
7.5000 2.4833 0.5518
7.5200 2.4900 0.5486
7.5400 2.4967 0.5568
7.5600 2.5033 0.5500
7.5800 2.5100 0.5560
7.6000 2.5166 0.5498
7.6200 2.5233 0.5438
7.6400 2.5299 0.5575
7.6600 2.5367 0.5525
7.6800 2.5434 0.5393
7.7000 2.5500 0.5497
7.7200 2.5567 0.5486
7.7400 2.5634 0.5463
7.7600 2.5701 0.5392
7.7800 2.5767 0.5397
7.8000 2.5833 0.5485
7.8200 2.5899 0.5444
7.8400 2.5967 0.5314
7.8600 2.6034 0.5461
7.8800 2.6101 0.5484
7.9000 2.6167 0.5362
7.9200 2.6234 0.5391
7.9400 2.6300 0.5379
7.9600 2.6366 0.5345
7.9800 2.6433 0.5458
8.0000 2.6499 0.5304
8.0200 2.6566 0.5335
8.0400 2.6633 0.5428
8.0600 2.6700 0.5320
8.0800 2.6767 0.5319
8.1000 2.6834 0.5415
8.1200 2.6900 0.5284
8.1400 2.6967 0.5320
8.1600 2.7032 0.5292
8.1800 2.7099 0.5272
8.2000 2.7166 0.5466
8.2200 2.7233 0.5217
8.2400 2.7300 0.5257
8.2600 2.7367 0.5404
8.2800 2.7434 0.5213
8.3000 2.7501 0.5240
8.3200 2.7567 0.5386
8.3400 2.7633 0.5216
8.3600 2.7699 0.5294
8.3800 2.7766 0.5319
8.4000 2.7833 0.5171
8.4200 2.7900 0.5309
8.4400 2.7967 0.5342
8.4600 2.8034 0.5127
8.4800 2.8101 0.5302
8.5000 2.8167 0.5304
8.5200 2.8233 0.5147
8.5400 2.8299 0.5278
8.5600 2.8366 0.5269
8.5800 2.8434 0.5113
8.6000 2.8501 0.5271
8.6200 2.8567 0.5258
8.6400 2.8634 0.5170
8.6600 2.8701 0.5232
8.6800 2.8767 0.5195
8.7000 2.8833 0.5166
8.7200 2.8899 0.5231
8.7400 2.8966 0.5219
8.7600 2.9033 0.5108
8.7800 2.9100 0.5207
8.8000 2.9167 0.5201
8.8200 2.9234 0.5139
8.8400 2.9300 0.5181
8.8600 2.9366 0.5175
8.8800 2.9432 0.5132
8.9000 2.9499 0.5209
8.9200 2.9566 0.5105
8.9400 2.9633 0.5152
8.9600 2.9700 0.5147
8.9800 2.9766 0.5054
9.0000 2.9833 0.5133
9.0200 2.9900 0.5153
9.0400 2.9966 0.5043
9.0600 3.0033 0.5090
9.0800 3.0099 0.5115
9.1000 3.0166 0.5060
9.1200 3.0233 0.5075
9.1400 3.0300 0.5072
9.1600 3.0367 0.5028
9.1800 3.0434 0.5079
9.2000 3.0501 0.5029
9.2200 3.0567 0.5018
9.2400 3.0633 0.5079
9.2600 3.0699 0.5011
9.2800 3.0766 0.5047
9.3000 3.0833 0.5001
9.3200 3.0901 0.5053
9.3400 3.0967 0.5024
9.3600 3.1034 0.5007
9.3800 3.1101 0.4993
9.4000 3.1167 0.5015
9.4200 3.1233 0.4987
9.4400 3.1299 0.5010
9.4600 3.1366 0.5004
9.4800 3.1433 0.4947
9.5000 3.1500 0.5014
9.5200 3.1567 0.4990
9.5400 3.1634 0.4923
9.5600 3.1701 0.5033
9.5800 3.1767 0.4973
9.6000 3.1833 0.4917
9.6200 3.1899 0.4977
9.6400 3.1966 0.4969
9.6600 3.2033 0.4969
9.6800 3.2100 0.4938
9.7000 3.2166 0.4956
9.7200 3.2233 0.4934
9.7400 3.2300 0.4990
9.7600 3.2366 0.4907
9.7800 3.2432 0.4906
9.8000 3.2499 0.4966
9.8200 3.2566 0.4941
9.8400 3.2633 0.4868
9.8600 3.2700 0.4937
9.8800 3.2767 0.4914
9.9000 3.2834 0.4907
9.9200 3.2901 0.4934
9.9400 3.2967 0.4897
9.9600 3.3033 0.4880
9.9800 3.3099 0.4951
10.0000 3.3166 0.4843
10.0200 3.3234 0.4873
10.0400 3.3301 0.4882
10.0600 3.3367 0.4853
10.0800 3.3434 0.4877
10.1000 3.3500 0.4840
10.1200 3.3567 0.4877
10.1400 3.3633 0.4865
10.1600 3.3699 0.4866
10.1800 3.3766 0.4811
10.2000 3.3833 0.4841
10.2200 3.3900 0.4852
10.2400 3.3967 0.4795
10.2600 3.4033 0.4841
10.2800 3.4100 0.4823
10.3000 3.4167 0.4780
10.3200 3.4233 0.4806
10.3400 3.4299 0.4796
10.3600 3.4366 0.4835
10.3800 3.4433 0.4733
10.4000 3.4500 0.4829
10.4200 3.4567 0.4751
10.4400 3.4633 0.4740
10.4600 3.4700 0.4835
10.4800 3.4767 0.4756
10.5000 3.4833 0.4683
10.5200 3.4899 0.4815
10.5400 3.4966 0.4741
10.5600 3.5033 0.4661
10.5800 3.5100 0.4821
10.6000 3.5167 0.4759
10.6200 3.5234 0.4604
10.6400 3.5301 0.4782
10.6600 3.5367 0.4649
10.6800 3.5433 0.4674
10.7000 3.5499 0.4790
10.7200 3.5566 0.4565
10.7400 3.5633 0.4703
10.7600 3.5700 0.4792
10.7800 3.5767 0.4647
10.8000 3.5834 0.4628
10.8200 3.5901 0.4767
10.8400 3.5967 0.4603
10.8600 3.6033 0.4635
10.8800 3.6099 0.4703
10.9000 3.6166 0.4589
10.9200 3.6233 0.4633
10.9400 3.6300 0.4659
10.9600 3.6367 0.4556
10.9800 3.6434 0.4652
11.0000 3.6500 0.4617
11.0200 3.6567 0.4519
11.0400 3.6633 0.4575
11.0600 3.6699 0.4681
11.0800 3.6766 0.4534
11.1000 3.6833 0.4596
11.1200 3.6900 0.4597
11.1400 3.6966 0.4506
11.1600 3.7033 0.4615
11.1800 3.7100 0.4528
11.2000 3.7167 0.4538
11.2200 3.7233 0.4566
11.2400 3.7299 0.4559
11.2600 3.7366 0.4496
11.2800 3.7433 0.4568
11.3000 3.7500 0.4568
11.3200 3.7567 0.4444
11.3400 3.7635 0.4521
11.3600 3.7701 0.4535
11.3800 3.7768 0.4385
11.4000 3.7833 0.4538
11.4200 3.7899 0.4534
11.4400 3.7966 0.4466
11.4600 3.8033 0.4441
11.4800 3.8100 0.4492
11.5000 3.8167 0.4446
11.5200 3.8234 0.4477
11.5400 3.8301 0.4473
11.5600 3.8367 0.4452
11.5800 3.8433 0.4477
11.6000 3.8499 0.4471
11.6200 3.8566 0.4400
11.6400 3.8633 0.4492
11.6600 3.8700 0.4450
11.6800 3.8766 0.4367
11.7000 3.8833 0.4444
11.7200 3.8900 0.4479
11.7400 3.8967 0.4355
11.7600 3.9033 0.4411
11.7800 3.9099 0.4523
11.8000 3.9165 0.4372
11.8200 3.9232 0.4419
11.8400 3.9300 0.4432
11.8600 3.9366 0.4342
11.8800 3.9433 0.4403
11.9000 3.9500 0.4443
11.9200 3.9567 0.4334
11.9400 3.9633 0.4407
11.9600 3.9699 0.4408
11.9800 3.9766 0.4378
12.0000 3.9833 0.4363
12.0200 3.9900 0.4380
12.0400 3.9967 0.4306
12.0600 4.0034 0.4375
12.0800 4.0100 0.4363
12.1000 4.0167 0.4329
12.1200 4.0234 0.4326
12.1400 4.0300 0.4378
12.1600 4.0366 0.4345
12.1800 4.0433 0.4305
12.2000 4.0500 0.4368
12.2200 4.0567 0.4318
12.2400 4.0634 0.4311
12.2600 4.0701 0.4341
12.2800 4.0768 0.4342
12.3000 4.0834 0.4237
12.3200 4.0899 0.4336
12.3400 4.0966 0.4355
12.3600 4.1033 0.4263
12.3800 4.1100 0.4352
12.4000 4.1167 0.4293
12.4200 4.1234 0.4160
12.4400 4.1301 0.4362
12.4600 4.1367 0.4271
12.4800 4.1433 0.4188
12.5000 4.1499 0.4329
12.5200 4.1566 0.4281
12.5400 4.1633 0.4160
12.5600 4.1700 0.4322
12.5800 4.1767 0.4179
12.6000 4.1833 0.4191
12.6200 4.1900 0.4280
12.6400 4.1967 0.4166
12.6600 4.2033 0.4200
12.6800 4.2100 0.4272
12.7000 4.2166 0.4131
12.7200 4.2233 0.4146
12.7400 4.2300 0.4276
12.7600 4.2367 0.4147
12.7800 4.2434 0.4147
12.8000 4.2501 0.4210
12.8200 4.2567 0.4175
12.8400 4.2634 0.4128
12.8600 4.2699 0.4195
12.8800 4.2766 0.4107
12.9000 4.2833 0.4141
12.9200 4.2900 0.4112
12.9400 4.2967 0.4117
12.9600 4.3034 0.4111
12.9800 4.3101 0.4097
13.0000 4.3167 0.4141
13.0200 4.3233 0.4123
13.0400 4.3299 0.4080
13.0600 4.3366 0.4162
13.0800 4.3433 0.4102
13.1000 4.3500 0.4034
13.1200 4.3567 0.4104
13.1400 4.3634 0.4113
13.1600 4.3700 0.4038
13.1800 4.3767 0.4117
13.2000 4.3833 0.4090
13.2200 4.3899 0.4042
13.2400 4.3965 0.4081
13.2600 4.4032 0.4017
13.2800 4.4099 0.4037
13.3000 4.4166 0.4097
13.3200 4.4233 0.4052
13.3400 4.4300 0.4002
13.3600 4.4367 0.4092
13.3800 4.4433 0.3992
13.4000 4.4499 0.4029
13.4200 4.4566 0.4085
13.4400 4.4633 0.3987
13.4600 4.4700 0.4001
13.4800 4.4767 0.4061
13.5000 4.4834 0.3943
13.5200 4.4901 0.4032
13.5400 4.4967 0.4003
13.5600 4.5034 0.3937
13.5800 4.5100 0.3998
13.6000 4.5166 0.4031
13.6200 4.5233 0.3935
13.6400 4.5300 0.3984
13.6600 4.5367 0.4017
13.6800 4.5433 0.3938
13.7000 4.5500 0.3971
13.7200 4.5567 0.3929
13.7400 4.5633 0.3931
13.7600 4.5699 0.3963
13.7800 4.5766 0.3948
13.8000 4.5833 0.3933
13.8200 4.5900 0.3879
13.8400 4.5967 0.3891
13.8600 4.6034 0.4001
13.8800 4.6101 0.3878
13.9000 4.6167 0.3901
13.9200 4.6234 0.3977
13.9400 4.6299 0.3862
13.9600 4.6366 0.3866
13.9800 4.6432 0.4018
14.0000 4.6500 0.3804
14.0200 4.6567 0.3874
14.0400 4.6634 0.3935
14.0600 4.6700 0.3823
14.0800 4.6767 0.3873
14.1000 4.6833 0.3931
14.1200 4.6899 0.3800
14.1400 4.6966 0.3878
14.1600 4.7033 0.3901
14.1800 4.7100 0.3780
14.2000 4.7167 0.3841
14.2200 4.7234 0.3859
14.2400 4.7301 0.3764
14.2600 4.7367 0.3872
14.2800 4.7434 0.3786
14.3000 4.7500 0.3741
14.3200 4.7566 0.3902
14.3400 4.7633 0.3781
14.3600 4.7700 0.3767
14.3800 4.7767 0.3833
14.4000 4.7834 0.3759
14.4200 4.7901 0.3747
14.4400 4.7968 0.3852
14.4600 4.8034 0.3680
14.4800 4.8099 0.3731
14.5000 4.8165 0.3867
14.5200 4.8232 0.3749
14.5400 4.8299 0.3705
14.5600 4.8366 0.3822
14.5800 4.8433 0.3706
14.6000 4.8500 0.3695
14.6200 4.8567 0.3627
14.6400 4.8633 0.3615
14.6600 4.8699 0.3594
14.6800 4.8766 0.3642
14.7000 4.8833 0.3600
14.7200 4.8900 0.3599
14.7400 4.8966 0.3647
14.7600 4.9033 0.3624
14.7800 4.9100 0.3646
14.8000 4.9167 0.3559
14.8200 4.9234 0.3590
14.8400 4.9300 0.3638
14.8600 4.9366 0.3623
14.8800 4.9433 0.3594
14.9000 4.9500 0.3617
14.9200 4.9567 0.3607
14.9400 4.9634 0.3625
14.9600 4.9701 0.3611
14.9800 4.9768 0.3642
15.0000 4.9834 0.3550
15.0200 4.9900 0.3626
15.0400 4.9966 0.3617
15.0600 5.0033 0.3602
15.0800 5.0100 0.3622
15.1000 5.0167 0.3598
15.1200 5.0234 0.3531
15.1400 5.0301 0.3619
15.1600 5.0367 0.3622
15.1800 5.0434 0.3534
15.2000 5.0500 0.3629
15.2200 5.0566 0.3593
15.2400 5.0633 0.3493
15.2600 5.0700 0.3580
15.2800 5.0766 0.3624
15.3000 5.0833 0.3502
15.3200 5.0900 0.3541
15.3400 5.0967 0.3598
15.3600 5.1033 0.3513
15.3800 5.1100 0.3513
15.4000 5.1166 0.3565
15.4200 5.1232 0.3517
15.4400 5.1299 0.3532
15.4600 5.1366 0.3528
15.4800 5.1433 0.3480
15.5000 5.1500 0.3496
15.5200 5.1567 0.3581
15.5400 5.1633 0.3437
15.5600 5.1699 0.3521
15.5800 5.1766 0.3543
15.6000 5.1833 0.3438
15.6200 5.1900 0.3497
15.6400 5.1967 0.3497
15.6600 5.2034 0.3433
15.6800 5.2101 0.3494
15.7000 5.2167 0.3461
15.7200 5.2234 0.3424
15.7400 5.2300 0.3490
15.7600 5.2367 0.3443
15.7800 5.2433 0.3393
15.8000 5.2500 0.3474
15.8200 5.2567 0.3419
15.8400 5.2634 0.3353
15.8600 5.2701 0.3451
15.8800 5.2767 0.3388
15.9000 5.2834 0.3384
15.9200 5.2900 0.3410
15.9400 5.2966 0.3400
15.9600 5.3032 0.3377
15.9800 5.3099 0.3406
16.0000 5.3167 0.3358
16.0200 5.3233 0.3389
16.0400 5.3300 0.3356
16.0600 5.3367 0.3366
16.0800 5.3433 0.3348
16.1000 5.3499 0.3318
16.1200 5.3565 0.3356
16.1400 5.3632 0.3397
16.1600 5.3700 0.3318
16.1800 5.3767 0.3304
16.2000 5.3834 0.3334
16.2200 5.3900 0.3325
16.2400 5.3967 0.3339
16.2600 5.4034 0.3310
16.2800 5.4100 0.3267
16.3000 5.4166 0.3341
16.3200 5.4233 0.3300
16.3400 5.4300 0.3272
16.3600 5.4367 0.3347
16.3800 5.4434 0.3261
16.4000 5.4501 0.3297
16.4200 5.4568 0.3235
16.4400 5.4634 0.3258
16.4600 5.4700 0.3297
16.4800 5.4766 0.3266
16.5000 5.4832 0.3251
16.5200 5.4899 0.3305
16.5400 5.4967 0.3221
16.5600 5.5034 0.3280
16.5800 5.5100 0.3267
16.6000 5.5167 0.3238
16.6200 5.5234 0.3261
16.6400 5.5300 0.3273
16.6600 5.5366 0.3213
16.6800 5.5432 0.3267
16.7000 5.5500 0.3275
16.7200 5.5567 0.3176
16.7400 5.5633 0.3249
16.7600 5.5700 0.3279
16.7800 5.5767 0.3167
16.8000 5.5833 0.3251
16.8200 5.5900 0.3245
16.8400 5.5966 0.3138
16.8600 5.6032 0.3252
16.8800 5.6099 0.3235
16.9000 5.6166 0.3140
16.9200 5.6233 0.3258
16.9400 5.6299 0.3274
16.9600 5.6367 0.3071
16.9800 5.6434 0.3220
17.0000 5.6500 0.3249
17.0200 5.6566 0.3150
17.0400 5.6633 0.3204
17.0600 5.6700 0.3204
17.0800 5.6767 0.3109
17.1000 5.6834 0.3225
17.1200 5.6901 0.3179
17.1400 5.6967 0.3086
17.1600 5.7034 0.3167
17.1800 5.7100 0.3191
17.2000 5.7166 0.3070
17.2200 5.7233 0.3177
17.2400 5.7300 0.3200
17.2600 5.7367 0.3042
17.2800 5.7434 0.3119
17.3000 5.7501 0.3199
17.3200 5.7567 0.3072
17.3400 5.7634 0.3084
17.3600 5.7700 0.3163
17.3800 5.7766 0.3011
17.4000 5.7832 0.3112
17.4200 5.7899 0.3160
17.4400 5.7966 0.3003
17.4600 5.8033 0.3080
17.4800 5.8100 0.3195
17.5000 5.8167 0.2967
17.5200 5.8234 0.3072
17.5400 5.8300 0.3170
17.5600 5.8366 0.2990
17.5800 5.8432 0.3088
17.6000 5.8499 0.3138
17.6200 5.8566 0.2938
17.6400 5.8633 0.3113
17.6600 5.8700 0.3110
17.6800 5.8767 0.2929
17.7000 5.8833 0.3068
17.7200 5.8900 0.3138
17.7400 5.8966 0.2908
17.7600 5.9032 0.3074
17.7800 5.9100 0.3120
17.8000 5.9167 0.2883
17.8200 5.9234 0.3041
17.8400 5.9301 0.3062
17.8600 5.9368 0.2904
17.8800 5.9434 0.3047
17.9000 5.9501 0.2997
17.9200 5.9567 0.2902
17.9400 5.9633 0.3035
17.9600 5.9700 0.2988
17.9800 5.9767 0.2902
18.0000 5.9834 0.3009
18.0200 5.9901 0.3000
18.0400 5.9968 0.2864
18.0600 6.0034 0.2976
18.0800 6.0100 0.2945
18.1000 6.0166 0.2933
18.1200 6.0232 0.2986
18.1400 6.0299 0.2961
18.1600 6.0366 0.2900
18.1800 6.0433 0.2964
18.2000 6.0500 0.2956
18.2200 6.0567 0.2852
18.2400 6.0634 0.2963
18.2600 6.0700 0.2931
18.2800 6.0766 0.2846
18.3000 6.0833 0.2915
18.3200 6.0899 0.2947
18.3400 6.0966 0.2861
18.3600 6.1033 0.2879
18.3800 6.1100 0.2932
18.4000 6.1167 0.2831
18.4200 6.1234 0.2891
18.4400 6.1300 0.2913
18.4600 6.1366 0.2776
18.4800 6.1433 0.2927
18.5000 6.1499 0.2887
18.5200 6.1566 0.2779
18.5400 6.1633 0.2885
18.5600 6.1700 0.2892
18.5800 6.1767 0.2746
18.6000 6.1834 0.2919
18.6200 6.1900 0.2812
18.6400 6.1966 0.2732
18.6600 6.2033 0.2865
18.6800 6.2100 0.2850
18.7000 6.2167 0.2741
18.7200 6.2234 0.2900
18.7400 6.2301 0.2779
18.7600 6.2367 0.2737
18.7800 6.2434 0.2836
18.8000 6.2500 0.2738
18.8200 6.2566 0.2754
18.8400 6.2633 0.2871
18.8600 6.2700 0.2784
18.8800 6.2766 0.2701
18.9000 6.2833 0.2850
18.9200 6.2900 0.2705
18.9400 6.2967 0.2730
18.9600 6.3034 0.2817
18.9800 6.3100 0.2681
19.0000 6.3166 0.2740
19.0200 6.3232 0.2847
19.0400 6.3299 0.2698
19.0600 6.3366 0.2777
19.0800 6.3433 0.2751
19.1000 6.3500 0.2664
19.1200 6.3567 0.2746
19.1400 6.3634 0.2738
19.1600 6.3700 0.2652
19.1800 6.3766 0.2776
19.2000 6.3833 0.2753
19.2200 6.3900 0.2691
19.2400 6.3967 0.2739
19.2600 6.4034 0.2649
19.2800 6.4101 0.2682
19.3000 6.4167 0.2767
19.3200 6.4234 0.2624
19.3400 6.4300 0.2663
19.3600 6.4366 0.2756
19.3800 6.4433 0.2634
19.4000 6.4499 0.2686
19.4200 6.4566 0.2685
19.4400 6.4634 0.2606
19.4600 6.4700 0.2693
19.4800 6.4767 0.2653
19.5000 6.4834 0.2626
19.5200 6.4901 0.2722
19.5400 6.4966 0.2603
19.5600 6.5032 0.2638
19.5800 6.5099 0.2729
19.6000 6.5166 0.2591
19.6200 6.5233 0.2622
19.6400 6.5300 0.2737
19.6600 6.5367 0.2558
19.6800 6.5434 0.2619
19.7000 6.5500 0.2635
19.7200 6.5566 0.2556
19.7400 6.5632 0.2666
19.7600 6.5699 0.2657
19.7800 6.5766 0.2491
19.8000 6.5833 0.2666
19.8200 6.5900 0.2624
19.8400 6.5966 0.2467
19.8600 6.6033 0.2663
19.8800 6.6100 0.2616
19.9000 6.6166 0.2485
19.9200 6.6232 0.2639
19.9400 6.6299 0.2609
19.9600 6.6366 0.2476
19.9800 6.6433 0.2665
20.0000 6.6500 0.2547
20.0200 6.6567 0.2486
20.0400 6.6634 0.2632
20.0600 6.6701 0.2479
20.0800 6.6767 0.2481
20.1000 6.6833 0.2685
20.1200 6.6899 0.2478
20.1400 6.6967 0.2483
20.1600 6.7034 0.2634
20.1800 6.7101 0.2493
20.2000 6.7168 0.2464
20.2200 6.7234 0.2623
20.2400 6.7300 0.2465
20.2600 6.7366 0.2519
20.2800 6.7432 0.2542
20.3000 6.7499 0.2488
20.3200 6.7566 0.2521
20.3400 6.7633 0.2523
20.3600 6.7700 0.2469
20.3800 6.7767 0.2419
20.4000 6.7833 0.2517
20.4200 6.7900 0.2493
20.4400 6.7966 0.2419
20.4600 6.8032 0.2491
20.4800 6.8099 0.2506
20.5000 6.8166 0.2394
20.5200 6.8233 0.2498
20.5400 6.8300 0.2502
20.5600 6.8367 0.2374
20.5800 6.8434 0.2461
20.6000 6.8501 0.2492
20.6200 6.8567 0.2354
20.6400 6.8633 0.2475
20.6600 6.8699 0.2473
20.6800 6.8766 0.2358
20.7000 6.8834 0.2399
20.7200 6.8901 0.2476
20.7400 6.8967 0.2411
20.7600 6.9034 0.2421
20.7800 6.9101 0.2410
20.8000 6.9167 0.2359
20.8200 6.9233 0.2375
20.8400 6.9299 0.2415
20.8600 6.9366 0.2378
20.8800 6.9434 0.2376
20.9000 6.9500 0.2390
20.9200 6.9567 0.2378
20.9400 6.9634 0.2322
20.9600 6.9701 0.2384
20.9800 6.9767 0.2376
21.0000 6.9833 0.2300
21.0200 6.9900 0.2387
21.0400 6.9966 0.2340
21.0600 7.0033 0.2300
21.0800 7.0100 0.2374
21.1000 7.0167 0.2369
21.1200 7.0234 0.2256
21.1400 7.0301 0.2357
21.1600 7.0366 0.2323
21.1800 7.0432 0.2282
21.2000 7.0499 0.2369
21.2200 7.0566 0.2323
21.2400 7.0633 0.2195
21.2600 7.0700 0.2350
21.2800 7.0767 0.2298
21.3000 7.0833 0.2216
21.3200 7.0900 0.2305
21.3400 7.0966 0.2284
21.3600 7.1033 0.2227
21.3800 7.1099 0.2327
21.4000 7.1166 0.2276
21.4200 7.1233 0.2233
21.4400 7.1300 0.2259
21.4600 7.1367 0.2212
21.4800 7.1434 0.2325
21.5000 7.1501 0.2222
21.5200 7.1567 0.2212
21.5400 7.1633 0.2277
21.5600 7.1699 0.2203
21.5800 7.1766 0.2175
21.6000 7.1833 0.2277
21.6200 7.1900 0.2178
21.6400 7.1967 0.2163
21.6600 7.2034 0.2242
21.6800 7.2101 0.2185
21.7000 7.2167 0.2137
21.7200 7.2233 0.2275
21.7400 7.2299 0.2106
21.7600 7.2366 0.2158
21.7800 7.2433 0.2243
21.8000 7.2500 0.2130
21.8200 7.2567 0.2173
21.8400 7.2634 0.2201
21.8600 7.2700 0.2057
21.8800 7.2766 0.2163
21.9000 7.2832 0.2241
21.9200 7.2899 0.2057
21.9400 7.2966 0.2175
21.9600 7.3033 0.2159
21.9800 7.3100 0.2034
22.0000 7.3166 0.2204
22.0200 7.3233 0.2163
22.0400 7.3300 0.2009
22.0600 7.3367 0.2241
22.0800 7.3433 0.2094
22.1000 7.3499 0.2024
22.1200 7.3566 0.2202
22.1400 7.3633 0.2130
22.1600 7.3700 0.1914
22.1800 7.3767 0.2220
22.2000 7.3834 0.2093
22.2200 7.3901 0.1921
22.2400 7.3967 0.2237
22.2600 7.4033 0.2053
22.2800 7.4099 0.1922
22.3000 7.4166 0.2225
22.3200 7.4234 0.2047
22.3400 7.4300 0.1972
22.3600 7.4367 0.2193
22.3800 7.4434 0.1980
22.4000 7.4501 0.1977
22.4200 7.4567 0.2181
22.4400 7.4633 0.1933
22.4600 7.4699 0.2024
22.4800 7.4766 0.2201
22.5000 7.4833 0.1877
22.5200 7.4900 0.2004
22.5400 7.4967 0.2164
22.5600 7.5033 0.1908
22.5800 7.5100 0.1961
22.6000 7.5167 0.2093
22.6200 7.5233 0.1884
22.6400 7.5299 0.2023
22.6600 7.5366 0.2024
22.6800 7.5433 0.1922
22.7000 7.5500 0.2015
22.7200 7.5567 0.1961
22.7400 7.5634 0.1926
22.7600 7.5701 0.2004
22.7800 7.5767 0.1908
22.8000 7.5833 0.1978
22.8200 7.5899 0.1979
22.8400 7.5966 0.1899
22.8600 7.6033 0.1973
22.8800 7.6100 0.1965
22.9000 7.6167 0.1893
22.9200 7.6234 0.1936
22.9400 7.6301 0.1960
22.9600 7.6367 0.1843
22.9800 7.6433 0.1953
23.0000 7.6500 0.1947
23.0200 7.6566 0.1872
23.0400 7.6633 0.1892
23.0600 7.6700 0.1938
23.0800 7.6767 0.1859
23.1000 7.6834 0.1900
23.1200 7.6901 0.1863
23.1400 7.6967 0.1901
23.1600 7.7033 0.1824
23.1800 7.7099 0.1862
23.2000 7.7166 0.1882
23.2200 7.7233 0.1836
23.2400 7.7300 0.1819
23.2600 7.7367 0.1909
23.2800 7.7434 0.1795
23.3000 7.7500 0.1827
23.3200 7.7567 0.1917
23.3400 7.7633 0.1798
23.3600 7.7699 0.1804
23.3800 7.7766 0.1855
23.4000 7.7833 0.1794
23.4200 7.7900 0.1857
23.4400 7.7966 0.1833
23.4600 7.8033 0.1752
23.4800 7.8100 0.1833
23.5000 7.8166 0.1800
23.5200 7.8233 0.1777
23.5400 7.8299 0.1817
23.5600 7.8366 0.1797
23.5800 7.8433 0.1747
23.6000 7.8500 0.1773
23.6200 7.8567 0.1751
23.6400 7.8634 0.1791
23.6600 7.8701 0.1717
23.6800 7.8767 0.1741
23.7000 7.8833 0.1806
23.7200 7.8899 0.1694
23.7400 7.8966 0.1738
23.7600 7.9033 0.1784
23.7800 7.9100 0.1623
23.8000 7.9167 0.1771
23.8200 7.9234 0.1784
23.8400 7.9301 0.1622
23.8600 7.9367 0.1781
23.8800 7.9433 0.1736
23.9000 7.9499 0.1624
23.9200 7.9566 0.1792
23.9400 7.9633 0.1672
23.9600 7.9700 0.1592
23.9800 7.9767 0.1803
24.0000 7.9833 0.1641
24.0200 7.9900 0.1624
24.0400 7.9967 0.1749
24.0600 8.0033 0.1593
24.0800 8.0099 0.1644
24.1000 8.0166 0.1729
24.1200 8.0233 0.1590
24.1400 8.0300 0.1690
24.1600 8.0367 0.1710
24.1800 8.0433 0.1617
24.2000 8.0500 0.1632
24.2200 8.0566 0.1687
24.2400 8.0633 0.1557
24.2600 8.0699 0.1681
24.2800 8.0766 0.1638
24.3000 8.0833 0.1564
24.3200 8.0900 0.1666
24.3400 8.0967 0.1609
24.3600 8.1034 0.1576
24.3800 8.1101 0.1690
24.4000 8.1167 0.1553
24.4200 8.1233 0.1585
24.4400 8.1299 0.1653
24.4600 8.1366 0.1592
24.4800 8.1433 0.1616
24.5000 8.1501 0.1579
24.5200 8.1567 0.1605
24.5400 8.1634 0.1613
24.5600 8.1701 0.1554
24.5800 8.1767 0.1573
24.6000 8.1833 0.1614
24.6200 8.1899 0.1486
24.6400 8.1966 0.1616
24.6600 8.2033 0.1592
24.6800 8.2100 0.1480
24.7000 8.2167 0.1561
24.7200 8.2233 0.1592
24.7400 8.2300 0.1483
24.7600 8.2367 0.1571
24.7800 8.2433 0.1488
24.8000 8.2499 0.1556
24.8200 8.2565 0.1565
24.8400 8.2633 0.1505
24.8600 8.2700 0.1500
24.8800 8.2767 0.1566
24.9000 8.2833 0.1517
24.9200 8.2900 0.1502
24.9400 8.2967 0.1489
24.9600 8.3033 0.1527
24.9800 8.3099 0.1543
25.0000 8.3166 0.1470
25.0200 8.3233 0.1493
25.0400 8.3300 0.1520
25.0600 8.3367 0.1463
25.0800 8.3434 0.1526
25.1000 8.3501 0.1495
25.1200 8.3567 0.1402
25.1400 8.3633 0.1526
25.1600 8.3699 0.1445
25.1800 8.3766 0.1457
25.2000 8.3833 0.1488
25.2200 8.3900 0.1438
25.2400 8.3967 0.1410
25.2600 8.4034 0.1482
25.2800 8.4101 0.1376
25.3000 8.4167 0.1433
25.3200 8.4233 0.1455
25.3400 8.4299 0.1402
25.3600 8.4366 0.1393
25.3800 8.4433 0.1485
25.4000 8.4500 0.1425
25.4200 8.4567 0.1359
25.4400 8.4634 0.1461
25.4600 8.4700 0.1414
25.4800 8.4767 0.1353
25.5000 8.4833 0.1362
25.5200 8.4899 0.1383
25.5400 8.4965 0.1421
25.5600 8.5032 0.1399
25.5800 8.5099 0.1283
25.6000 8.5166 0.1426
25.6200 8.5233 0.1401
25.6400 8.5300 0.1278
25.6600 8.5367 0.1362
25.6800 8.5433 0.1460
25.7000 8.5499 0.1309
25.7200 8.5566 0.1286
25.7400 8.5633 0.1441
25.7600 8.5700 0.1333
25.7800 8.5767 0.1244
25.8000 8.5834 0.1381
25.8200 8.5901 0.1297
25.8400 8.5968 0.1279
25.8600 8.6033 0.1327
25.8800 8.6099 0.1334
25.9000 8.6166 0.1327
25.9200 8.6233 0.1314
25.9400 8.6300 0.1291
25.9600 8.6367 0.1272
25.9800 8.6434 0.1309
26.0000 8.6501 0.1308
26.0200 8.6567 0.1276
26.0400 8.6633 0.1293
26.0600 8.6699 0.1248
26.0800 8.6766 0.1206
26.1000 8.6833 0.1346
26.1200 8.6900 0.1280
26.1400 8.6966 0.1159
26.1600 8.7033 0.1302
26.1800 8.7100 0.1320
26.2000 8.7167 0.1137
26.2200 8.7233 0.1307
26.2400 8.7299 0.1274
26.2600 8.7365 0.1085
26.2800 8.7432 0.1289
26.3000 8.7499 0.1257
26.3200 8.7566 0.1114
26.3400 8.7633 0.1312
26.3600 8.7700 0.1202
26.3800 8.7767 0.1085
26.4000 8.7833 0.1310
26.4200 8.7899 0.1229
26.4400 8.7966 0.1095
26.4600 8.8033 0.1289
26.4800 8.8100 0.1200
26.5000 8.8167 0.1061
26.5200 8.8234 0.1274
26.5400 8.8301 0.1198
26.5600 8.8367 0.1096
26.5800 8.8434 0.1212
26.6000 8.8500 0.1173
26.6200 8.8566 0.1095
26.6400 8.8633 0.1254
26.6600 8.8700 0.1138
26.6800 8.8767 0.1090
26.7000 8.8834 0.1216
26.7200 8.8901 0.1164
26.7400 8.8968 0.1027
26.7600 8.9034 0.1195
26.7800 8.9099 0.1143
26.8000 8.9166 0.1044
26.8200 8.9233 0.1186
26.8400 8.9300 0.1150
26.8600 8.9367 0.1036
26.8800 8.9434 0.1171
26.9000 8.9500 0.1137
26.9200 8.9567 0.1006
26.9400 8.9633 0.1109
26.9600 8.9699 0.1149
26.9800 8.9765 0.1062
27.0000 8.9832 0.1092
27.0200 8.9900 0.1094
27.0400 8.9967 0.1020
27.0600 9.0033 0.1107
27.0800 9.0100 0.1095
27.1000 9.0167 0.0974
27.1200 9.0234 0.1046
27.1400 9.0300 0.1112
27.1600 9.0366 0.0970
27.1800 9.0433 0.1053
27.2000 9.0500 0.1128
27.2200 9.0567 0.0997
27.2400 9.0634 0.0979
27.2600 9.0701 0.1136
27.2800 9.0768 0.0933
27.3000 9.0834 0.1007
27.3200 9.0899 0.1109
27.3400 9.0966 0.0937
27.3600 9.1033 0.1003
27.3800 9.1100 0.1092
27.4000 9.1167 0.0907
27.4200 9.1234 0.1020
27.4400 9.1301 0.1086
27.4600 9.1367 0.0867
27.4800 9.1433 0.0994
27.5000 9.1499 0.1085
27.5200 9.1566 0.0890
27.5400 9.1633 0.1011
27.5600 9.1700 0.1008
27.5800 9.1767 0.0844
27.6000 9.1834 0.1042
27.6200 9.1900 0.1010
27.6400 9.1967 0.0855
27.6600 9.2033 0.0997
27.6800 9.2099 0.0996
27.7000 9.2165 0.0838
27.7200 9.2232 0.1026
27.7400 9.2299 0.0963
27.7600 9.2366 0.0863
27.7800 9.2433 0.0978
27.8000 9.2500 0.0952
27.8200 9.2567 0.0829
27.8400 9.2633 0.0951
27.8600 9.2699 0.0909
27.8800 9.2766 0.0911
27.9000 9.2833 0.0962
27.9200 9.2900 0.0897
27.9400 9.2967 0.0874
27.9600 9.3034 0.0920
27.9800 9.3101 0.0892
28.0000 9.3168 0.0887
28.0200 9.3234 0.0872
28.0400 9.3300 0.0850
28.0600 9.3366 0.0956
28.0800 9.3433 0.0831
28.1000 9.3500 0.0868
28.1200 9.3567 0.0879
28.1400 9.3634 0.0793
28.1600 9.3701 0.0876
28.1800 9.3767 0.0867
28.2000 9.3834 0.0803
28.2200 9.3900 0.0906
28.2400 9.3966 0.0874
28.2600 9.4032 0.0765
28.2800 9.4100 0.0924
28.3000 9.4167 0.0888
28.3200 9.4233 0.0693
28.3400 9.4300 0.0894
28.3600 9.4367 0.0859
28.3800 9.4434 0.0704
28.4000 9.4500 0.0882
28.4200 9.4566 0.0865
28.4400 9.4632 0.0671
28.4600 9.4700 0.0883
28.4800 9.4767 0.0855
28.5000 9.4833 0.0665
28.5200 9.4900 0.0877
28.5400 9.4967 0.0848
28.5600 9.5033 0.0655
28.5800 9.5100 0.0864
28.6000 9.5166 0.0836
28.6200 9.5233 0.0634
28.6400 9.5300 0.0896
28.6600 9.5367 0.0770
28.6800 9.5434 0.0650
28.7000 9.5500 0.0862
28.7200 9.5567 0.0810
28.7400 9.5634 0.0633
28.7600 9.5700 0.0825
28.7800 9.5766 0.0803
28.8000 9.5833 0.0704
28.8200 9.5900 0.0763
28.8400 9.5967 0.0796
28.8600 9.6034 0.0680
28.8800 9.6101 0.0763
28.9000 9.6168 0.0743
28.9200 9.6234 0.0677
28.9400 9.6300 0.0721
28.9600 9.6366 0.0774
28.9800 9.6432 0.0653
29.0000 9.6499 0.0676
29.0200 9.6566 0.0779
29.0400 9.6633 0.0658
29.0600 9.6700 0.0640
29.0800 9.6767 0.0754
29.1000 9.6833 0.0675
29.1200 9.6900 0.0635
29.1400 9.6966 0.0766
29.1600 9.7032 0.0643
29.1800 9.7100 0.0671
29.2000 9.7167 0.0724
29.2200 9.7233 0.0600
29.2400 9.7300 0.0659
29.2600 9.7367 0.0753
29.2800 9.7433 0.0543
29.3000 9.7500 0.0679
29.3200 9.7566 0.0739
29.3400 9.7633 0.0509
29.3600 9.7700 0.0614
29.3800 9.7767 0.0774
29.4000 9.7834 0.0572
29.4200 9.7901 0.0561
29.4400 9.7968 0.0698
29.4600 9.8034 0.0565
29.4800 9.8100 0.0589
29.5000 9.8166 0.0725
29.5200 9.8232 0.0535
29.5400 9.8300 0.0607
29.5600 9.8367 0.0680
29.5800 9.8434 0.0487
29.6000 9.8501 0.0613
29.6200 9.8567 0.0710
29.6400 9.8634 0.0479
29.6600 9.8700 0.0564
29.6800 9.8766 0.0657
29.7000 9.8833 0.0526
29.7200 9.8900 0.0606
29.7400 9.8967 0.0619
29.7600 9.9033 0.0526
29.7800 9.9100 0.0533
29.8000 9.9167 0.0592
29.8200 9.9234 0.0564
29.8400 9.9300 0.0566
29.8600 9.9365 0.0579
29.8800 9.9432 0.0585
29.9000 9.9499 0.0475
29.9200 9.9566 0.0578
29.9400 9.9633 0.0535
29.9600 9.9700 0.0480
29.9800 9.9767 0.0544
30.0000 9.9833 0.0523
30.0200 9.9899 0.0467
30.0400 9.9966 0.0568
30.0600 10.0033 0.0560
30.0800 10.0100 0.0392
30.1000 10.0167 0.0545
30.1200 10.0234 0.0548
30.1400 10.0301 0.0359
30.1600 10.0367 0.0577
30.1800 10.0434 0.0476
30.2000 10.0500 0.0336
30.2200 10.0566 0.0643
30.2400 10.0633 0.0481
30.2600 10.0700 0.0358
30.2800 10.0767 0.0523
30.3000 10.0834 0.0500
30.3200 10.0901 0.0378
30.3400 10.0967 0.0599
30.3600 10.1034 0.0415
30.3800 10.1100 0.0367
30.4000 10.1166 0.0543
30.4200 10.1232 0.0445
30.4400 10.1299 0.0390
30.4600 10.1367 0.0536
30.4800 10.1433 0.0393
30.5000 10.1500 0.0360
30.5200 10.1567 0.0521
30.5400 10.1633 0.0340
30.5600 10.1700 0.0356
30.5800 10.1766 0.0523
30.6000 10.1832 0.0339
30.6200 10.1900 0.0286
30.6400 10.1967 0.0533
30.6600 10.2034 0.0358
30.6800 10.2100 0.0279
30.7000 10.2167 0.0507
30.7200 10.2234 0.0334
30.7400 10.2300 0.0305
30.7600 10.2366 0.0496
30.7800 10.2433 0.0317
30.8000 10.2500 0.0318
30.8200 10.2567 0.0390
30.8400 10.2633 0.0310
30.8600 10.2700 0.0356
30.8800 10.2767 0.0401
30.9000 10.2834 0.0210
30.9200 10.2900 0.0289
30.9400 10.2966 0.0364
30.9600 10.3033 0.0303
30.9800 10.3100 0.0275
31.0000 10.3167 0.0317
31.0200 10.3234 0.0287
31.0400 10.3301 0.0278
31.0600 10.3367 0.0278
31.0800 10.3434 0.0286
31.1000 10.3500 0.0308
31.1200 10.3566 0.0238
31.1400 10.3632 0.0322
31.1600 10.3700 0.0277
31.1800 10.3767 0.0208
31.2000 10.3834 0.0353
31.2200 10.3900 0.0253
31.2400 10.3967 0.0164
31.2600 10.4034 0.0352
31.2800 10.4100 0.0205
31.3000 10.4166 0.0201
31.3200 10.4232 0.0322
31.3400 10.4299 0.0165
31.3600 10.4366 0.0228
31.3800 10.4433 0.0350
31.4000 10.4500 0.0115
31.4200 10.4567 0.0243
31.4400 10.4634 0.0329
31.4600 10.4700 0.0097
31.4800 10.4766 0.0203
31.5000 10.4833 0.0352
31.5200 10.4900 0.0081
31.5400 10.4967 0.0228
31.5600 10.5034 0.0260
31.5800 10.5101 0.0056
31.6000 10.5167 0.0231
31.6200 10.5234 0.0228
31.6400 10.5300 0.0063
31.6600 10.5366 0.0219
31.6800 10.5433 0.0228
31.7000 10.5500 0.0078
31.7200 10.5567 0.0255
31.7400 10.5634 0.0170
31.7600 10.5700 0.0061
31.7800 10.5767 0.0251
31.8000 10.5834 0.0143
31.8200 10.5900 0.0050
31.8400 10.5966 0.0211
31.8600 10.6033 0.0144
31.8800 10.6099 0.0169
31.9000 10.6166 0.0133
31.9200 10.6233 0.0131
31.9400 10.6300 0.0143
31.9600 10.6367 0.0140
31.9800 10.6434 0.0117
32.0000 10.6500 0.0139
32.0200 10.6566 0.0084
32.0400 10.6632 0.0138
32.0600 10.6699 0.0128
32.0800 10.6766 0.0059
32.1000 10.6833 0.0103
32.1200 10.6900 0.0111
32.1400 10.6967 0.0068
32.1600 10.7034 0.0092
32.1800 10.7100 0.0035
32.2000 10.7166 0.0057
32.2200 10.7233 0.0100
32.2400 10.7300 0.0029
32.2600 10.7367 0.0078
32.2800 10.7434 0.0103
32.3000 10.7501 -0.0008
32.3200 10.7568 0.0070
32.3400 10.7634 0.0101
32.3600 10.7701 -0.0084
32.3800 10.7767 0.0121
32.4000 10.7833 0.0066
32.4200 10.7900 -0.0063
32.4400 10.7967 0.0106
32.4600 10.8034 0.0040
32.4800 10.8100 -0.0099
32.5000 10.8167 0.0129
32.5200 10.8234 -0.0018
32.5400 10.8300 -0.0032
32.5600 10.8366 0.0117
32.5800 10.8432 -0.0010
32.6000 10.8499 -0.0029
32.6200 10.8566 0.0068
32.6400 10.8634 -0.0042
32.6600 10.8700 -0.0072
32.6800 10.8767 0.0057
32.7000 10.8834 -0.0065
32.7200 10.8900 -0.0072
32.7400 10.8966 0.0065
32.7600 10.9032 -0.0050
32.7800 10.9099 -0.0081
32.8000 10.9166 0.0028
32.8200 10.9233 -0.0081
32.8400 10.9300 -0.0008
32.8600 10.9367 -0.0036
32.8800 10.9433 -0.0106
32.9000 10.9500 -0.0071
32.9200 10.9566 -0.0008
32.9400 10.9633 -0.0101
32.9600 10.9699 -0.0040
32.9800 10.9766 -0.0065
33.0000 10.9833 -0.0120
33.0200 10.9900 -0.0068
33.0400 10.9967 -0.0130
33.0600 11.0034 -0.0112
33.0800 11.0100 -0.0064
33.1000 11.0166 -0.0149
33.1200 11.0233 -0.0072
33.1400 11.0300 -0.0098
33.1600 11.0367 -0.0174
33.1800 11.0434 -0.0097
33.2000 11.0501 -0.0086
33.2200 11.0567 -0.0179
33.2400 11.0634 -0.0164
33.2600 11.0700 -0.0092
33.2800 11.0766 -0.0219
33.3000 11.0833 -0.0098
33.3200 11.0899 -0.0129
33.3400 11.0966 -0.0241
33.3600 11.1033 -0.0137
33.3800 11.1100 -0.0148
33.4000 11.1167 -0.0278
33.4200 11.1234 -0.0129
33.4400 11.1300 -0.0161
33.4600 11.1366 -0.0274
33.4800 11.1432 -0.0166
33.5000 11.1499 -0.0126
33.5200 11.1566 -0.0315
33.5400 11.1633 -0.0159
33.5600 11.1700 -0.0147
33.5800 11.1767 -0.0325
33.6000 11.1834 -0.0161
33.6200 11.1900 -0.0225
33.6400 11.1966 -0.0302
33.6600 11.2033 -0.0174
33.6800 11.2100 -0.0250
33.7000 11.2167 -0.0289
33.7200 11.2234 -0.0183
33.7400 11.2301 -0.0255
33.7600 11.2367 -0.0291
33.7800 11.2434 -0.0187
33.8000 11.2501 -0.0282
33.8200 11.2567 -0.0390
33.8400 11.2633 -0.0124
33.8600 11.2699 -0.0329
33.8800 11.2766 -0.0367
33.9000 11.2833 -0.0189
33.9200 11.2900 -0.0274
33.9400 11.2967 -0.0339
33.9600 11.3034 -0.0242
33.9800 11.3101 -0.0286
34.0000 11.3167 -0.0324
34.0200 11.3232 -0.0258
34.0400 11.3299 -0.0276
34.0600 11.3366 -0.0318
34.0800 11.3433 -0.0258
34.1000 11.3500 -0.0342
34.1200 11.3567 -0.0316
34.1400 11.3634 -0.0274
34.1600 11.3700 -0.0323
34.1800 11.3766 -0.0340
34.2000 11.3832 -0.0291
34.2200 11.3899 -0.0289
34.2400 11.3966 -0.0386
34.2600 11.4033 -0.0303
34.2800 11.4100 -0.0320
34.3000 11.4167 -0.0340
34.3200 11.4233 -0.0360
34.3400 11.4300 -0.0319
34.3600 11.4366 -0.0335
34.3800 11.4433 -0.0352
34.4000 11.4499 -0.0373
34.4200 11.4566 -0.0382
34.4400 11.4633 -0.0350
34.4600 11.4700 -0.0344
34.4800 11.4767 -0.0434
34.5000 11.4834 -0.0339
34.5200 11.4901 -0.0396
34.5400 11.4967 -0.0438
34.5600 11.5033 -0.0404
34.5800 11.5099 -0.0323
34.6000 11.5166 -0.0401
34.6200 11.5234 -0.0425
34.6400 11.5301 -0.0381
34.6600 11.5367 -0.0464
34.6800 11.5434 -0.0426
34.7000 11.5500 -0.0373
34.7200 11.5566 -0.0486
34.7400 11.5632 -0.0464
34.7600 11.5699 -0.0335
34.7800 11.5766 -0.0535
34.8000 11.5833 -0.0475
34.8200 11.5900 -0.0335
34.8400 11.5966 -0.0510
34.8600 11.6033 -0.0483
34.8800 11.6100 -0.0344
34.9000 11.6166 -0.0598
34.9200 11.6232 -0.0394
34.9400 11.6299 -0.0355
34.9600 11.6366 -0.0612
34.9800 11.6433 -0.0476
35.0000 11.6500 -0.0340
35.0200 11.6567 -0.0625
35.0400 11.6634 -0.0510
35.0600 11.6701 -0.0398
35.0800 11.6767 -0.0583
35.1000 11.6833 -0.0532
35.1200 11.6899 -0.0412
35.1400 11.6966 -0.0615
35.1600 11.7033 -0.0528
35.1800 11.7100 -0.0424
35.2000 11.7167 -0.0661
35.2200 11.7234 -0.0525
35.2400 11.7301 -0.0453
35.2600 11.7367 -0.0662
35.2800 11.7433 -0.0482
35.3000 11.7499 -0.0479
35.3200 11.7566 -0.0699
35.3400 11.7633 -0.0519
35.3600 11.7700 -0.0487
35.3800 11.7767 -0.0648
35.4000 11.7834 -0.0562
35.4200 11.7901 -0.0487
35.4400 11.7967 -0.0675
35.4600 11.8033 -0.0558
35.4800 11.8100 -0.0488
35.5000 11.8166 -0.0651
35.5200 11.8233 -0.0596
35.5400 11.8300 -0.0495
35.5600 11.8367 -0.0673
35.5800 11.8434 -0.0557
35.6000 11.8501 -0.0549
35.6200 11.8567 -0.0715
35.6400 11.8632 -0.0572
35.6600 11.8699 -0.0480
35.6800 11.8766 -0.0717
35.7000 11.8833 -0.0646
35.7200 11.8900 -0.0518
35.7400 11.8967 -0.0736
35.7600 11.9034 -0.0653
35.7800 11.9100 -0.0553
35.8000 11.9167 -0.0708
35.8200 11.9233 -0.0653
35.8400 11.9299 -0.0605
35.8600 11.9366 -0.0688
35.8800 11.9433 -0.0659
35.9000 11.9500 -0.0658
35.9200 11.9567 -0.0683
35.9400 11.9634 -0.0733
35.9600 11.9701 -0.0633
35.9800 11.9767 -0.0678
36.0000 11.9833 -0.0700
36.0200 11.9899 -0.0674
36.0400 11.9966 -0.0628
36.0600 12.0033 -0.0761
36.0800 12.0100 -0.0702
36.1000 12.0167 -0.0679
36.1200 12.0234 -0.0743
36.1400 12.0301 -0.0729
36.1600 12.0367 -0.0715
36.1800 12.0433 -0.0809
36.2000 12.0499 -0.0674
36.2200 12.0566 -0.0674
36.2400 12.0633 -0.0818
36.2600 12.0700 -0.0739
36.2800 12.0767 -0.0724
36.3000 12.0834 -0.0803
36.3200 12.0900 -0.0736
36.3400 12.0967 -0.0701
36.3600 12.1033 -0.0793
36.3800 12.1099 -0.0757
36.4000 12.1166 -0.0739
36.4200 12.1233 -0.0861
36.4400 12.1299 -0.0779
36.4600 12.1366 -0.0688
36.4800 12.1433 -0.0922
36.5000 12.1500 -0.0826
36.5200 12.1567 -0.0717
36.5400 12.1633 -0.0877
36.5600 12.1699 -0.0832
36.5800 12.1766 -0.0696
36.6000 12.1833 -0.0918
36.6200 12.1900 -0.0804
36.6400 12.1967 -0.0770
36.6600 12.2034 -0.0921
36.6800 12.2101 -0.0762
36.7000 12.2167 -0.0773
36.7200 12.2233 -0.0970
36.7400 12.2299 -0.0769
36.7600 12.2367 -0.0778
36.7800 12.2434 -0.0992
36.8000 12.2501 -0.0796
36.8200 12.2567 -0.0819
36.8400 12.2634 -0.0947
36.8600 12.2700 -0.0814
36.8800 12.2767 -0.0863
36.9000 12.2833 -0.0983
36.9200 12.2899 -0.0803
36.9400 12.2966 -0.0890
36.9600 12.3033 -0.0939
36.9800 12.3100 -0.0857
37.0000 12.3167 -0.0875
37.0200 12.3234 -0.0934
37.0400 12.3300 -0.0879
37.0600 12.3367 -0.0921
37.0800 12.3433 -0.0924
37.1000 12.3499 -0.0914
37.1200 12.3566 -0.0910
37.1400 12.3633 -0.0983
37.1600 12.3700 -0.0936
37.1800 12.3767 -0.0951
37.2000 12.3834 -0.0910
37.2200 12.3900 -0.0943
37.2400 12.3967 -0.0974
37.2600 12.4033 -0.0933
37.2800 12.4099 -0.0964
37.3000 12.4166 -0.0950
37.3200 12.4233 -0.0947
37.3400 12.4300 -0.0965
37.3600 12.4367 -0.0951
37.3800 12.4434 -0.0950
37.4000 12.4501 -0.1065
37.4200 12.4567 -0.0959
37.4400 12.4633 -0.0947
37.4600 12.4700 -0.1041
37.4800 12.4766 -0.1015
37.5000 12.4833 -0.0934
37.5200 12.4900 -0.1124
37.5400 12.4967 -0.0979
37.5600 12.5034 -0.0905
37.5800 12.5101 -0.1130
37.6000 12.5167 -0.1078
37.6200 12.5233 -0.0926
37.6400 12.5299 -0.1153
37.6600 12.5366 -0.1042
37.6800 12.5433 -0.0922
37.7000 12.5500 -0.1170
37.7200 12.5567 -0.1055
37.7400 12.5634 -0.0963
37.7600 12.5700 -0.1241
37.7800 12.5766 -0.1041
37.8000 12.5832 -0.0954
37.8200 12.5898 -0.1262
37.8400 12.5965 -0.0954
37.8600 12.6033 -0.1021
37.8800 12.6100 -0.1329
37.9000 12.6167 -0.0944
37.9200 12.6233 -0.1024
37.9400 12.6300 -0.1360
37.9600 12.6367 -0.0929
37.9800 12.6433 -0.1085
38.0000 12.6499 -0.1327
38.0200 12.6566 -0.0923
38.0400 12.6633 -0.1126
38.0600 12.6700 -0.1381
38.0800 12.6767 -0.0904
38.1000 12.6834 -0.1151
38.1200 12.6901 -0.1372
38.1400 12.6968 -0.0976
38.1600 12.7034 -0.1171
38.1800 12.7100 -0.1330
38.2000 12.7166 -0.1020
38.2200 12.7233 -0.1237
38.2400 12.7300 -0.1322
38.2600 12.7367 -0.1023
38.2800 12.7434 -0.1186
38.3000 12.7501 -0.1353
38.3200 12.7567 -0.1043
38.3400 12.7633 -0.1252
38.3600 12.7699 -0.1360
38.3800 12.7766 -0.1056
38.4000 12.7833 -0.1236
38.4200 12.7900 -0.1325
38.4400 12.7967 -0.1102
38.4600 12.8034 -0.1257
38.4800 12.8100 -0.1346
38.5000 12.8167 -0.1110
38.5200 12.8233 -0.1253
38.5400 12.8299 -0.1367
38.5600 12.8366 -0.1153
38.5800 12.8433 -0.1272
38.6000 12.8500 -0.1401
38.6200 12.8566 -0.1162
38.6400 12.8633 -0.1272
38.6600 12.8700 -0.1353
38.6800 12.8766 -0.1285
38.7000 12.8833 -0.1278
38.7200 12.8899 -0.1398
38.7400 12.8966 -0.1240
38.7600 12.9033 -0.1287
38.7800 12.9100 -0.1411
38.8000 12.9167 -0.1272
38.8200 12.9234 -0.1285
38.8400 12.9301 -0.1386
38.8600 12.9367 -0.1288
38.8800 12.9433 -0.1308
38.9000 12.9499 -0.1448
38.9200 12.9566 -0.1251
38.9400 12.9633 -0.1285
38.9600 12.9701 -0.1462
38.9800 12.9767 -0.1318
39.0000 12.9834 -0.1271
39.0200 12.9901 -0.1445
39.0400 12.9967 -0.1325
39.0600 13.0033 -0.1283
39.0800 13.0099 -0.1437
39.1000 13.0166 -0.1338
39.1200 13.0233 -0.1321
39.1400 13.0300 -0.1450
39.1600 13.0367 -0.1319
39.1800 13.0434 -0.1333
39.2000 13.0500 -0.1424
39.2200 13.0567 -0.1363
39.2400 13.0633 -0.1343
39.2600 13.0699 -0.1389
39.2800 13.0766 -0.1391
39.3000 13.0833 -0.1391
39.3200 13.0900 -0.1407
39.3400 13.0967 -0.1429
39.3600 13.1034 -0.1359
39.3800 13.1100 -0.1405
39.4000 13.1167 -0.1489
39.4200 13.1233 -0.1405
39.4400 13.1299 -0.1403
39.4600 13.1366 -0.1479
39.4800 13.1433 -0.1426
39.5000 13.1500 -0.1403
39.5200 13.1567 -0.1535
39.5400 13.1634 -0.1408
39.5600 13.1701 -0.1436
39.5800 13.1767 -0.1513
39.6000 13.1833 -0.1339
39.6200 13.1899 -0.1445
39.6400 13.1966 -0.1590
39.6600 13.2033 -0.1352
39.6800 13.2100 -0.1467
39.7000 13.2167 -0.1554
39.7200 13.2234 -0.1391
39.7400 13.2301 -0.1481
39.7600 13.2367 -0.1537
39.7800 13.2433 -0.1368
39.8000 13.2499 -0.1487
39.8200 13.2566 -0.1563
39.8400 13.2633 -0.1421
39.8600 13.2700 -0.1447
39.8800 13.2767 -0.1603
39.9000 13.2834 -0.1424
39.9200 13.2901 -0.1464
39.9400 13.2968 -0.1587
39.9600 13.3034 -0.1492
39.9800 13.3100 -0.1517
40.0000 13.3166 -0.1538
40.0200 13.3233 -0.1455
40.0400 13.3300 -0.1516
40.0600 13.3366 -0.1592
40.0800 13.3433 -0.1430
40.1000 13.3500 -0.1555
40.1200 13.3567 -0.1581
40.1400 13.3633 -0.1458
40.1600 13.3699 -0.1539
40.1800 13.3766 -0.1612
40.2000 13.3833 -0.1491
40.2200 13.3900 -0.1526
40.2400 13.3967 -0.1590
40.2600 13.4034 -0.1532
40.2800 13.4101 -0.1537
40.3000 13.4168 -0.1599
40.3200 13.4234 -0.1494
40.3400 13.4300 -0.1518
40.3600 13.4366 -0.1625
40.3800 13.4433 -0.1510
40.4000 13.4500 -0.1546
40.4200 13.4567 -0.1668
40.4400 13.4634 -0.1525
40.4600 13.4700 -0.1484
40.4800 13.4767 -0.1696
40.5000 13.4833 -0.1555
40.5200 13.4899 -0.1530
40.5400 13.4966 -0.1607
40.5600 13.5033 -0.1552
40.5800 13.5100 -0.1564
40.6000 13.5167 -0.1665
40.6200 13.5234 -0.1556
40.6400 13.5300 -0.1610
40.6600 13.5367 -0.1664
40.6800 13.5433 -0.1599
40.7000 13.5499 -0.1570
40.7200 13.5565 -0.1670
40.7400 13.5633 -0.1601
40.7600 13.5700 -0.1637
40.7800 13.5767 -0.1697
40.8000 13.5834 -0.1642
40.8200 13.5900 -0.1591
40.8400 13.5967 -0.1697
40.8600 13.6033 -0.1705
40.8800 13.6099 -0.1577
40.9000 13.6166 -0.1682
40.9200 13.6233 -0.1703
40.9400 13.6300 -0.1596
40.9600 13.6367 -0.1708
40.9800 13.6434 -0.1728
41.0000 13.6501 -0.1658
41.0200 13.6567 -0.1690
41.0400 13.6634 -0.1742
41.0600 13.6700 -0.1683
41.0800 13.6766 -0.1665
41.1000 13.6833 -0.1765
41.1200 13.6900 -0.1663
41.1400 13.6967 -0.1737
41.1600 13.7034 -0.1790
41.1800 13.7101 -0.1638
41.2000 13.7167 -0.1706
41.2200 13.7234 -0.1842
41.2400 13.7300 -0.1642
41.2600 13.7365 -0.1722
41.2800 13.7432 -0.1843
41.3000 13.7499 -0.1590
41.3200 13.7566 -0.1734
41.3400 13.7633 -0.1871
41.3600 13.7701 -0.1605
41.3800 13.7767 -0.1785
41.4000 13.7833 -0.1888
41.4200 13.7899 -0.1627
41.4400 13.7965 -0.1784
41.4600 13.8032 -0.1837
41.4800 13.8099 -0.1624
41.5000 13.8166 -0.1846
41.5200 13.8233 -0.1823
41.5400 13.8300 -0.1598
41.5600 13.8367 -0.1882
41.5800 13.8434 -0.1894
41.6000 13.8500 -0.1633
41.6200 13.8566 -0.1838
41.6400 13.8633 -0.1902
41.6600 13.8700 -0.1636
41.6800 13.8767 -0.1875
41.7000 13.8833 -0.1877
41.7200 13.8901 -0.1674
41.7400 13.8967 -0.1863
41.7600 13.9034 -0.1931
41.7800 13.9100 -0.1665
41.8000 13.9166 -0.1873
41.8200 13.9233 -0.1894
41.8400 13.9300 -0.1693
41.8600 13.9367 -0.1924
41.8800 13.9434 -0.1942
41.9000 13.9501 -0.1690
41.9200 13.9567 -0.1987
41.9400 13.9634 -0.1931
41.9600 13.9700 -0.1692
41.9800 13.9766 -0.2021
42.0000 13.9833 -0.1937
42.0200 13.9900 -0.1737
42.0400 13.9967 -0.1980
42.0600 14.0033 -0.1941
42.0800 14.0100 -0.1757
42.1000 14.0167 -0.2003
42.1200 14.0233 -0.1950
42.1400 14.0299 -0.1788
42.1600 14.0366 -0.1975
42.1800 14.0433 -0.1958
42.2000 14.0500 -0.1824
42.2200 14.0566 -0.2015
42.2400 14.0633 -0.1911
42.2600 14.0700 -0.1823
42.2800 14.0767 -0.2018
42.3000 14.0833 -0.2010
42.3200 14.0899 -0.1827
42.3400 14.0966 -0.2022
42.3600 14.1033 -0.2012
42.3800 14.1100 -0.1830
42.4000 14.1167 -0.2025
42.4200 14.1234 -0.2027
42.4400 14.1301 -0.1849
42.4600 14.1368 -0.2074
42.4800 14.1434 -0.2038
42.5000 14.1500 -0.1851
42.5200 14.1566 -0.2072
42.5400 14.1633 -0.2041
42.5600 14.1700 -0.1902
42.5800 14.1767 -0.2126
42.6000 14.1834 -0.2046
42.6200 14.1900 -0.1947
42.6400 14.1967 -0.2131
42.6600 14.2034 -0.1990
42.6800 14.2100 -0.2013
42.7000 14.2166 -0.2084
42.7200 14.2232 -0.2054
42.7400 14.2299 -0.1994
42.7600 14.2367 -0.2081
42.7800 14.2434 -0.2114
42.8000 14.2500 -0.2058
42.8200 14.2567 -0.2078
42.8400 14.2634 -0.2124
42.8600 14.2699 -0.2077
42.8800 14.2765 -0.2036
42.9000 14.2832 -0.2133
42.9200 14.2899 -0.2109
42.9400 14.2967 -0.1993
42.9600 14.3034 -0.2220
42.9800 14.3100 -0.2128
43.0000 14.3167 -0.2023
43.0200 14.3233 -0.2240
43.0400 14.3300 -0.2057
43.0600 14.3366 -0.2056
43.0800 14.3433 -0.2223
43.1000 14.3500 -0.2094
43.1200 14.3567 -0.2079
43.1400 14.3634 -0.2262
43.1600 14.3701 -0.2062
43.1800 14.3767 -0.2133
43.2000 14.3834 -0.2306
43.2200 14.3900 -0.2065
43.2400 14.3966 -0.2092
43.2600 14.4033 -0.2306
43.2800 14.4100 -0.2058
43.3000 14.4167 -0.2158
43.3200 14.4234 -0.2282
43.3400 14.4301 -0.2113
43.3600 14.4368 -0.2150
43.3800 14.4434 -0.2308
43.4000 14.4500 -0.2120
43.4200 14.4566 -0.2150
43.4400 14.4633 -0.2281
43.4600 14.4700 -0.2139
43.4800 14.4767 -0.2177
43.5000 14.4833 -0.2335
43.5200 14.4900 -0.2144
43.5400 14.4967 -0.2161
43.5600 14.5033 -0.2375
43.5800 14.5099 -0.2184
43.6000 14.5166 -0.2166
43.6200 14.5232 -0.2322
43.6400 14.5299 -0.2219
43.6600 14.5366 -0.2196
43.6800 14.5433 -0.2327
43.7000 14.5499 -0.2163
43.7200 14.5566 -0.2234
43.7400 14.5633 -0.2350
43.7600 14.5700 -0.2209
43.7800 14.5767 -0.2249
43.8000 14.5833 -0.2296
43.8200 14.5900 -0.2147
43.8400 14.5967 -0.2268
43.8600 14.6034 -0.2360
43.8800 14.6100 -0.2276
43.9000 14.6167 -0.2227
43.9200 14.6234 -0.2344
43.9400 14.6300 -0.2277
43.9600 14.6366 -0.2293
43.9800 14.6433 -0.2321
44.0000 14.6500 -0.2293
44.0200 14.6567 -0.2298
44.0400 14.6634 -0.2329
44.0600 14.6700 -0.2360
44.0800 14.6767 -0.2277
44.1000 14.6834 -0.2381
44.1200 14.6900 -0.2337
44.1400 14.6966 -0.2292
44.1600 14.7033 -0.2317
44.1800 14.7099 -0.2411
44.2000 14.7166 -0.2315
44.2200 14.7233 -0.2375
44.2400 14.7300 -0.2335
44.2600 14.7367 -0.2338
44.2800 14.7434 -0.2369
44.3000 14.7500 -0.2401
44.3200 14.7566 -0.2349
44.3400 14.7632 -0.2413
44.3600 14.7699 -0.2408
44.3800 14.7766 -0.2341
44.4000 14.7833 -0.2414
44.4200 14.7900 -0.2461
44.4400 14.7967 -0.2351
44.4600 14.8033 -0.2414
44.4800 14.8099 -0.2455
44.5000 14.8165 -0.2345
44.5200 14.8232 -0.2405
44.5400 14.8299 -0.2511
44.5600 14.8367 -0.2392
44.5800 14.8434 -0.2392
44.6000 14.8501 -0.2576
44.6200 14.8568 -0.2382
44.6400 14.8634 -0.2438
44.6600 14.8701 -0.2553
44.6800 14.8767 -0.2351
44.7000 14.8833 -0.2416
44.7200 14.8900 -0.2635
44.7400 14.8967 -0.2402
44.7600 14.9034 -0.2436
44.7800 14.9101 -0.2582
44.8000 14.9168 -0.2471
44.8200 14.9234 -0.2435
44.8400 14.9300 -0.2641
44.8600 14.9366 -0.2451
44.8800 14.9432 -0.2441
44.9000 14.9499 -0.2587
44.9200 14.9566 -0.2496
44.9400 14.9633 -0.2479
44.9600 14.9700 -0.2593
44.9800 14.9767 -0.2540
45.0000 14.9833 -0.2480
45.0200 14.9900 -0.2611
45.0400 14.9966 -0.2533
45.0600 15.0033 -0.2521
45.0800 15.0100 -0.2632
45.1000 15.0167 -0.2559
45.1200 15.0233 -0.2526
45.1400 15.0300 -0.2634
45.1600 15.0367 -0.2581
45.1800 15.0434 -0.2564
45.2000 15.0500 -0.2613
45.2200 15.0566 -0.2624
45.2400 15.0633 -0.2549
45.2600 15.0700 -0.2655
45.2800 15.0767 -0.2633
45.3000 15.0833 -0.2554
45.3200 15.0900 -0.2687
45.3400 15.0967 -0.2650
45.3600 15.1034 -0.2533
45.3800 15.1101 -0.2662
45.4000 15.1167 -0.2663
45.4200 15.1233 -0.2571
45.4400 15.1300 -0.2656
45.4600 15.1367 -0.2662
45.4800 15.1434 -0.2591
45.5000 15.1501 -0.2732
45.5200 15.1567 -0.2672
45.5400 15.1634 -0.2585
45.5600 15.1700 -0.2785
45.5800 15.1766 -0.2625
45.6000 15.1832 -0.2580
45.6200 15.1899 -0.2813
45.6400 15.1967 -0.2642
45.6600 15.2034 -0.2533
45.6800 15.2100 -0.2839
45.7000 15.2167 -0.2653
45.7200 15.2234 -0.2625
45.7400 15.2300 -0.2838
45.7600 15.2366 -0.2645
45.7800 15.2433 -0.2595
45.8000 15.2499 -0.2885
45.8200 15.2566 -0.2615
45.8400 15.2633 -0.2646
45.8600 15.2700 -0.2895
45.8800 15.2767 -0.2668
45.9000 15.2834 -0.2670
45.9200 15.2900 -0.2919
45.9400 15.2966 -0.2679
45.9600 15.3032 -0.2664
45.9800 15.3099 -0.2883
46.0000 15.3167 -0.2756
46.0200 15.3234 -0.2716
46.0400 15.3301 -0.2824
46.0600 15.3367 -0.2765
46.0800 15.3434 -0.2692
46.1000 15.3500 -0.2828
46.1200 15.3566 -0.2782
46.1400 15.3633 -0.2728
46.1600 15.3699 -0.2786
46.1800 15.3767 -0.2838
46.2000 15.3834 -0.2743
46.2200 15.3901 -0.2788
46.2400 15.3968 -0.2883
46.2600 15.4034 -0.2783
46.2800 15.4101 -0.2756
46.3000 15.4166 -0.2944
46.3200 15.4233 -0.2765
46.3400 15.4299 -0.2750
46.3600 15.4366 -0.2932
46.3800 15.4433 -0.2768
46.4000 15.4500 -0.2807
46.4200 15.4567 -0.2941
46.4400 15.4634 -0.2713
46.4600 15.4700 -0.2810
46.4800 15.4766 -0.3002
46.5000 15.4832 -0.2786
46.5200 15.4899 -0.2811
46.5400 15.4966 -0.2988
46.5600 15.5033 -0.2783
46.5800 15.5100 -0.2838
46.6000 15.5167 -0.3006
46.6200 15.5233 -0.2798
46.6400 15.5300 -0.2877
46.6600 15.5366 -0.2980
46.6800 15.5433 -0.2843
46.7000 15.5499 -0.2890
46.7200 15.5566 -0.2982
46.7400 15.5633 -0.2845
46.7600 15.5700 -0.2896
46.7800 15.5767 -0.2918
46.8000 15.5834 -0.2869
46.8200 15.5901 -0.2964
46.8400 15.5967 -0.2926
46.8600 15.6033 -0.2905
46.8800 15.6100 -0.2981
46.9000 15.6166 -0.2828
46.9200 15.6233 -0.2981
46.9400 15.6300 -0.3048
46.9600 15.6367 -0.2811
46.9800 15.6434 -0.2907
47.0000 15.6500 -0.3172
47.0200 15.6566 -0.2844
47.0400 15.6633 -0.2866
47.0600 15.6699 -0.3127
47.0800 15.6767 -0.2843
47.1000 15.6834 -0.2947
47.1200 15.6900 -0.3126
47.1400 15.6967 -0.2802
47.1600 15.7034 -0.2957
47.1800 15.7100 -0.3163
47.2000 15.7166 -0.2903
47.2200 15.7233 -0.2935
47.2400 15.7299 -0.3128
47.2600 15.7366 -0.2940
47.2800 15.7433 -0.2917
47.3000 15.7500 -0.3150
47.3200 15.7567 -0.2960
47.3400 15.7634 -0.2956
47.3600 15.7700 -0.3110
47.3800 15.7767 -0.3027
47.4000 15.7833 -0.2947
47.4200 15.7899 -0.3109
47.4400 15.7966 -0.3038
47.4600 15.8033 -0.2953
47.4800 15.8100 -0.3029
47.5000 15.8167 -0.3093
47.5200 15.8234 -0.3001
47.5400 15.8301 -0.3037
47.5600 15.8367 -0.3049
47.5800 15.8433 -0.3034
47.6000 15.8499 -0.3014
47.6200 15.8566 -0.3085
47.6400 15.8634 -0.3072
47.6600 15.8701 -0.2996
47.6800 15.8767 -0.3146
47.7000 15.8834 -0.3047
47.7200 15.8901 -0.3027
47.7400 15.8967 -0.3177
47.7600 15.9032 -0.3038
47.7800 15.9099 -0.3010
47.8000 15.9166 -0.3170
47.8200 15.9234 -0.3071
47.8400 15.9300 -0.3022
47.8600 15.9367 -0.3191
47.8800 15.9434 -0.3119
47.9000 15.9500 -0.2991
47.9200 15.9566 -0.3204
47.9400 15.9632 -0.3084
47.9600 15.9699 -0.3031
47.9800 15.9766 -0.3269
48.0000 15.9833 -0.3053
48.0200 15.9900 -0.3059
48.0400 15.9967 -0.3306
48.0600 16.0034 -0.3049
48.0800 16.0100 -0.3096
48.1000 16.0166 -0.3326
48.1200 16.0233 -0.3070
48.1400 16.0299 -0.3014
48.1600 16.0367 -0.3335
48.1800 16.0434 -0.3074
48.2000 16.0501 -0.3048
48.2200 16.0567 -0.3371
48.2400 16.0634 -0.3063
48.2600 16.0700 -0.3083
48.2800 16.0767 -0.3439
48.3000 16.0832 -0.3038
48.3200 16.0899 -0.3039
48.3400 16.0966 -0.3445
48.3600 16.1033 -0.3036
48.3800 16.1100 -0.3079
48.4000 16.1167 -0.3469
48.4200 16.1234 -0.3061
48.4400 16.1301 -0.3136
48.4600 16.1367 -0.3451
48.4800 16.1433 -0.3010
48.5000 16.1499 -0.3225
48.5200 16.1566 -0.3426
48.5400 16.1633 -0.3028
48.5600 16.1700 -0.3207
48.5800 16.1767 -0.3365
48.6000 16.1834 -0.3086
48.6200 16.1901 -0.3302
48.6400 16.1967 -0.3347
48.6600 16.2032 -0.3128
48.6800 16.2099 -0.3335
48.7000 16.2166 -0.3281
48.7200 16.2233 -0.3205
48.7400 16.2300 -0.3395
48.7600 16.2366 -0.3249
48.7800 16.2433 -0.3222
48.8000 16.2500 -0.3410
48.8200 16.2566 -0.3232
48.8400 16.2633 -0.3267
48.8600 16.2699 -0.3323
48.8800 16.2766 -0.3253
48.9000 16.2833 -0.3363
48.9200 16.2900 -0.3357
48.9400 16.2967 -0.3240
48.9600 16.3034 -0.3446
48.9800 16.3101 -0.3322
49.0000 16.3167 -0.3275
49.0200 16.3233 -0.3439
49.0400 16.3299 -0.3296
49.0600 16.3366 -0.3251
49.0800 16.3434 -0.3460
49.1000 16.3501 -0.3352
49.1200 16.3567 -0.3282
49.1400 16.3634 -0.3471
49.1600 16.3700 -0.3321
49.1800 16.3766 -0.3335
49.2000 16.3833 -0.3457
49.2200 16.3899 -0.3291
49.2400 16.3966 -0.3381
49.2600 16.4033 -0.3469
49.2800 16.4100 -0.3310
49.3000 16.4166 -0.3382
49.3200 16.4233 -0.3451
49.3400 16.4300 -0.3398
49.3600 16.4366 -0.3416
49.3800 16.4432 -0.3465
49.4000 16.4499 -0.3324
49.4200 16.4566 -0.3437
49.4400 16.4633 -0.3451
49.4600 16.4700 -0.3426
49.4800 16.4767 -0.3441
49.5000 16.4834 -0.3467
49.5200 16.4901 -0.3421
49.5400 16.4967 -0.3473
49.5600 16.5033 -0.3470
49.5800 16.5099 -0.3430
49.6000 16.5166 -0.3486
49.6200 16.5233 -0.3469
49.6400 16.5300 -0.3466
49.6600 16.5367 -0.3485
49.6800 16.5434 -0.3488
49.7000 16.5501 -0.3468
49.7200 16.5567 -0.3432
49.7400 16.5633 -0.3557
49.7600 16.5699 -0.3478
49.7800 16.5766 -0.3473
49.8000 16.5833 -0.3570
49.8200 16.5900 -0.3485
49.8400 16.5967 -0.3532
49.8600 16.6034 -0.3561
49.8800 16.6101 -0.3526
49.9000 16.6167 -0.3516
49.9200 16.6233 -0.3604
49.9400 16.6299 -0.3525
49.9600 16.6366 -0.3527
49.9800 16.6433 -0.3605
50.0000 16.6500 -0.3530
50.0200 16.6567 -0.3488
50.0400 16.6634 -0.3707
50.0600 16.6701 -0.3522
50.0800 16.6767 -0.3550
50.1000 16.6833 -0.3670
50.1200 16.6899 -0.3467
50.1400 16.6966 -0.3576
50.1600 16.7033 -0.3707
50.1800 16.7100 -0.3461
50.2000 16.7167 -0.3617
50.2200 16.7234 -0.3736
50.2400 16.7300 -0.3474
50.2600 16.7367 -0.3634
50.2800 16.7433 -0.3765
50.3000 16.7499 -0.3477
50.3200 16.7566 -0.3662
50.3400 16.7633 -0.3799
50.3600 16.7700 -0.3498
50.3800 16.7767 -0.3741
50.4000 16.7834 -0.3699
50.4200 16.7901 -0.3540
50.4400 16.7967 -0.3760
50.4600 16.8033 -0.3706
50.4800 16.8099 -0.3536
50.5000 16.8166 -0.3782
50.5200 16.8233 -0.3680
50.5400 16.8300 -0.3606
50.5600 16.8367 -0.3765
50.5800 16.8434 -0.3662
50.6000 16.8501 -0.3666
50.6200 16.8567 -0.3792
50.6400 16.8633 -0.3621
50.6600 16.8699 -0.3768
50.6800 16.8766 -0.3748
50.7000 16.8833 -0.3662
50.7200 16.8901 -0.3800
50.7400 16.8967 -0.3770
50.7600 16.9034 -0.3660
50.7800 16.9100 -0.3845
50.8000 16.9167 -0.3721
50.8200 16.9233 -0.3756
50.8400 16.9299 -0.3843
50.8600 16.9366 -0.3660
50.8800 16.9433 -0.3820
50.9000 16.9500 -0.3849
50.9200 16.9566 -0.3722
50.9400 16.9633 -0.3824
50.9600 16.9700 -0.3848
50.9800 16.9767 -0.3731
51.0000 16.9833 -0.3906
51.0200 16.9899 -0.3821
51.0400 16.9966 -0.3730
51.0600 17.0033 -0.3871
51.0800 17.0100 -0.3842
51.1000 17.0167 -0.3778
51.1200 17.0234 -0.3948
51.1400 17.0301 -0.3787
51.1600 17.0367 -0.3769
51.1800 17.0433 -0.3942
51.2000 17.0499 -0.3805
51.2200 17.0566 -0.3788
51.2400 17.0633 -0.3961
51.2600 17.0700 -0.3791
51.2800 17.0767 -0.3892
51.3000 17.0834 -0.3914
51.3200 17.0900 -0.3773
51.3400 17.0967 -0.3916
51.3600 17.1033 -0.3949
51.3800 17.1099 -0.3755
51.4000 17.1166 -0.3900
51.4200 17.1233 -0.3985
51.4400 17.1300 -0.3827
51.4600 17.1367 -0.3917
51.4800 17.1434 -0.3904
51.5000 17.1500 -0.3904
51.5200 17.1567 -0.3955
51.5400 17.1633 -0.3941
51.5600 17.1699 -0.3882
51.5800 17.1765 -0.3966
51.6000 17.1833 -0.3911
51.6200 17.1900 -0.3938
51.6400 17.1967 -0.3981
51.6600 17.2034 -0.3991
51.6800 17.2101 -0.3908
51.7000 17.2167 -0.3998
51.7200 17.2233 -0.4045
51.7400 17.2299 -0.3945
51.7600 17.2366 -0.3940
51.7800 17.2433 -0.4077
51.8000 17.2500 -0.3964
51.8200 17.2567 -0.3934
51.8400 17.2634 -0.4153
51.8600 17.2701 -0.3956
51.8800 17.2767 -0.4015
51.9000 17.2833 -0.4125
51.9200 17.2900 -0.3966
51.9400 17.2966 -0.4002
51.9600 17.3033 -0.4169
51.9800 17.3100 -0.4030
52.0000 17.3167 -0.4024
52.0200 17.3234 -0.4106
52.0400 17.3301 -0.4060
52.0600 17.3367 -0.4046
52.0800 17.3433 -0.4140
52.1000 17.3499 -0.4070
52.1200 17.3566 -0.4114
52.1400 17.3633 -0.4156
52.1600 17.3700 -0.4011
52.1800 17.3767 -0.4102
52.2000 17.3834 -0.4225
52.2200 17.3900 -0.4063
52.2400 17.3967 -0.4116
52.2600 17.4033 -0.4221
52.2800 17.4099 -0.4062
52.3000 17.4166 -0.4133
52.3200 17.4233 -0.4236
52.3400 17.4300 -0.4143
52.3600 17.4366 -0.4181
52.3800 17.4433 -0.4177
52.4000 17.4500 -0.4134
52.4200 17.4567 -0.4241
52.4400 17.4633 -0.4241
52.4600 17.4699 -0.4157
52.4800 17.4766 -0.4186
52.5000 17.4833 -0.4262
52.5200 17.4900 -0.4219
52.5400 17.4967 -0.4228
52.5600 17.5034 -0.4224
52.5800 17.5101 -0.4240
52.6000 17.5168 -0.4193
52.6200 17.5234 -0.4265
52.6400 17.5300 -0.4255
52.6600 17.5366 -0.4213
52.6800 17.5433 -0.4220
52.7000 17.5500 -0.4284
52.7200 17.5567 -0.4245
52.7400 17.5634 -0.4275
52.7600 17.5701 -0.4276
52.7800 17.5767 -0.4256
52.8000 17.5833 -0.4300
52.8200 17.5899 -0.4313
52.8400 17.5966 -0.4252
52.8600 17.6033 -0.4285
52.8800 17.6100 -0.4338
52.9000 17.6167 -0.4267
52.9200 17.6233 -0.4340
52.9400 17.6300 -0.4334
52.9600 17.6367 -0.4289
52.9800 17.6433 -0.4342
53.0000 17.6499 -0.4364
53.0200 17.6566 -0.4223
53.0400 17.6633 -0.4367
53.0600 17.6700 -0.4341
53.0800 17.6767 -0.4315
53.1000 17.6833 -0.4399
53.1200 17.6900 -0.4390
53.1400 17.6966 -0.4275
53.1600 17.7033 -0.4377
53.1800 17.7099 -0.4384
53.2000 17.7166 -0.4345
53.2200 17.7233 -0.4392
53.2400 17.7300 -0.4417
53.2600 17.7367 -0.4322
53.2800 17.7434 -0.4418
53.3000 17.7501 -0.4445
53.3200 17.7567 -0.4338
53.3400 17.7633 -0.4409
53.3600 17.7699 -0.4418
53.3800 17.7766 -0.4413
53.4000 17.7833 -0.4427
53.4200 17.7901 -0.4439
53.4400 17.7968 -0.4406
53.4600 17.8034 -0.4474
53.4800 17.8101 -0.4412
53.5000 17.8167 -0.4440
53.5200 17.8233 -0.4488
53.5400 17.8300 -0.4420
53.5600 17.8366 -0.4438
53.5800 17.8433 -0.4502
53.6000 17.8500 -0.4429
53.6200 17.8566 -0.4494
53.6400 17.8633 -0.4479
53.6600 17.8700 -0.4499
53.6800 17.8767 -0.4478
53.7000 17.8833 -0.4545
53.7200 17.8899 -0.4486
53.7400 17.8965 -0.4483
53.7600 17.9032 -0.4569
53.7800 17.9100 -0.4496
53.8000 17.9167 -0.4488
53.8200 17.9233 -0.4636
53.8400 17.9300 -0.4466
53.8600 17.9367 -0.4513
53.8800 17.9433 -0.4647
53.9000 17.9499 -0.4490
53.9200 17.9566 -0.4492
53.9400 17.9633 -0.4611
53.9600 17.9700 -0.4508
53.9800 17.9767 -0.4555
54.0000 17.9834 -0.4660
54.0200 17.9901 -0.4479
54.0400 17.9967 -0.4591
54.0600 18.0033 -0.4702
54.0800 18.0099 -0.4529
54.1000 18.0166 -0.4585
54.1200 18.0233 -0.4659
54.1400 18.0300 -0.4484
54.1600 18.0367 -0.4675
54.1800 18.0434 -0.4688
54.2000 18.0501 -0.4525
54.2200 18.0567 -0.4676
54.2400 18.0634 -0.4681
54.2600 18.0700 -0.4555
54.2800 18.0766 -0.4725
54.3000 18.0833 -0.4635
54.3200 18.0900 -0.4558
54.3400 18.0967 -0.4721
54.3600 18.1034 -0.4684
54.3800 18.1100 -0.4598
54.4000 18.1167 -0.4695
54.4200 18.1233 -0.4691
54.4400 18.1299 -0.4611
54.4600 18.1366 -0.4728
54.4800 18.1432 -0.4693
54.5000 18.1500 -0.4685
54.5200 18.1566 -0.4727
54.5400 18.1633 -0.4702
54.5600 18.1700 -0.4694
54.5800 18.1767 -0.4758
54.6000 18.1833 -0.4696
54.6200 18.1899 -0.4705
54.6400 18.1966 -0.4733
54.6600 18.2033 -0.4728
54.6800 18.2100 -0.4686
54.7000 18.2167 -0.4796
54.7200 18.2234 -0.4765
54.7400 18.2301 -0.4705
54.7600 18.2368 -0.4781
54.7800 18.2434 -0.4791
54.8000 18.2500 -0.4706
54.8200 18.2566 -0.4803
54.8400 18.2633 -0.4783
54.8600 18.2700 -0.4774
54.8800 18.2767 -0.4822
54.9000 18.2834 -0.4776
54.9200 18.2901 -0.4769
54.9400 18.2967 -0.4845
54.9600 18.3034 -0.4768
54.9800 18.3100 -0.4800
55.0000 18.3166 -0.4899
55.0200 18.3233 -0.4751
55.0400 18.3300 -0.4824
55.0600 18.3367 -0.4906
55.0800 18.3433 -0.4796
55.1000 18.3500 -0.4843
55.1200 18.3567 -0.4949
55.1400 18.3633 -0.4802
55.1600 18.3699 -0.4850
55.1800 18.3765 -0.4930
55.2000 18.3832 -0.4845
55.2200 18.3899 -0.4884
55.2400 18.3966 -0.4958
55.2600 18.4033 -0.4831
55.2800 18.4100 -0.4918
55.3000 18.4167 -0.4923
55.3200 18.4233 -0.4906
55.3400 18.4299 -0.4924
55.3600 18.4366 -0.4926
55.3800 18.4433 -0.4918
55.4000 18.4500 -0.4973
55.4200 18.4567 -0.4969
55.4400 18.4634 -0.4939
55.4600 18.4701 -0.4964
55.4800 18.4767 -0.4969
55.5000 18.4834 -0.5001
55.5200 18.4900 -0.4945
55.5400 18.4967 -0.4968
55.5600 18.5033 -0.5016
55.5800 18.5100 -0.5011
55.6000 18.5167 -0.5010
55.6200 18.5234 -0.5037
55.6400 18.5300 -0.4974
55.6600 18.5367 -0.5039
55.6800 18.5434 -0.5014
55.7000 18.5500 -0.5032
55.7200 18.5566 -0.5048
55.7400 18.5633 -0.5076
55.7600 18.5700 -0.5029
55.7800 18.5767 -0.5068
55.8000 18.5833 -0.5045
55.8200 18.5900 -0.5069
55.8400 18.5967 -0.5114
55.8600 18.6034 -0.5088
55.8800 18.6100 -0.5061
55.9000 18.6166 -0.5128
55.9200 18.6232 -0.5103
55.9400 18.6299 -0.5095
55.9600 18.6366 -0.5150
55.9800 18.6433 -0.5158
56.0000 18.6500 -0.5092
56.0200 18.6567 -0.5160
56.0400 18.6634 -0.5191
56.0600 18.6700 -0.5089
56.0800 18.6766 -0.5192
56.1000 18.6833 -0.5186
56.1200 18.6900 -0.5092
56.1400 18.6967 -0.5165
56.1600 18.7034 -0.5246
56.1800 18.7101 -0.5097
56.2000 18.7168 -0.5284
56.2200 18.7234 -0.5240
56.2400 18.7300 -0.5121
56.2600 18.7366 -0.5226
56.2800 18.7433 -0.5228
56.3000 18.7500 -0.5144
56.3200 18.7567 -0.5302
56.3400 18.7634 -0.5228
56.3600 18.7701 -0.5193
56.3800 18.7767 -0.5271
56.4000 18.7834 -0.5278
56.4200 18.7900 -0.5196
56.4400 18.7966 -0.5285
56.4600 18.8033 -0.5279
56.4800 18.8100 -0.5202
56.5000 18.8167 -0.5332
56.5200 18.8233 -0.5286
56.5400 18.8300 -0.5254
56.5600 18.8367 -0.5304
56.5800 18.8434 -0.5341
56.6000 18.8500 -0.5328
56.6200 18.8565 -0.5302
56.6400 18.8632 -0.5351
56.6600 18.8699 -0.5309
56.6800 18.8766 -0.5289
56.7000 18.8833 -0.5408
56.7200 18.8900 -0.5311
56.7400 18.8967 -0.5298
56.7600 18.9034 -0.5400
56.7800 18.9100 -0.5374
56.8000 18.9166 -0.5282
56.8200 18.9233 -0.5436
56.8400 18.9300 -0.5368
56.8600 18.9367 -0.5326
56.8800 18.9434 -0.5475
56.9000 18.9501 -0.5369
56.9200 18.9567 -0.5345
56.9400 18.9634 -0.5502
56.9600 18.9700 -0.5361
56.9800 18.9766 -0.5365
57.0000 18.9833 -0.5477
57.0200 18.9900 -0.5379
57.0400 18.9967 -0.5368
57.0600 19.0034 -0.5514
57.0800 19.0100 -0.5400
57.1000 19.0167 -0.5403
57.1200 19.0234 -0.5583
57.1400 19.0300 -0.5385
57.1600 19.0366 -0.5436
57.1800 19.0432 -0.5523
57.2000 19.0499 -0.5413
57.2200 19.0567 -0.5467
57.2400 19.0633 -0.5566
57.2600 19.0700 -0.5444
57.2800 19.0767 -0.5430
57.3000 19.0834 -0.5564
57.3200 19.0900 -0.5519
57.3400 19.0966 -0.5461
57.3600 19.1032 -0.5612
57.3800 19.1099 -0.5488
57.4000 19.1166 -0.5530
57.4200 19.1233 -0.5604
57.4400 19.1300 -0.5519
57.4600 19.1367 -0.5540
57.4800 19.1433 -0.5627
57.5000 19.1500 -0.5582
57.5200 19.1566 -0.5479
57.5400 19.1633 -0.5696
57.5600 19.1700 -0.5625
57.5800 19.1767 -0.5482
57.6000 19.1834 -0.5718
57.6200 19.1900 -0.5614
57.6400 19.1967 -0.5529
57.6600 19.2034 -0.5789
57.6800 19.2100 -0.5573
57.7000 19.2167 -0.5599
57.7200 19.2233 -0.5744
57.7400 19.2300 -0.5610
57.7600 19.2367 -0.5613
57.7800 19.2434 -0.5861
57.8000 19.2501 -0.5614
57.8200 19.2568 -0.5601
57.8400 19.2634 -0.5883
57.8600 19.2700 -0.5643
57.8800 19.2766 -0.5639
57.9000 19.2832 -0.5853
57.9200 19.2899 -0.5629
57.9400 19.2966 -0.5744
57.9600 19.3033 -0.5897
57.9800 19.3100 -0.5648
58.0000 19.3167 -0.5743
58.0200 19.3233 -0.5901
58.0400 19.3300 -0.5681
58.0600 19.3366 -0.5783
58.0800 19.3432 -0.5895
58.1000 19.3499 -0.5683
58.1200 19.3566 -0.5866
58.1400 19.3633 -0.5868
58.1600 19.3700 -0.5723
58.1800 19.3767 -0.5928
58.2000 19.3833 -0.5860
58.2200 19.3900 -0.5739
58.2400 19.3966 -0.5947
58.2600 19.4033 -0.5832
58.2800 19.4100 -0.5803
58.3000 19.4167 -0.5955
58.3200 19.4233 -0.5883
58.3400 19.4300 -0.5809
58.3600 19.4367 -0.5982
58.3800 19.4434 -0.5849
58.4000 19.4500 -0.5909
58.4200 19.4566 -0.5954
58.4400 19.4632 -0.5875
58.4600 19.4699 -0.5983
58.4800 19.4767 -0.5964
58.5000 19.4834 -0.5911
58.5200 19.4901 -0.6003
58.5400 19.4967 -0.5940
58.5600 19.5034 -0.5938
58.5800 19.5100 -0.6036
58.6000 19.5166 -0.5948
58.6200 19.5233 -0.5945
58.6400 19.5300 -0.6067
58.6600 19.5367 -0.5974
58.6800 19.5433 -0.5934
58.7000 19.5500 -0.6122
58.7200 19.5567 -0.5978
58.7400 19.5634 -0.6040
58.7600 19.5700 -0.6114
58.7800 19.5766 -0.6003
58.8000 19.5832 -0.6038
58.8200 19.5899 -0.6138
58.8400 19.5966 -0.6030
58.8600 19.6033 -0.6071
58.8800 19.6100 -0.6178
58.9000 19.6167 -0.6107
58.9200 19.6233 -0.6138
58.9400 19.6300 -0.6200
58.9600 19.6366 -0.6085
58.9800 19.6433 -0.6189
59.0000 19.6499 -0.6152
59.0200 19.6567 -0.6150
59.0400 19.6634 -0.6249
59.0600 19.6700 -0.6166
59.0800 19.6767 -0.6226
59.1000 19.6834 -0.6256
59.1200 19.6900 -0.6234
59.1400 19.6967 -0.6204
59.1600 19.7033 -0.6249
59.1800 19.7100 -0.6295
59.2000 19.7167 -0.6226
59.2200 19.7234 -0.6251
59.2400 19.7300 -0.6303
59.2600 19.7367 -0.6268
59.2800 19.7434 -0.6333
59.3000 19.7500 -0.6388
59.3010 19.7503 -0.6404
