Raw Data
Time Displacement Force
(s) (mm) (N)
0.0000 0.0001 -0.4351
0.0200 0.0001 -0.4354
0.0400 0.0008 -0.3829
0.0600 0.0040 -0.3291
0.0800 0.0096 -0.3835
0.1000 0.0154 -0.3740
0.1200 0.0212 -0.3175
0.1400 0.0279 -0.3160
0.1600 0.0352 -0.2951
0.1800 0.0426 -0.2403
0.2000 0.0497 -0.2354
0.2200 0.0566 -0.1907
0.2400 0.0633 -0.1385
0.2600 0.0700 -0.1318
0.2800 0.0766 -0.0910
0.3000 0.0833 -0.0324
0.3200 0.0901 -0.0243
0.3400 0.0968 0.0173
0.3600 0.1035 0.0713
0.3800 0.1101 0.0795
0.4000 0.1168 0.1156
0.4200 0.1234 0.1536
0.4400 0.1301 0.1703
0.4600 0.1368 0.2085
0.4800 0.1435 0.2378
0.5000 0.1502 0.2475
0.5200 0.1569 0.2691
0.5400 0.1635 0.2933
0.5600 0.1701 0.2972
0.5800 0.1767 0.3183
0.6000 0.1834 0.3456
0.6200 0.1901 0.3365
0.6400 0.1968 0.3470
0.6600 0.2035 0.3559
0.6800 0.2102 0.3788
0.7000 0.2169 0.4254
0.7200 0.2235 0.4737
0.7400 0.2301 0.5093
0.7600 0.2367 0.5566
0.7800 0.2434 0.6024
0.8000 0.2501 0.6305
0.8200 0.2568 0.6708
0.8400 0.2635 0.7143
0.8600 0.2701 0.7320
0.8800 0.2768 0.7387
0.9000 0.2835 0.7522
0.9200 0.2901 0.7435
0.9400 0.2967 0.7396
0.9600 0.3033 0.7544
0.9800 0.3101 0.7461
1.0000 0.3168 0.7440
1.0200 0.3234 0.7628
1.0400 0.3301 0.7451
1.0600 0.3368 0.7466
1.0800 0.3434 0.7666
1.1000 0.3500 0.7541
1.1200 0.3567 0.7523
1.1400 0.3634 0.7701
1.1600 0.3701 0.7490
1.1800 0.3769 0.7556
1.2000 0.3835 0.7676
1.2200 0.3902 0.7552
1.2400 0.3969 0.7564
1.2600 0.4035 0.7738
1.2800 0.4101 0.7538
1.3000 0.4168 0.7579
1.3200 0.4234 0.7732
1.3400 0.4301 0.7572
1.3600 0.4368 0.7552
1.3800 0.4435 0.7690
1.4000 0.4502 0.7561
1.4200 0.4568 0.7572
1.4400 0.4634 0.7676
1.4600 0.4700 0.7576
1.4800 0.4766 0.7540
1.5000 0.4833 0.7670
1.5200 0.4901 0.7535
1.5400 0.4968 0.7466
1.5600 0.5035 0.7674
1.5800 0.5102 0.7449
1.6000 0.5168 0.7445
1.6200 0.5235 0.7600
1.6400 0.5301 0.7470
1.6600 0.5367 0.7424
1.6800 0.5434 0.7583
1.7000 0.5501 0.7383
1.7200 0.5568 0.7383
1.7400 0.5635 0.7533
1.7600 0.5701 0.7394
1.7800 0.5768 0.7341
1.8000 0.5835 0.7451
1.8200 0.5901 0.7338
1.8400 0.5968 0.7303
1.8600 0.6034 0.7410
1.8800 0.6101 0.7306
1.9000 0.6168 0.7226
1.9200 0.6235 0.7351
1.9400 0.6302 0.7278
1.9600 0.6369 0.7212
1.9800 0.6435 0.7290
2.0000 0.6501 0.7239
2.0200 0.6567 0.7221
2.0400 0.6634 0.7250
2.0600 0.6701 0.7194
2.0800 0.6769 0.7137
2.1000 0.6835 0.7217
2.1200 0.6902 0.7183
2.1400 0.6968 0.7096
2.1600 0.7035 0.7177
2.1800 0.7101 0.7170
2.2000 0.7167 0.7046
2.2200 0.7234 0.7160
2.2400 0.7301 0.7133
2.2600 0.7368 0.7064
2.2800 0.7435 0.7107
2.3000 0.7501 0.7121
2.3200 0.7568 0.6976
2.3400 0.7635 0.7099
2.3600 0.7701 0.7101
2.3800 0.7767 0.6979
2.4000 0.7834 0.7060
2.4200 0.7901 0.7054
2.4400 0.7968 0.6975
2.4600 0.8035 0.7024
2.4800 0.8101 0.7050
2.5000 0.8168 0.6962
2.5200 0.8235 0.6982
2.5400 0.8301 0.7028
2.5600 0.8367 0.6929
2.5800 0.8434 0.7001
2.6000 0.8501 0.6998
2.6200 0.8568 0.6916
2.6400 0.8635 0.6994
2.6600 0.8702 0.6885
2.6800 0.8769 0.6948
2.7000 0.8835 0.6951
2.7200 0.8901 0.6923
2.7400 0.8967 0.6930
2.7600 0.9034 0.6885
2.7800 0.9101 0.6864
2.8000 0.9168 0.6933
2.8200 0.9235 0.6807
2.8400 0.9302 0.6886
2.8600 0.9369 0.6895
2.8800 0.9435 0.6769
2.9000 0.9501 0.6894
2.9200 0.9567 0.6878
2.9400 0.9634 0.6750
2.9600 0.9701 0.6911
2.9800 0.9768 0.6810
3.0000 0.9835 0.6670
3.0200 0.9902 0.6933
3.0400 0.9968 0.6767
3.0600 1.0035 0.6644
3.0800 1.0101 0.6907
3.1000 1.0167 0.6732
3.1200 1.0233 0.6711
3.1400 1.0300 0.6976
3.1600 1.0368 0.6639
3.1800 1.0435 0.6698
3.2000 1.0501 0.6932
3.2200 1.0568 0.6632
3.2400 1.0635 0.6662
3.2600 1.0701 0.6901
3.2800 1.0767 0.6614
3.3000 1.0834 0.6710
3.3200 1.0901 0.6834
3.3400 1.0968 0.6678
3.3600 1.1035 0.6693
3.3800 1.1102 0.6818
3.4000 1.1169 0.6609
3.4200 1.1236 0.6679
3.4400 1.1302 0.6783
3.4600 1.1368 0.6626
3.4800 1.1434 0.6664
3.5000 1.1501 0.6737
3.5200 1.1568 0.6660
3.5400 1.1635 0.6606
3.5600 1.1702 0.6765
3.5800 1.1769 0.6667
3.6000 1.1835 0.6547
3.6200 1.1901 0.6670
3.6400 1.1967 0.6682
3.6600 1.2034 0.6591
3.6800 1.2101 0.6692
3.7000 1.2168 0.6617
3.7200 1.2235 0.6516
3.7400 1.2302 0.6650
3.7600 1.2368 0.6642
3.7800 1.2435 0.6453
3.8000 1.2501 0.6677
3.8200 1.2567 0.6583
3.8400 1.2634 0.6470
3.8600 1.2701 0.6649
3.8800 1.2768 0.6535
3.9000 1.2835 0.6402
3.9200 1.2901 0.6660
3.9400 1.2968 0.6521
3.9600 1.3035 0.6378
3.9800 1.3101 0.6634
4.0000 1.3167 0.6490
4.0200 1.3234 0.6374
4.0400 1.3301 0.6624
4.0600 1.3368 0.6415
4.0800 1.3435 0.6387
4.1000 1.3502 0.6602
4.1200 1.3569 0.6329
4.1400 1.3635 0.6356
4.1600 1.3701 0.6562
4.1800 1.3767 0.6345
4.2000 1.3834 0.6311
4.2200 1.3901 0.6573
4.2400 1.3968 0.6290
4.2600 1.4035 0.6336
4.2800 1.4102 0.6525
4.3000 1.4169 0.6309
4.3200 1.4235 0.6297
4.3400 1.4301 0.6527
4.3600 1.4367 0.6249
4.3800 1.4434 0.6326
4.4000 1.4501 0.6476
4.4200 1.4568 0.6263
4.4400 1.4635 0.6300
4.4600 1.4701 0.6449
4.4800 1.4768 0.6260
4.5000 1.4835 0.6259
4.5200 1.4901 0.6439
4.5400 1.4967 0.6217
4.5600 1.5034 0.6309
4.5800 1.5101 0.6410
4.6000 1.5168 0.6190
4.6200 1.5235 0.6278
4.6400 1.5302 0.6367
4.6600 1.5368 0.6190
4.6800 1.5435 0.6256
4.7000 1.5501 0.6321
4.7200 1.5567 0.6208
4.7400 1.5634 0.6250
4.7600 1.5701 0.6311
4.7800 1.5768 0.6129
4.8000 1.5835 0.6248
4.8200 1.5902 0.6251
4.8400 1.5969 0.6159
4.8600 1.6035 0.6189
4.8800 1.6102 0.6212
4.9000 1.6168 0.6143
4.9200 1.6234 0.6163
4.9400 1.6301 0.6213
4.9600 1.6368 0.6149
4.9800 1.6435 0.6129
5.0000 1.6502 0.6216
5.0200 1.6569 0.6183
5.0400 1.6635 0.6079
5.0600 1.6702 0.6116
5.0800 1.6768 0.6134
5.1000 1.6834 0.6092
5.1200 1.6900 0.6129
5.1400 1.6968 0.6117
5.1600 1.7035 0.6084
5.1800 1.7102 0.6153
5.2000 1.7169 0.6033
5.2200 1.7235 0.6050
5.2400 1.7302 0.6076
5.2600 1.7367 0.6050
5.2800 1.7433 0.6047
5.3000 1.7500 0.6128
5.3200 1.7568 0.6026
5.3400 1.7635 0.5962
5.3600 1.7701 0.6081
5.3800 1.7768 0.6051
5.4000 1.7835 0.5979
5.4200 1.7901 0.6041
5.4400 1.7967 0.6004
5.4600 1.8034 0.6010
5.4800 1.8101 0.6021
5.5000 1.8168 0.6003
5.5200 1.8235 0.5965
5.5400 1.8302 0.6011
5.5600 1.8369 0.6004
5.5800 1.8436 0.5992
5.6000 1.8502 0.6001
5.6200 1.8568 0.5963
5.6400 1.8634 0.5968
5.6600 1.8701 0.5972
5.6800 1.8768 0.6028
5.7000 1.8835 0.5939
5.7200 1.8902 0.5992
5.7400 1.8969 0.6017
5.7600 1.9035 0.5914
5.7800 1.9101 0.5927
5.8000 1.9167 0.6053
5.8200 1.9234 0.5909
5.8400 1.9301 0.5934
5.8600 1.9368 0.6002
5.8800 1.9435 0.5919
5.9000 1.9501 0.5926
5.9200 1.9568 0.5987
5.9400 1.9635 0.5891
5.9600 1.9701 0.5936
5.9800 1.9767 0.5984
6.0000 1.9834 0.5858
6.0200 1.9900 0.5945
6.0400 1.9968 0.5949
6.0600 2.0035 0.5859
6.0800 2.0102 0.5932
6.1000 2.0168 0.5948
6.1200 2.0235 0.5838
6.1400 2.0302 0.5872
6.1600 2.0368 0.5859
6.1800 2.0434 0.5873
6.2000 2.0501 0.5839
6.2200 2.0568 0.5843
6.2400 2.0635 0.5830
6.2600 2.0702 0.5836
6.2800 2.0769 0.5857
6.3000 2.0835 0.5879
6.3200 2.0902 0.5790
6.3400 2.0968 0.5843
6.3600 2.1034 0.5832
6.3800 2.1101 0.5805
6.4000 2.1168 0.5806
6.4200 2.1235 0.5772
6.4400 2.1301 0.5772
6.4600 2.1368 0.5807
6.4800 2.1435 0.5743
6.5000 2.1502 0.5725
6.5200 2.1568 0.5786
6.5400 2.1634 0.5777
6.5600 2.1701 0.5724
6.5800 2.1768 0.5726
6.6000 2.1835 0.5744
6.6200 2.1901 0.5681
6.6400 2.1968 0.5721
6.6600 2.2035 0.5729
6.6800 2.2102 0.5660
6.7000 2.2168 0.5669
6.7200 2.2234 0.5764
6.7400 2.2300 0.5598
6.7600 2.2367 0.5698
6.7800 2.2435 0.5717
6.8000 2.2502 0.5578
6.8200 2.2568 0.5669
6.8400 2.2635 0.5721
6.8600 2.2701 0.5549
6.8800 2.2768 0.5682
6.9000 2.2834 0.5655
6.9200 2.2901 0.5560
6.9400 2.2968 0.5645
6.9600 2.3035 0.5610
6.9800 2.3102 0.5533
7.0000 2.3168 0.5687
7.0200 2.3235 0.5579
7.0400 2.3302 0.5514
7.0600 2.3368 0.5652
7.0800 2.3434 0.5561
7.1000 2.3501 0.5556
7.1200 2.3568 0.5602
7.1400 2.3635 0.5551
7.1600 2.3702 0.5506
7.1800 2.3769 0.5590
7.2000 2.3836 0.5565
7.2200 2.3902 0.5519
7.2400 2.3968 0.5537
7.2600 2.4034 0.5563
7.2800 2.4100 0.5462
7.3000 2.4168 0.5551
7.3200 2.4235 0.5566
7.3400 2.4302 0.5461
7.3600 2.4369 0.5436
7.3800 2.4435 0.5566
7.4000 2.4502 0.5461
7.4200 2.4568 0.5426
7.4400 2.4634 0.5557
7.4600 2.4700 0.5468
7.4800 2.4768 0.5398
7.5000 2.4835 0.5518
7.5200 2.4901 0.5466
7.5400 2.4968 0.5370
7.5600 2.5035 0.5530
7.5800 2.5101 0.5406
7.6000 2.5168 0.5369
7.6200 2.5234 0.5560
7.6400 2.5301 0.5407
7.6600 2.5368 0.5329
7.6800 2.5435 0.5502
7.7000 2.5502 0.5379
7.7200 2.5569 0.5362
7.7400 2.5636 0.5449
7.7600 2.5702 0.5371
7.7800 2.5768 0.5310
7.8000 2.5834 0.5511
7.8200 2.5901 0.5307
7.8400 2.5968 0.5289
7.8600 2.6035 0.5505
7.8800 2.6102 0.5280
7.9000 2.6169 0.5252
7.9200 2.6235 0.5492
7.9400 2.6302 0.5289
7.9600 2.6368 0.5319
7.9800 2.6434 0.5443
8.0000 2.6501 0.5309
8.0200 2.6568 0.5265
8.0400 2.6635 0.5426
8.0600 2.6701 0.5255
8.0800 2.6768 0.5279
8.1000 2.6835 0.5455
8.1200 2.6902 0.5211
8.1400 2.6968 0.5244
8.1600 2.7034 0.5447
8.1800 2.7100 0.5214
8.2000 2.7167 0.5227
8.2200 2.7235 0.5396
8.2400 2.7302 0.5160
8.2600 2.7369 0.5235
8.2800 2.7435 0.5431
8.3000 2.7502 0.5102
8.3200 2.7568 0.5193
8.3400 2.7634 0.5458
8.3600 2.7700 0.5092
8.3800 2.7767 0.5205
8.4000 2.7835 0.5405
8.4200 2.7902 0.5097
8.4400 2.7968 0.5154
8.4600 2.8035 0.5411
8.4800 2.8102 0.5067
8.5000 2.8168 0.5190
8.5200 2.8234 0.5397
8.5400 2.8301 0.5038
8.5600 2.8368 0.5196
8.5800 2.8435 0.5402
8.6000 2.8502 0.4965
8.6200 2.8569 0.5185
8.6400 2.8635 0.5393
8.6600 2.8702 0.4984
8.6800 2.8768 0.5139
8.7000 2.8834 0.5385
8.7200 2.8901 0.4976
8.7400 2.8967 0.5109
8.7600 2.9035 0.5338
8.7800 2.9102 0.4986
8.8000 2.9168 0.5111
8.8200 2.9235 0.5291
8.8400 2.9302 0.4950
8.8600 2.9368 0.5119
8.8800 2.9433 0.5269
8.9000 2.9500 0.4980
8.9200 2.9567 0.5060
8.9400 2.9634 0.5225
8.9600 2.9701 0.5003
8.9800 2.9768 0.5037
9.0000 2.9835 0.5198
9.0200 2.9902 0.4952
9.0400 2.9968 0.5060
9.0600 3.0034 0.5124
9.0800 3.0101 0.4977
9.1000 3.0168 0.5066
9.1200 3.0235 0.5153
9.1400 3.0302 0.4916
9.1600 3.0369 0.5027
9.1800 3.0435 0.5112
9.2000 3.0502 0.4904
9.2200 3.0568 0.4996
9.2400 3.0634 0.5075
9.2600 3.0701 0.4927
9.2800 3.0767 0.5030
9.3000 3.0835 0.5025
9.3200 3.0902 0.4935
9.3400 3.0969 0.4969
9.3600 3.1035 0.5003
9.3800 3.1102 0.4899
9.4000 3.1168 0.4969
9.4200 3.1234 0.5003
9.4400 3.1300 0.4874
9.4600 3.1368 0.5013
9.4800 3.1435 0.4968
9.5000 3.1502 0.4853
9.5200 3.1568 0.4959
9.5400 3.1635 0.4974
9.5600 3.1702 0.4863
9.5800 3.1768 0.4958
9.6000 3.1834 0.4871
9.6200 3.1901 0.4880
9.6400 3.1967 0.4952
9.6600 3.2034 0.4854
9.6800 3.2101 0.4854
9.7000 3.2168 0.4981
9.7200 3.2235 0.4811
9.7400 3.2301 0.4857
9.7600 3.2368 0.4927
9.7800 3.2434 0.4799
9.8000 3.2500 0.4871
9.8200 3.2567 0.4777
9.8400 3.2635 0.4567
9.8600 3.2702 0.4769
9.8800 3.2769 0.4758
9.9000 3.2836 0.4624
9.9200 3.2902 0.4815
9.9400 3.2968 0.4752
9.9600 3.3034 0.4684
9.9800 3.3101 0.4778
10.0000 3.3168 0.4788
10.0200 3.3235 0.4645
10.0400 3.3302 0.4831
10.0600 3.3369 0.4733
10.0800 3.3435 0.4668
10.1000 3.3502 0.4793
10.1200 3.3568 0.4731
10.1400 3.3634 0.4639
10.1600 3.3701 0.4814
10.1800 3.3767 0.4724
10.2000 3.3834 0.4680
10.2200 3.3901 0.4800
10.2400 3.3968 0.4745
10.2600 3.4035 0.4684
10.2800 3.4102 0.4775
10.3000 3.4168 0.4733
10.3200 3.4234 0.4678
10.3400 3.4300 0.4778
10.3600 3.4367 0.4732
10.3800 3.4434 0.4647
10.4000 3.4501 0.4786
10.4200 3.4568 0.4711
10.4400 3.4635 0.4602
10.4600 3.4702 0.4761
10.4800 3.4768 0.4760
10.5000 3.4834 0.4603
10.5200 3.4901 0.4730
10.5400 3.4968 0.4738
10.5600 3.5035 0.4613
10.5800 3.5102 0.4726
10.6000 3.5168 0.4680
10.6200 3.5235 0.4617
10.6400 3.5302 0.4680
10.6600 3.5368 0.4658
10.6800 3.5435 0.4595
10.7000 3.5501 0.4786
10.7200 3.5567 0.4586
10.7400 3.5634 0.4566
10.7600 3.5702 0.4747
10.7800 3.5768 0.4592
10.8000 3.5835 0.4556
10.8200 3.5902 0.4750
10.8400 3.5969 0.4590
10.8600 3.6034 0.4546
10.8800 3.6101 0.4712
10.9000 3.6167 0.4607
10.9200 3.6235 0.4539
10.9400 3.6302 0.4675
10.9600 3.6368 0.4593
10.9800 3.6435 0.4501
11.0000 3.6502 0.4639
11.0200 3.6568 0.4547
11.0400 3.6634 0.4536
11.0600 3.6700 0.4655
11.0800 3.6767 0.4563
11.1000 3.6834 0.4518
11.1200 3.6901 0.4580
11.1400 3.6968 0.4530
11.1600 3.7034 0.4538
11.1800 3.7101 0.4549
11.2000 3.7168 0.4523
11.2200 3.7234 0.4480
11.2400 3.7301 0.4520
11.2600 3.7367 0.4520
11.2800 3.7435 0.4487
11.3000 3.7502 0.4498
11.3200 3.7569 0.4507
11.3400 3.7636 0.4434
11.3600 3.7702 0.4508
11.3800 3.7769 0.4455
11.4000 3.7835 0.4453
11.4200 3.7901 0.4476
11.4400 3.7967 0.4480
11.4600 3.8035 0.4406
11.4800 3.8102 0.4427
11.5000 3.8169 0.4478
11.5200 3.8235 0.4395
11.5400 3.8302 0.4412
11.5600 3.8368 0.4472
11.5800 3.8434 0.4401
11.6000 3.8500 0.4396
11.6200 3.8567 0.4512
11.6400 3.8634 0.4350
11.6600 3.8701 0.4414
11.6800 3.8768 0.4470
11.7000 3.8835 0.4320
11.7200 3.8902 0.4395
11.7400 3.8968 0.4491
11.7600 3.9034 0.4262
11.7800 3.9100 0.4480
11.8000 3.9167 0.4470
11.8200 3.9234 0.4278
11.8400 3.9301 0.4416
11.8600 3.9368 0.4409
11.8800 3.9435 0.4262
11.9000 3.9502 0.4415
11.9200 3.9568 0.4374
11.9400 3.9634 0.4306
11.9600 3.9700 0.4378
11.9800 3.9767 0.4365
12.0000 3.9835 0.4271
12.0200 3.9902 0.4356
12.0400 3.9969 0.4340
12.0600 4.0035 0.4308
12.0800 4.0102 0.4387
12.1000 4.0169 0.4247
12.1200 4.0235 0.4309
12.1400 4.0301 0.4397
12.1600 4.0368 0.4239
12.1800 4.0435 0.4251
12.2000 4.0502 0.4326
12.2200 4.0568 0.4225
12.2400 4.0635 0.4304
12.2600 4.0702 0.4268
12.2800 4.0769 0.4230
12.3000 4.0835 0.4222
12.3200 4.0901 0.4265
12.3400 4.0967 0.4268
12.3600 4.1034 0.4266
12.3800 4.1101 0.4235
12.4000 4.1168 0.4254
12.4200 4.1235 0.4214
12.4400 4.1302 0.4210
12.4600 4.1368 0.4246
12.4800 4.1434 0.4218
12.5000 4.1500 0.4212
12.5200 4.1567 0.4265
12.5400 4.1634 0.4142
12.5600 4.1701 0.4184
12.5800 4.1768 0.4231
12.6000 4.1835 0.4121
12.6200 4.1902 0.4216
12.6400 4.1968 0.4164
12.6600 4.2035 0.4049
12.6800 4.2101 0.4264
12.7000 4.2168 0.4203
12.7200 4.2234 0.4043
12.7400 4.2301 0.4195
12.7600 4.2368 0.4161
12.7800 4.2435 0.4069
12.8000 4.2502 0.4134
12.8200 4.2569 0.4148
12.8400 4.2635 0.4063
12.8600 4.2701 0.4186
12.8800 4.2767 0.4085
12.9000 4.2834 0.4077
12.9200 4.2902 0.4139
12.9400 4.2969 0.4098
12.9600 4.3035 0.4070
12.9800 4.3102 0.4147
13.0000 4.3169 0.4092
13.0200 4.3235 0.4043
13.0400 4.3301 0.4083
13.0600 4.3367 0.4133
13.0800 4.3435 0.4069
13.1000 4.3502 0.4023
13.1200 4.3568 0.4082
13.1400 4.3635 0.4068
13.1600 4.3702 0.3998
13.1800 4.3768 0.4075
13.2000 4.3835 0.4048
13.2200 4.3900 0.3967
13.2400 4.3967 0.4081
13.2600 4.4034 0.4032
13.2800 4.4101 0.3979
13.3000 4.4168 0.4090
13.3200 4.4235 0.4014
13.3400 4.4302 0.3919
13.3600 4.4369 0.4052
13.3800 4.4435 0.4000
13.4000 4.4501 0.3942
13.4200 4.4567 0.4082
13.4400 4.4634 0.3996
13.4600 4.4702 0.3867
13.4800 4.4769 0.4048
13.5000 4.4836 0.3990
13.5200 4.4902 0.3921
13.5400 4.4969 0.3995
13.5600 4.5035 0.3926
13.5800 4.5101 0.3877
13.6000 4.5168 0.4052
13.6200 4.5235 0.3945
13.6400 4.5302 0.3878
13.6600 4.5368 0.4011
13.6800 4.5435 0.3904
13.7000 4.5502 0.3902
13.7200 4.5568 0.3964
13.7400 4.5635 0.3870
13.7600 4.5701 0.3870
13.7800 4.5767 0.3962
13.8000 4.5834 0.3893
13.8200 4.5901 0.3860
13.8400 4.5968 0.3929
13.8600 4.6035 0.3906
13.8800 4.6102 0.3813
13.9000 4.6169 0.3903
13.9200 4.6235 0.3868
13.9400 4.6301 0.3861
13.9600 4.6367 0.3842
13.9800 4.6434 0.3891
14.0000 4.6501 0.3801
14.0200 4.6568 0.3873
14.0400 4.6634 0.3880
14.0600 4.6701 0.3784
14.0800 4.6768 0.3871
14.1000 4.6835 0.3825
14.1200 4.6901 0.3742
14.1400 4.6967 0.3934
14.1600 4.7034 0.3802
14.1800 4.7102 0.3732
14.2000 4.7168 0.3878
14.2200 4.7235 0.3739
14.2400 4.7302 0.3724
14.2600 4.7369 0.3891
14.2800 4.7435 0.3732
14.3000 4.7501 0.3690
14.3200 4.7567 0.3893
14.3400 4.7634 0.3694
14.3600 4.7701 0.3688
14.3800 4.7769 0.3850
14.4000 4.7836 0.3705
14.4200 4.7903 0.3669
14.4400 4.7969 0.3819
14.4600 4.8035 0.3645
14.4800 4.8101 0.3655
14.5000 4.8167 0.3818
14.5200 4.8234 0.3679
14.5400 4.8301 0.3616
14.5600 4.8368 0.3771
14.5800 4.8434 0.3629
14.6000 4.8501 0.3643
14.6200 4.8568 0.3760
14.6400 4.8635 0.3621
14.6600 4.8701 0.3641
14.6800 4.8767 0.3702
14.7000 4.8834 0.3591
14.7200 4.8901 0.3676
14.7400 4.8968 0.3681
14.7600 4.9034 0.3574
14.7800 4.9101 0.3644
14.8000 4.9168 0.3637
14.8200 4.9234 0.3591
14.8400 4.9301 0.3626
14.8600 4.9367 0.3644
14.8800 4.9434 0.3583
14.9000 4.9501 0.3639
14.9200 4.9568 0.3587
14.9400 4.9635 0.3644
14.9600 4.9702 0.3579
14.9800 4.9769 0.3537
15.0000 4.9835 0.3585
15.0200 4.9901 0.3642
15.0400 4.9967 0.3544
15.0600 5.0034 0.3634
15.0800 5.0101 0.3583
15.1000 5.0168 0.3500
15.1200 5.0235 0.3636
15.1400 5.0302 0.3549
15.1600 5.0369 0.3475
15.1800 5.0435 0.3577
15.2000 5.0501 0.3539
15.2200 5.0567 0.3513
15.2400 5.0634 0.3586
15.2600 5.0701 0.3545
15.2800 5.0768 0.3504
15.3000 5.0835 0.3571
15.3200 5.0902 0.3528
15.3400 5.0969 0.3507
15.3600 5.1035 0.3566
15.3800 5.1101 0.3467
15.4000 5.1167 0.3493
15.4200 5.1233 0.3558
15.4400 5.1300 0.3522
15.4600 5.1368 0.3464
15.4800 5.1434 0.3543
15.5000 5.1501 0.3430
15.5200 5.1568 0.3500
15.5400 5.1635 0.3503
15.5600 5.1701 0.3425
15.5800 5.1767 0.3487
15.6000 5.1834 0.3485
15.6200 5.1901 0.3409
15.6400 5.1968 0.3454
15.6600 5.2035 0.3482
15.6800 5.2102 0.3436
15.7000 5.2169 0.3409
15.7200 5.2236 0.3457
15.7400 5.2302 0.3357
15.7600 5.2368 0.3456
15.7800 5.2435 0.3459
15.8000 5.2502 0.3369
15.8200 5.2569 0.3408
15.8400 5.2635 0.3418
15.8600 5.2702 0.3364
15.8800 5.2769 0.3406
15.9000 5.2835 0.3411
15.9200 5.2901 0.3342
15.9400 5.2967 0.3412
15.9600 5.3034 0.3379
15.9800 5.3101 0.3411
16.0000 5.3168 0.3371
16.0200 5.3235 0.3335
16.0400 5.3302 0.3375
16.0600 5.3368 0.3360
16.0800 5.3435 0.3313
16.1000 5.3501 0.3429
16.1200 5.3567 0.3346
16.1400 5.3634 0.3277
16.1600 5.3701 0.3408
16.1800 5.3768 0.3395
16.2000 5.3835 0.3235
16.2200 5.3901 0.3382
16.2400 5.3968 0.3339
16.2600 5.4035 0.3204
16.2800 5.4101 0.3392
16.3000 5.4168 0.3366
16.3200 5.4234 0.3198
16.3400 5.4301 0.3412
16.3600 5.4368 0.3284
16.3800 5.4435 0.3163
16.4000 5.4502 0.3413
16.4200 5.4568 0.3266
16.4400 5.4635 0.3180
16.4600 5.4701 0.3409
16.4800 5.4767 0.3275
16.5000 5.4834 0.3150
16.5200 5.4901 0.3406
16.5400 5.4969 0.3179
16.5600 5.5036 0.3171
16.5800 5.5102 0.3359
16.6000 5.5169 0.3152
16.6200 5.5235 0.3177
16.6400 5.5301 0.3341
16.6600 5.5367 0.3158
16.6800 5.5434 0.3258
16.7000 5.5501 0.3298
16.7200 5.5568 0.3133
16.7400 5.5635 0.3223
16.7600 5.5701 0.3273
16.7800 5.5768 0.3143
16.8000 5.5835 0.3249
16.8200 5.5901 0.3201
16.8400 5.5967 0.3172
16.8600 5.6034 0.3189
16.8800 5.6101 0.3200
16.9000 5.6168 0.3151
16.9200 5.6235 0.3216
16.9400 5.6301 0.3204
16.9600 5.6368 0.3084
16.9800 5.6435 0.3220
17.0000 5.6501 0.3152
17.0200 5.6567 0.3148
17.0400 5.6634 0.3187
17.0600 5.6701 0.3139
17.0800 5.6769 0.3120
17.1000 5.6835 0.3210
17.1200 5.6902 0.3151
17.1400 5.6969 0.3056
17.1600 5.7035 0.3166
17.1800 5.7101 0.3157
17.2000 5.7167 0.3076
17.2200 5.7234 0.3128
17.2400 5.7301 0.3145
17.2600 5.7368 0.3095
17.2800 5.7435 0.3095
17.3000 5.7502 0.3140
17.3200 5.7569 0.3106
17.3400 5.7636 0.3112
17.3600 5.7702 0.3103
17.3800 5.7768 0.3034
17.4000 5.7834 0.3113
17.4200 5.7901 0.3146
17.4400 5.7968 0.3026
17.4600 5.8035 0.3077
17.4800 5.8102 0.3128
17.5000 5.8169 0.3043
17.5200 5.8235 0.3043
17.5400 5.8301 0.3107
17.5600 5.8367 0.3033
17.5800 5.8433 0.3019
17.6000 5.8501 0.3144
17.6200 5.8568 0.2994
17.6400 5.8635 0.3013
17.6600 5.8702 0.3095
17.6800 5.8768 0.2976
17.7000 5.8835 0.2979
17.7200 5.8901 0.3132
17.7400 5.8967 0.2979
17.7600 5.9034 0.2998
17.7800 5.9101 0.3075
17.8000 5.9168 0.2964
17.8200 5.9235 0.3020
17.8400 5.9302 0.3035
17.8600 5.9369 0.2920
17.8800 5.9436 0.3010
17.9000 5.9502 0.3027
17.9200 5.9568 0.2930
17.9400 5.9634 0.2982
17.9600 5.9701 0.3021
17.9800 5.9768 0.2878
18.0000 5.9835 0.2918
18.0200 5.9902 0.3033
18.0400 5.9968 0.2902
18.0600 6.0035 0.2934
18.0800 6.0101 0.2958
18.1000 6.0167 0.2933
18.1200 6.0234 0.2919
18.1400 6.0301 0.2990
18.1600 6.0368 0.2878
18.1800 6.0435 0.2920
18.2000 6.0502 0.2952
18.2200 6.0568 0.2866
18.2400 6.0635 0.2888
18.2600 6.0701 0.2970
18.2800 6.0767 0.2885
18.3000 6.0834 0.2857
18.3200 6.0901 0.2919
18.3400 6.0968 0.2876
18.3600 6.1035 0.2853
18.3800 6.1101 0.2959
18.4000 6.1168 0.2804
18.4200 6.1235 0.2820
18.4400 6.1302 0.2944
18.4600 6.1368 0.2820
18.4800 6.1434 0.2858
18.5000 6.1501 0.2898
18.5200 6.1568 0.2785
18.5400 6.1635 0.2808
18.5600 6.1702 0.2925
18.5800 6.1769 0.2738
18.6000 6.1835 0.2865
18.6200 6.1902 0.2853
18.6400 6.1968 0.2697
18.6600 6.2034 0.2937
18.6800 6.2101 0.2859
18.7000 6.2168 0.2659
18.7200 6.2235 0.2886
18.7400 6.2302 0.2827
18.7600 6.2369 0.2727
18.7800 6.2435 0.2832
18.8000 6.2502 0.2778
18.8200 6.2568 0.2728
18.8400 6.2634 0.2879
18.8600 6.2700 0.2742
18.8800 6.2768 0.2747
18.9000 6.2835 0.2830
18.9200 6.2902 0.2682
18.9400 6.2969 0.2735
18.9600 6.3035 0.2794
18.9800 6.3102 0.2709
19.0000 6.3168 0.2734
19.0200 6.3234 0.2795
19.0400 6.3300 0.2673
19.0600 6.3368 0.2747
19.0800 6.3435 0.2713
19.1000 6.3501 0.2668
19.1200 6.3568 0.2737
19.1400 6.3635 0.2726
19.1600 6.3701 0.2622
19.1800 6.3767 0.2681
19.2000 6.3834 0.2726
19.2200 6.3901 0.2645
19.2400 6.3968 0.2667
19.2600 6.4035 0.2702
19.2800 6.4102 0.2607
19.3000 6.4169 0.2690
19.3200 6.4235 0.2656
19.3400 6.4302 0.2660
19.3600 6.4368 0.2666
19.3800 6.4434 0.2651
19.4000 6.4501 0.2625
19.4200 6.4568 0.2643
19.4400 6.4635 0.2645
19.4600 6.4702 0.2627
19.4800 6.4769 0.2613
19.5000 6.4835 0.2627
19.5200 6.4902 0.2568
19.5400 6.4968 0.2628
19.5600 6.5034 0.2583
19.5800 6.5100 0.2625
19.6000 6.5167 0.2643
19.6200 6.5234 0.2565
19.6400 6.5301 0.2578
19.6600 6.5368 0.2630
19.6800 6.5435 0.2559
19.7000 6.5501 0.2564
19.7200 6.5567 0.2645
19.7400 6.5633 0.2543
19.7600 6.5700 0.2558
19.7800 6.5768 0.2548
19.8000 6.5835 0.2578
19.8200 6.5901 0.2550
19.8400 6.5968 0.2582
19.8600 6.6035 0.2533
19.8800 6.6101 0.2551
19.9000 6.6167 0.2533
19.9200 6.6234 0.2534
19.9400 6.6301 0.2526
19.9600 6.6368 0.2513
19.9800 6.6435 0.2513
20.0000 6.6502 0.2555
20.0200 6.6569 0.2489
20.0400 6.6636 0.2483
20.0600 6.6702 0.2514
20.0800 6.6768 0.2524
20.1000 6.6834 0.2503
20.1200 6.6901 0.2549
20.1400 6.6968 0.2399
20.1600 6.7035 0.2481
20.1800 6.7102 0.2572
20.2000 6.7169 0.2441
20.2200 6.7235 0.2505
20.2400 6.7302 0.2478
20.2600 6.7368 0.2396
20.2800 6.7434 0.2501
20.3000 6.7500 0.2558
20.3200 6.7568 0.2388
20.3400 6.7635 0.2530
20.3600 6.7701 0.2453
20.3800 6.7768 0.2386
20.4000 6.7835 0.2495
20.4200 6.7901 0.2501
20.4400 6.7968 0.2352
20.4600 6.8034 0.2494
20.4800 6.8100 0.2464
20.5000 6.8167 0.2339
20.5200 6.8235 0.2491
20.5400 6.8301 0.2465
20.5600 6.8368 0.2333
20.5800 6.8435 0.2446
20.6000 6.8502 0.2421
20.6200 6.8568 0.2357
20.6400 6.8634 0.2489
20.6600 6.8701 0.2451
20.6800 6.8768 0.2326
20.7000 6.8835 0.2413
20.7200 6.8902 0.2365
20.7400 6.8969 0.2378
20.7600 6.9036 0.2459
20.7800 6.9102 0.2304
20.8000 6.9168 0.2329
20.8200 6.9234 0.2406
20.8400 6.9301 0.2365
20.8600 6.9368 0.2389
20.8800 6.9435 0.2374
20.9000 6.9502 0.2287
20.9200 6.9568 0.2362
20.9400 6.9635 0.2374
20.9600 6.9702 0.2306
20.9800 6.9768 0.2368
21.0000 6.9834 0.2319
21.0200 6.9901 0.2222
21.0400 6.9968 0.2414
21.0600 7.0034 0.2319
21.0800 7.0101 0.2221
21.1000 7.0168 0.2420
21.1200 7.0235 0.2291
21.1400 7.0302 0.2166
21.1600 7.0368 0.2456
21.1800 7.0434 0.2242
21.2000 7.0500 0.2185
21.2200 7.0567 0.2437
21.2400 7.0634 0.2224
21.2600 7.0701 0.2145
21.2800 7.0768 0.2384
21.3000 7.0835 0.2204
21.3200 7.0901 0.2201
21.3400 7.0968 0.2410
21.3600 7.1034 0.2147
21.3800 7.1101 0.2185
21.4000 7.1168 0.2347
21.4200 7.1235 0.2144
21.4400 7.1302 0.2224
21.4600 7.1368 0.2372
21.4800 7.1435 0.2096
21.5000 7.1502 0.2202
21.5200 7.1568 0.2299
21.5400 7.1634 0.2101
21.5600 7.1701 0.2231
21.5800 7.1768 0.2284
21.6000 7.1835 0.2114
21.6200 7.1902 0.2237
21.6400 7.1969 0.2182
21.6600 7.2036 0.2093
21.6800 7.2102 0.2207
21.7000 7.2168 0.2160
21.7200 7.2234 0.2110
21.7400 7.2300 0.2220
21.7600 7.2368 0.2115
21.7800 7.2435 0.2133
21.8000 7.2502 0.2191
21.8200 7.2568 0.2122
21.8400 7.2635 0.2131
21.8600 7.2702 0.2090
21.8800 7.2768 0.2139
21.9000 7.2834 0.2190
21.9200 7.2900 0.2073
21.9400 7.2967 0.2096
21.9600 7.3034 0.2157
21.9800 7.3101 0.2055
22.0000 7.3167 0.2115
22.0200 7.3235 0.2134
22.0400 7.3302 0.2044
22.0600 7.3368 0.2076
22.0800 7.3434 0.2107
22.1000 7.3501 0.2019
22.1200 7.3568 0.2108
22.1400 7.3635 0.2016
22.1600 7.3702 0.2022
22.1800 7.3769 0.2098
22.2000 7.3835 0.2074
22.2200 7.3902 0.2004
22.2400 7.3968 0.2079
22.2600 7.4034 0.1998
22.2800 7.4101 0.2072
22.3000 7.4168 0.2083
22.3200 7.4235 0.2015
22.3400 7.4302 0.2016
22.3600 7.4369 0.2037
22.3800 7.4435 0.2043
22.4000 7.4502 0.2010
22.4200 7.4568 0.2024
22.4400 7.4634 0.2004
22.4600 7.4700 0.1949
22.4800 7.4767 0.2039
22.5000 7.4834 0.2065
22.5200 7.4901 0.1950
22.5400 7.4968 0.1985
22.5600 7.5035 0.1992
22.5800 7.5102 0.1948
22.6000 7.5168 0.2003
22.6200 7.5234 0.2031
22.6400 7.5300 0.1906
22.6600 7.5367 0.1955
22.6800 7.5434 0.2011
22.7000 7.5501 0.1967
22.7200 7.5568 0.1906
22.7400 7.5635 0.2036
22.7600 7.5702 0.1904
22.7800 7.5768 0.1877
22.8000 7.5834 0.2046
22.8200 7.5901 0.1935
22.8400 7.5968 0.1858
22.8600 7.6035 0.1991
22.8800 7.6102 0.1864
22.9000 7.6168 0.1922
22.9200 7.6235 0.1986
22.9400 7.6302 0.1842
22.9600 7.6368 0.1874
22.9800 7.6435 0.1958
23.0000 7.6501 0.1865
23.0200 7.6568 0.1862
23.0400 7.6635 0.2029
23.0600 7.6702 0.1813
23.0800 7.6769 0.1856
23.1000 7.6836 0.1964
23.1200 7.6902 0.1838
23.1400 7.6969 0.1888
23.1600 7.7034 0.1937
23.1800 7.7100 0.1835
23.2000 7.7167 0.1895
23.2200 7.7235 0.1872
23.2400 7.7302 0.1854
23.2600 7.7368 0.1856
23.2800 7.7435 0.1920
23.3000 7.7502 0.1756
23.3200 7.7568 0.1830
23.3400 7.7634 0.1903
23.3600 7.7700 0.1850
23.3800 7.7767 0.1802
23.4000 7.7834 0.1825
23.4200 7.7901 0.1796
23.4400 7.7968 0.1835
23.4600 7.8034 0.1873
23.4800 7.8101 0.1834
23.5000 7.8168 0.1739
23.5200 7.8234 0.1791
23.5400 7.8300 0.1786
23.5600 7.8367 0.1817
23.5800 7.8435 0.1815
23.6000 7.8502 0.1742
23.6200 7.8569 0.1747
23.6400 7.8636 0.1779
23.6600 7.8702 0.1792
23.6800 7.8769 0.1739
23.7000 7.8834 0.1746
23.7200 7.8901 0.1778
23.7400 7.8968 0.1742
23.7600 7.9035 0.1763
23.7800 7.9102 0.1801
23.8000 7.9169 0.1641
23.8200 7.9235 0.1761
23.8400 7.9302 0.1820
23.8600 7.9368 0.1646
23.8800 7.9434 0.1709
23.9000 7.9501 0.1855
23.9200 7.9567 0.1573
23.9400 7.9635 0.1751
23.9600 7.9702 0.1865
23.9800 7.9768 0.1565
24.0000 7.9835 0.1689
24.0200 7.9902 0.1816
24.0400 7.9968 0.1591
24.0600 8.0035 0.1767
24.0800 8.0101 0.1709
24.1000 8.0167 0.1538
24.1200 8.0234 0.1764
24.1400 8.0301 0.1740
24.1600 8.0368 0.1559
24.1800 8.0435 0.1738
24.2000 8.0502 0.1697
24.2200 8.0568 0.1552
24.2400 8.0634 0.1739
24.2600 8.0700 0.1711
24.2800 8.0767 0.1570
24.3000 8.0835 0.1610
24.3200 8.0902 0.1713
24.3400 8.0969 0.1664
24.3600 8.1035 0.1676
24.3800 8.1102 0.1615
24.4000 8.1168 0.1567
24.4200 8.1234 0.1642
24.4400 8.1301 0.1735
24.4600 8.1368 0.1563
24.4800 8.1435 0.1623
24.5000 8.1502 0.1670
24.5200 8.1569 0.1492
24.5400 8.1635 0.1586
24.5600 8.1702 0.1743
24.5800 8.1768 0.1576
24.6000 8.1834 0.1502
24.6200 8.1901 0.1605
24.6400 8.1967 0.1656
24.6600 8.2034 0.1586
24.6800 8.2101 0.1592
24.7000 8.2168 0.1576
24.7200 8.2235 0.1519
24.7400 8.2302 0.1568
24.7600 8.2368 0.1598
24.7800 8.2434 0.1560
24.8000 8.2500 0.1507
24.8200 8.2567 0.1574
24.8400 8.2634 0.1508
24.8600 8.2701 0.1536
24.8800 8.2768 0.1616
24.9000 8.2835 0.1500
24.9200 8.2902 0.1460
24.9400 8.2968 0.1570
24.9600 8.3034 0.1509
24.9800 8.3101 0.1518
25.0000 8.3168 0.1574
25.0200 8.3235 0.1465
25.0400 8.3301 0.1489
25.0600 8.3368 0.1644
25.0800 8.3435 0.1449
25.1000 8.3502 0.1461
25.1200 8.3569 0.1528
25.1400 8.3635 0.1447
25.1600 8.3701 0.1500
25.1800 8.3767 0.1532
25.2000 8.3834 0.1413
25.2200 8.3901 0.1450
25.2400 8.3968 0.1521
25.2600 8.4035 0.1418
25.2800 8.4102 0.1494
25.3000 8.4169 0.1491
25.3200 8.4235 0.1343
25.3400 8.4301 0.1477
25.3600 8.4367 0.1487
25.3800 8.4435 0.1373
25.4000 8.4502 0.1529
25.4200 8.4569 0.1347
25.4400 8.4635 0.1375
25.4600 8.4702 0.1524
25.4800 8.4768 0.1383
25.5000 8.4834 0.1363
25.5200 8.4900 0.1518
25.5400 8.4967 0.1326
25.5600 8.5034 0.1398
25.5800 8.5101 0.1512
25.6000 8.5168 0.1255
25.6200 8.5234 0.1392
25.6400 8.5301 0.1482
25.6600 8.5368 0.1222
25.6800 8.5434 0.1426
25.7000 8.5501 0.1470
25.7200 8.5567 0.1286
25.7400 8.5634 0.1423
25.7600 8.5702 0.1384
25.7800 8.5769 0.1227
25.8000 8.5836 0.1480
25.8200 8.5903 0.1369
25.8400 8.5969 0.1159
25.8600 8.6035 0.1439
25.8800 8.6101 0.1340
25.9000 8.6167 0.1168
25.9200 8.6235 0.1446
25.9400 8.6302 0.1355
25.9600 8.6369 0.1149
25.9800 8.6435 0.1444
26.0000 8.6502 0.1303
26.0200 8.6569 0.1163
26.0400 8.6635 0.1410
26.0600 8.6701 0.1372
26.0800 8.6767 0.1149
26.1000 8.6834 0.1391
26.1200 8.6901 0.1284
26.1400 8.6968 0.1084
26.1600 8.7035 0.1421
26.1800 8.7102 0.1358
26.2000 8.7168 0.1064
26.2200 8.7234 0.1364
26.2400 8.7300 0.1301
26.2600 8.7367 0.1080
26.2800 8.7434 0.1393
26.3000 8.7501 0.1277
26.3200 8.7568 0.1038
26.3400 8.7635 0.1353
26.3600 8.7702 0.1272
26.3800 8.7768 0.1044
26.4000 8.7834 0.1369
26.4200 8.7901 0.1217
26.4400 8.7967 0.1052
26.4600 8.8034 0.1334
26.4800 8.8102 0.1224
26.5000 8.8169 0.1036
26.5200 8.8235 0.1337
26.5400 8.8302 0.1120
26.5600 8.8369 0.1092
26.5800 8.8435 0.1285
26.6000 8.8501 0.1120
26.6200 8.8568 0.1064
26.6400 8.8635 0.1303
26.6600 8.8701 0.1152
26.6800 8.8768 0.1115
26.7000 8.8835 0.1246
26.7200 8.8902 0.1101
26.7400 8.8969 0.1102
26.7600 8.9035 0.1222
26.7800 8.9101 0.1118
26.8000 8.9167 0.1123
26.8200 8.9234 0.1194
26.8400 8.9301 0.1054
26.8600 8.9368 0.1081
26.8800 8.9435 0.1194
26.9000 8.9502 0.1070
26.9200 8.9568 0.1044
26.9400 8.9634 0.1176
26.9600 8.9701 0.1083
26.9800 8.9767 0.1093
27.0000 8.9834 0.1128
27.0200 8.9901 0.1112
27.0400 8.9968 0.1086
27.0600 9.0035 0.1094
27.0800 9.0102 0.1051
27.1000 9.0168 0.1137
27.1200 9.0235 0.1095
27.1400 9.0301 0.1041
27.1600 9.0367 0.1105
27.1800 9.0434 0.1068
27.2000 9.0501 0.1004
27.2200 9.0568 0.1133
27.2400 9.0635 0.1013
27.2600 9.0702 0.1072
27.2800 9.0769 0.1031
27.3000 9.0835 0.1007
27.3200 9.0901 0.1035
27.3400 9.0967 0.1056
27.3600 9.1034 0.0976
27.3800 9.1101 0.1076
27.4000 9.1168 0.1066
27.4200 9.1235 0.0954
27.4400 9.1302 0.1087
27.4600 9.1369 0.0986
27.4800 9.1435 0.0918
27.5000 9.1501 0.1110
27.5200 9.1567 0.1046
27.5400 9.1634 0.0911
27.5600 9.1702 0.1052
27.5800 9.1768 0.1020
27.6000 9.1835 0.0961
27.6200 9.1902 0.1005
27.6400 9.1968 0.0975
27.6600 9.2035 0.0922
27.6800 9.2101 0.1023
27.7000 9.2167 0.0970
27.7200 9.2234 0.0941
27.7400 9.2301 0.0999
27.7600 9.2368 0.0981
27.7800 9.2435 0.0909
27.8000 9.2502 0.1049
27.8200 9.2568 0.0931
27.8400 9.2635 0.0895
27.8600 9.2701 0.1000
27.8800 9.2767 0.0951
27.9000 9.2834 0.0912
27.9200 9.2902 0.0934
27.9400 9.2969 0.0935
27.9600 9.3036 0.0960
27.9800 9.3102 0.0896
28.0000 9.3169 0.0837
28.0200 9.3235 0.0954
28.0400 9.3301 0.1031
28.0600 9.3368 0.0850
28.0800 9.3435 0.0834
28.1000 9.3502 0.0993
28.1200 9.3568 0.0788
28.1400 9.3635 0.0875
28.1600 9.3702 0.1067
28.1800 9.3769 0.0777
28.2000 9.3835 0.0752
28.2200 9.3901 0.0965
28.2400 9.3967 0.0888
28.2600 9.4034 0.0912
28.2800 9.4101 0.0870
28.3000 9.4168 0.0714
28.3200 9.4235 0.0900
28.3400 9.4302 0.0988
28.3600 9.4368 0.0702
28.3800 9.4435 0.0919
28.4000 9.4501 0.0912
28.4200 9.4567 0.0677
28.4400 9.4634 0.0946
28.4600 9.4701 0.0942
28.4800 9.4768 0.0618
28.5000 9.4835 0.0907
28.5200 9.4901 0.0920
28.5400 9.4968 0.0672
28.5600 9.5035 0.0848
28.5800 9.5101 0.0820
28.6000 9.5167 0.0732
28.6200 9.5234 0.0930
28.6400 9.5301 0.0798
28.6600 9.5368 0.0702
28.6800 9.5435 0.0857
28.7000 9.5502 0.0788
28.7200 9.5569 0.0821
28.7400 9.5635 0.0805
28.7600 9.5701 0.0685
28.7800 9.5768 0.0784
28.8000 9.5834 0.0855
28.8200 9.5901 0.0700
28.8400 9.5968 0.0825
28.8600 9.6035 0.0733
28.8800 9.6102 0.0666
28.9000 9.6169 0.0859
28.9200 9.6235 0.0758
28.9400 9.6301 0.0670
28.9600 9.6367 0.0853
28.9800 9.6434 0.0649
29.0000 9.6501 0.0756
29.0200 9.6568 0.0909
29.0400 9.6635 0.0633
29.0600 9.6701 0.0686
29.0800 9.6768 0.0858
29.1000 9.6835 0.0612
29.1200 9.6901 0.0734
29.1400 9.6967 0.0850
29.1600 9.7034 0.0566
29.1800 9.7101 0.0774
29.2000 9.7168 0.0832
29.2200 9.7234 0.0609
29.2400 9.7301 0.0738
29.2600 9.7368 0.0778
29.2800 9.7435 0.0642
29.3000 9.7501 0.0699
29.3200 9.7568 0.0754
29.3400 9.7634 0.0693
29.3600 9.7701 0.0642
29.3800 9.7768 0.0696
29.4000 9.7835 0.0698
29.4200 9.7902 0.0724
29.4400 9.7969 0.0636
29.4600 9.8035 0.0690
29.4800 9.8101 0.0710
29.5000 9.8167 0.0666
29.5200 9.8234 0.0723
29.5400 9.8301 0.0696
29.5600 9.8368 0.0602
29.5800 9.8435 0.0706
29.6000 9.8502 0.0637
29.6200 9.8569 0.0598
29.6400 9.8635 0.0688
29.6600 9.8701 0.0657
29.6800 9.8767 0.0651
29.7000 9.8834 0.0676
29.7200 9.8901 0.0592
29.7400 9.8968 0.0657
29.7600 9.9035 0.0719
29.7800 9.9101 0.0535
29.8000 9.9168 0.0629
29.8200 9.9235 0.0665
29.8400 9.9301 0.0537
29.8600 9.9367 0.0622
29.8800 9.9433 0.0713
29.9000 9.9501 0.0533
29.9200 9.9568 0.0614
29.9400 9.9635 0.0603
29.9600 9.9701 0.0606
29.9800 9.9768 0.0620
30.0000 9.9834 0.0568
30.0200 9.9901 0.0571
30.0400 9.9967 0.0622
30.0600 10.0034 0.0569
30.0800 10.0101 0.0520
30.1000 10.0168 0.0605
30.1200 10.0235 0.0573
30.1400 10.0302 0.0502
30.1600 10.0369 0.0603
30.1800 10.0435 0.0561
30.2000 10.0502 0.0493
30.2200 10.0568 0.0594
30.2400 10.0634 0.0547
30.2600 10.0701 0.0513
30.2800 10.0768 0.0522
30.3000 10.0835 0.0512
30.3200 10.0902 0.0482
30.3400 10.0969 0.0561
30.3600 10.1035 0.0512
30.3800 10.1101 0.0459
30.4000 10.1167 0.0544
30.4200 10.1234 0.0551
30.4400 10.1301 0.0399
30.4600 10.1368 0.0549
30.4800 10.1435 0.0501
30.5000 10.1502 0.0433
30.5200 10.1568 0.0472
30.5400 10.1635 0.0496
30.5600 10.1701 0.0438
30.5800 10.1767 0.0534
30.6000 10.1834 0.0457
30.6200 10.1901 0.0406
30.6400 10.1968 0.0484
30.6600 10.2035 0.0411
30.6800 10.2102 0.0420
30.7000 10.2168 0.0570
30.7200 10.2235 0.0372
30.7400 10.2301 0.0348
30.7600 10.2368 0.0540
30.7800 10.2434 0.0406
30.8000 10.2501 0.0364
30.8200 10.2568 0.0482
30.8400 10.2635 0.0440
30.8600 10.2702 0.0366
30.8800 10.2769 0.0448
30.9000 10.2835 0.0405
30.9200 10.2902 0.0340
30.9400 10.2967 0.0440
30.9600 10.3034 0.0376
30.9800 10.3101 0.0341
31.0000 10.3168 0.0441
31.0200 10.3235 0.0308
31.0400 10.3302 0.0402
31.0600 10.3368 0.0418
31.0800 10.3435 0.0319
31.1000 10.3501 0.0332
31.1200 10.3567 0.0385
31.1400 10.3634 0.0295
31.1600 10.3701 0.0424
31.1800 10.3768 0.0311
31.2000 10.3835 0.0246
31.2200 10.3901 0.0376
31.2400 10.3968 0.0355
31.2600 10.4035 0.0328
31.2800 10.4101 0.0351
31.3000 10.4167 0.0237
31.3200 10.4234 0.0363
31.3400 10.4301 0.0325
31.3600 10.4368 0.0290
31.3800 10.4435 0.0375
31.4000 10.4502 0.0260
31.4200 10.4569 0.0234
31.4400 10.4635 0.0307
31.4600 10.4702 0.0261
31.4800 10.4768 0.0252
31.5000 10.4834 0.0419
31.5200 10.4901 0.0163
31.5400 10.4968 0.0166
31.5600 10.5035 0.0364
31.5800 10.5102 0.0256
31.6000 10.5169 0.0177
31.6200 10.5235 0.0261
31.6400 10.5302 0.0216
31.6600 10.5368 0.0247
31.6800 10.5434 0.0224
31.7000 10.5501 0.0236
31.7200 10.5568 0.0229
31.7400 10.5635 0.0206
31.7600 10.5702 0.0191
31.7800 10.5769 0.0223
31.8000 10.5835 0.0189
31.8200 10.5902 0.0229
31.8400 10.5968 0.0182
31.8600 10.6034 0.0189
31.8800 10.6101 0.0240
31.9000 10.6168 0.0147
31.9200 10.6235 0.0157
31.9400 10.6302 0.0236
31.9600 10.6369 0.0155
31.9800 10.6435 0.0135
32.0000 10.6501 0.0197
32.0200 10.6567 0.0169
32.0400 10.6633 0.0153
32.0600 10.6700 0.0178
32.0800 10.6768 0.0146
32.1000 10.6835 0.0121
32.1200 10.6901 0.0173
32.1400 10.6968 0.0145
32.1600 10.7035 0.0098
32.1800 10.7101 0.0126
32.2000 10.7168 0.0159
32.2200 10.7234 0.0118
32.2400 10.7301 0.0108
32.2600 10.7368 0.0098
32.2800 10.7435 0.0114
32.3000 10.7502 0.0107
32.3200 10.7569 0.0134
32.3400 10.7636 0.0063
32.3600 10.7702 0.0079
32.3800 10.7768 0.0126
32.4000 10.7834 0.0098
32.4200 10.7901 0.0091
32.4400 10.7968 0.0096
32.4600 10.8035 0.0035
32.4800 10.8102 0.0119
32.5000 10.8169 0.0104
32.5200 10.8235 0.0005
32.5400 10.8301 0.0048
32.5600 10.8367 0.0088
32.5800 10.8433 0.0057
32.6000 10.8500 0.0003
32.6200 10.8568 0.0072
32.6400 10.8635 0.0009
32.6600 10.8702 0.0061
32.6800 10.8768 0.0020
32.7000 10.8835 -0.0019
32.7200 10.8901 0.0089
32.7400 10.8967 0.0008
32.7600 10.9034 -0.0048
32.7800 10.9101 0.0101
32.8000 10.9168 -0.0023
32.8200 10.9235 -0.0068
32.8400 10.9301 0.0070
32.8600 10.9368 -0.0012
32.8800 10.9435 -0.0119
32.9000 10.9502 0.0078
32.9200 10.9568 -0.0081
32.9400 10.9634 -0.0048
32.9600 10.9701 0.0067
32.9800 10.9768 -0.0104
33.0000 10.9835 -0.0111
33.0200 10.9902 0.0055
33.0400 10.9969 -0.0101
33.0600 11.0035 -0.0078
33.0800 11.0102 0.0002
33.1000 11.0168 -0.0111
33.1200 11.0234 -0.0075
33.1400 11.0301 0.0003
33.1600 11.0368 -0.0179
33.1800 11.0435 -0.0118
33.2000 11.0502 -0.0002
33.2200 11.0569 -0.0179
33.2400 11.0636 -0.0152
33.2600 11.0702 -0.0036
33.2800 11.0768 -0.0214
33.3000 11.0834 -0.0125
33.3200 11.0901 -0.0021
33.3400 11.0968 -0.0238
33.3600 11.1035 -0.0117
33.3800 11.1101 -0.0058
33.4000 11.1168 -0.0204
33.4200 11.1235 -0.0143
33.4400 11.1301 -0.0054
33.4600 11.1368 -0.0247
33.4800 11.1434 -0.0108
33.5000 11.1500 -0.0065
33.5200 11.1567 -0.0266
33.5400 11.1635 -0.0134
33.5600 11.1702 -0.0105
33.5800 11.1768 -0.0260
33.6000 11.1835 -0.0141
33.6200 11.1902 -0.0159
33.6400 11.1968 -0.0244
33.6600 11.2034 -0.0207
33.6800 11.2101 -0.0113
33.7000 11.2168 -0.0215
33.7200 11.2236 -0.0254
33.7400 11.2302 -0.0199
33.7600 11.2369 -0.0238
33.7800 11.2436 -0.0203
33.8000 11.2502 -0.0248
33.8200 11.2568 -0.0230
33.8400 11.2634 -0.0220
33.8600 11.2701 -0.0219
33.8800 11.2768 -0.0262
33.9000 11.2835 -0.0202
33.9200 11.2902 -0.0267
33.9400 11.2969 -0.0282
33.9600 11.3035 -0.0291
33.9800 11.3102 -0.0222
34.0000 11.3168 -0.0264
34.0200 11.3234 -0.0316
34.0400 11.3300 -0.0218
34.0600 11.3367 -0.0256
34.0800 11.3435 -0.0335
34.1000 11.3502 -0.0248
34.1200 11.3569 -0.0326
34.1400 11.3635 -0.0340
34.1600 11.3702 -0.0290
34.1800 11.3768 -0.0344
34.2000 11.3833 -0.0371
34.2200 11.3900 -0.0234
34.2400 11.3967 -0.0367
34.2600 11.4035 -0.0409
34.2800 11.4101 -0.0264
34.3000 11.4168 -0.0341
34.3200 11.4235 -0.0407
34.3400 11.4301 -0.0273
34.3600 11.4368 -0.0368
34.3800 11.4434 -0.0416
34.4000 11.4501 -0.0297
34.4200 11.4568 -0.0392
34.4400 11.4635 -0.0353
34.4600 11.4702 -0.0320
34.4800 11.4769 -0.0425
34.5000 11.4836 -0.0432
34.5200 11.4902 -0.0326
34.5400 11.4968 -0.0398
34.5600 11.5034 -0.0377
34.5800 11.5101 -0.0371
34.6000 11.5168 -0.0411
34.6200 11.5235 -0.0399
34.6400 11.5302 -0.0383
34.6600 11.5369 -0.0420
34.6800 11.5435 -0.0375
34.7000 11.5502 -0.0473
34.7200 11.5568 -0.0423
34.7400 11.5634 -0.0376
34.7600 11.5700 -0.0411
34.7800 11.5768 -0.0441
34.8000 11.5835 -0.0432
34.8200 11.5901 -0.0449
34.8400 11.5968 -0.0412
34.8600 11.6035 -0.0429
34.8800 11.6101 -0.0481
34.9000 11.6168 -0.0425
34.9200 11.6234 -0.0464
34.9400 11.6300 -0.0441
34.9600 11.6367 -0.0437
34.9800 11.6435 -0.0453
35.0000 11.6501 -0.0440
35.0200 11.6568 -0.0443
35.0400 11.6635 -0.0515
35.0600 11.6702 -0.0470
35.0800 11.6768 -0.0478
35.1000 11.6834 -0.0511
35.1200 11.6901 -0.0488
35.1400 11.6968 -0.0459
35.1600 11.7035 -0.0514
35.1800 11.7102 -0.0489
35.2000 11.7169 -0.0504
35.2200 11.7235 -0.0483
35.2400 11.7302 -0.0586
35.2600 11.7368 -0.0472
35.2800 11.7434 -0.0512
35.3000 11.7500 -0.0560
35.3200 11.7568 -0.0482
35.3400 11.7635 -0.0541
35.3600 11.7702 -0.0598
35.3800 11.7769 -0.0446
35.4000 11.7835 -0.0575
35.4200 11.7902 -0.0609
35.4400 11.7968 -0.0483
35.4600 11.8035 -0.0582
35.4800 11.8101 -0.0623
35.5000 11.8168 -0.0456
35.5200 11.8235 -0.0595
35.5400 11.8301 -0.0670
35.5600 11.8368 -0.0462
35.5800 11.8435 -0.0603
35.6000 11.8502 -0.0640
35.6200 11.8568 -0.0536
35.6400 11.8634 -0.0600
35.6600 11.8700 -0.0632
35.6800 11.8767 -0.0559
35.7000 11.8834 -0.0599
35.7200 11.8901 -0.0623
35.7400 11.8968 -0.0578
35.7600 11.9035 -0.0612
35.7800 11.9102 -0.0657
35.8000 11.9168 -0.0562
35.8200 11.9234 -0.0594
35.8400 11.9301 -0.0671
35.8600 11.9368 -0.0648
35.8800 11.9435 -0.0586
35.9000 11.9501 -0.0692
35.9200 11.9568 -0.0637
35.9400 11.9635 -0.0607
35.9600 11.9702 -0.0723
35.9800 11.9768 -0.0687
36.0000 11.9834 -0.0601
36.0200 11.9901 -0.0768
36.0400 11.9968 -0.0651
36.0600 12.0035 -0.0639
36.0800 12.0102 -0.0750
36.1000 12.0169 -0.0682
36.1200 12.0236 -0.0636
36.1400 12.0302 -0.0742
36.1600 12.0368 -0.0687
36.1800 12.0434 -0.0668
36.2000 12.0500 -0.0785
36.2200 12.0567 -0.0631
36.2400 12.0635 -0.0713
36.2600 12.0702 -0.0794
36.2800 12.0768 -0.0666
36.3000 12.0835 -0.0702
36.3200 12.0902 -0.0820
36.3400 12.0968 -0.0642
36.3600 12.1034 -0.0743
36.3800 12.1101 -0.0782
36.4000 12.1167 -0.0648
36.4200 12.1234 -0.0784
36.4400 12.1301 -0.0810
36.4600 12.1368 -0.0619
36.4800 12.1435 -0.0837
36.5000 12.1502 -0.0802
36.5200 12.1568 -0.0664
36.5400 12.1634 -0.0837
36.5600 12.1701 -0.0790
36.5800 12.1768 -0.0691
36.6000 12.1835 -0.0853
36.6200 12.1902 -0.0774
36.6400 12.1968 -0.0714
36.6600 12.2035 -0.0867
36.6800 12.2102 -0.0755
36.7000 12.2168 -0.0738
36.7200 12.2234 -0.0916
36.7400 12.2301 -0.0749
36.7600 12.2368 -0.0740
36.7800 12.2435 -0.0896
36.8000 12.2502 -0.0815
36.8200 12.2569 -0.0781
36.8400 12.2635 -0.0825
36.8600 12.2702 -0.0835
36.8800 12.2768 -0.0815
36.9000 12.2834 -0.0879
36.9200 12.2900 -0.0748
36.9400 12.2967 -0.0831
36.9600 12.3035 -0.0899
36.9800 12.3101 -0.0812
37.0000 12.3168 -0.0867
37.0200 12.3235 -0.0894
37.0400 12.3302 -0.0826
37.0600 12.3368 -0.0930
37.0800 12.3434 -0.0847
37.1000 12.3500 -0.0838
37.1200 12.3567 -0.0932
37.1400 12.3634 -0.0835
37.1600 12.3701 -0.0861
37.1800 12.3768 -0.0989
37.2000 12.3835 -0.0844
37.2200 12.3902 -0.0949
37.2400 12.3968 -0.0960
37.2600 12.4034 -0.0860
37.2800 12.4101 -0.0908
37.3000 12.4167 -0.0966
37.3200 12.4235 -0.0918
37.3400 12.4301 -0.0947
37.3600 12.4368 -0.0969
37.3800 12.4435 -0.0889
37.4000 12.4502 -0.1015
37.4200 12.4569 -0.0954
37.4400 12.4635 -0.0892
37.4600 12.4701 -0.0989
37.4800 12.4768 -0.0930
37.5000 12.4835 -0.0928
37.5200 12.4902 -0.1049
37.5400 12.4968 -0.0942
37.5600 12.5035 -0.0935
37.5800 12.5102 -0.1018
37.6000 12.5168 -0.1019
37.6200 12.5234 -0.0970
37.6400 12.5301 -0.1042
37.6600 12.5367 -0.0967
37.6800 12.5434 -0.0967
37.7000 12.5502 -0.1039
37.7200 12.5568 -0.0983
37.7400 12.5635 -0.1006
37.7600 12.5702 -0.1076
37.7800 12.5768 -0.1001
37.8000 12.5834 -0.1018
37.8200 12.5900 -0.1104
37.8400 12.5967 -0.0996
37.8600 12.6034 -0.0987
37.8800 12.6101 -0.1115
37.9000 12.6168 -0.1015
37.9200 12.6235 -0.0999
37.9400 12.6302 -0.1126
37.9600 12.6368 -0.1039
37.9800 12.6434 -0.1065
38.0000 12.6501 -0.1098
38.0200 12.6567 -0.1027
38.0400 12.6635 -0.1103
38.0600 12.6702 -0.1175
38.0800 12.6769 -0.0997
38.1000 12.6835 -0.1112
38.1200 12.6902 -0.1131
38.1400 12.6969 -0.1054
38.1600 12.7035 -0.1107
38.1800 12.7101 -0.1131
38.2000 12.7167 -0.1066
38.2200 12.7235 -0.1160
38.2400 12.7302 -0.1098
38.2600 12.7369 -0.1091
38.2800 12.7435 -0.1193
38.3000 12.7502 -0.1135
38.3200 12.7568 -0.1109
38.3400 12.7634 -0.1158
38.3600 12.7700 -0.1122
38.3800 12.7767 -0.1159
38.4000 12.7834 -0.1164
38.4200 12.7902 -0.1118
38.4400 12.7968 -0.1201
38.4600 12.8035 -0.1119
38.4800 12.8102 -0.1122
38.5000 12.8168 -0.1291
38.5200 12.8235 -0.1167
38.5400 12.8301 -0.1082
38.5600 12.8367 -0.1207
38.5800 12.8434 -0.1182
38.6000 12.8501 -0.1193
38.6200 12.8568 -0.1220
38.6400 12.8634 -0.1144
38.6600 12.8701 -0.1135
38.6800 12.8768 -0.1353
38.7000 12.8834 -0.1129
38.7200 12.8900 -0.1127
38.7400 12.8967 -0.1342
38.7600 12.9034 -0.1139
38.7800 12.9102 -0.1131
38.8000 12.9169 -0.1330
38.8200 12.9235 -0.1126
38.8400 12.9302 -0.1197
38.8600 12.9368 -0.1377
38.8800 12.9434 -0.1087
38.9000 12.9501 -0.1210
38.9200 12.9568 -0.1405
38.9400 12.9635 -0.1069
38.9600 12.9702 -0.1228
38.9800 12.9769 -0.1419
39.0000 12.9835 -0.1131
39.0200 12.9902 -0.1270
39.0400 12.9968 -0.1373
39.0600 13.0034 -0.1142
39.0800 13.0101 -0.1277
39.1000 13.0167 -0.1397
39.1200 13.0234 -0.1126
39.1400 13.0301 -0.1325
39.1600 13.0368 -0.1374
39.1800 13.0435 -0.1176
39.2000 13.0502 -0.1361
39.2200 13.0569 -0.1412
39.2400 13.0635 -0.1197
39.2600 13.0700 -0.1331
39.2800 13.0767 -0.1308
39.3000 13.0834 -0.1244
39.3200 13.0901 -0.1375
39.3400 13.0968 -0.1380
39.3600 13.1035 -0.1242
39.3800 13.1102 -0.1372
39.4000 13.1168 -0.1385
39.4200 13.1235 -0.1263
39.4400 13.1301 -0.1326
39.4600 13.1367 -0.1391
39.4800 13.1434 -0.1308
39.5000 13.1502 -0.1359
39.5200 13.1568 -0.1389
39.5400 13.1635 -0.1306
39.5600 13.1702 -0.1405
39.5800 13.1769 -0.1406
39.6000 13.1835 -0.1359
39.6200 13.1901 -0.1394
39.6400 13.1967 -0.1414
39.6600 13.2034 -0.1361
39.6800 13.2101 -0.1452
39.7000 13.2168 -0.1414
39.7200 13.2235 -0.1399
39.7400 13.2302 -0.1415
39.7600 13.2369 -0.1487
39.7800 13.2435 -0.1386
39.8000 13.2501 -0.1390
39.8200 13.2567 -0.1410
39.8400 13.2634 -0.1424
39.8600 13.2702 -0.1440
39.8800 13.2769 -0.1429
39.9000 13.2835 -0.1433
39.9200 13.2902 -0.1441
39.9400 13.2968 -0.1444
39.9600 13.3034 -0.1480
39.9800 13.3100 -0.1418
40.0000 13.3167 -0.1501
40.0200 13.3234 -0.1465
40.0400 13.3301 -0.1411
40.0600 13.3368 -0.1533
40.0800 13.3435 -0.1473
40.1000 13.3502 -0.1398
40.1200 13.3568 -0.1531
40.1400 13.3635 -0.1513
40.1600 13.3701 -0.1389
40.1800 13.3767 -0.1580
40.2000 13.3834 -0.1481
40.2200 13.3901 -0.1380
40.2400 13.3969 -0.1596
40.2600 13.4036 -0.1512
40.2800 13.4103 -0.1341
40.3000 13.4169 -0.1604
40.3200 13.4235 -0.1512
40.3400 13.4301 -0.1455
40.3600 13.4367 -0.1597
40.3800 13.4434 -0.1510
40.4000 13.4502 -0.1425
40.4200 13.4569 -0.1623
40.4400 13.4635 -0.1543
40.4600 13.4702 -0.1517
40.4800 13.4768 -0.1588
40.5000 13.4834 -0.1559
40.5200 13.4901 -0.1501
40.5400 13.4967 -0.1580
40.5600 13.5034 -0.1571
40.5800 13.5101 -0.1566
40.6000 13.5168 -0.1557
40.6200 13.5235 -0.1613
40.6400 13.5302 -0.1566
40.6600 13.5368 -0.1572
40.6800 13.5435 -0.1648
40.7000 13.5501 -0.1547
40.7200 13.5567 -0.1566
40.7400 13.5633 -0.1640
40.7600 13.5700 -0.1581
40.7800 13.5767 -0.1590
40.8000 13.5834 -0.1698
40.8200 13.5902 -0.1578
40.8400 13.5969 -0.1633
40.8600 13.6035 -0.1721
40.8800 13.6101 -0.1546
40.9000 13.6167 -0.1566
40.9200 13.6234 -0.1733
40.9400 13.6302 -0.1551
40.9600 13.6369 -0.1673
40.9800 13.6435 -0.1754
41.0000 13.6502 -0.1546
41.0200 13.6569 -0.1609
41.0400 13.6635 -0.1769
41.0600 13.6701 -0.1521
41.0800 13.6768 -0.1722
41.1000 13.6835 -0.1809
41.1200 13.6901 -0.1483
41.1400 13.6968 -0.1659
41.1600 13.7035 -0.1804
41.1800 13.7102 -0.1548
41.2000 13.7169 -0.1701
41.2200 13.7235 -0.1844
41.2400 13.7301 -0.1535
41.2600 13.7367 -0.1632
41.2800 13.7434 -0.1823
41.3000 13.7501 -0.1599
41.3200 13.7568 -0.1687
41.3400 13.7635 -0.1819
41.3600 13.7702 -0.1593
41.3800 13.7768 -0.1723
41.4000 13.7835 -0.1837
41.4200 13.7900 -0.1627
41.4400 13.7967 -0.1713
41.4600 13.8034 -0.1833
41.4800 13.8101 -0.1681
41.5000 13.8168 -0.1711
41.5200 13.8235 -0.1803
41.5400 13.8301 -0.1691
41.5600 13.8368 -0.1701
41.5800 13.8435 -0.1892
41.6000 13.8501 -0.1667
41.6200 13.8567 -0.1764
41.6400 13.8634 -0.1874
41.6600 13.8701 -0.1665
41.6800 13.8768 -0.1787
41.7000 13.8835 -0.1887
41.7200 13.8902 -0.1639
41.7400 13.8969 -0.1834
41.7600 13.9035 -0.1872
41.7800 13.9101 -0.1659
41.8000 13.9167 -0.1822
41.8200 13.9234 -0.1901
41.8400 13.9301 -0.1721
41.8600 13.9369 -0.1866
41.8800 13.9435 -0.1895
41.9000 13.9502 -0.1700
41.9200 13.9569 -0.1917
41.9400 13.9635 -0.1880
41.9600 13.9701 -0.1765
41.9800 13.9767 -0.1899
42.0000 13.9834 -0.1874
42.0200 13.9901 -0.1734
42.0400 13.9968 -0.1936
42.0600 14.0035 -0.1922
42.0800 14.0102 -0.1753
42.1000 14.0169 -0.1871
42.1200 14.0235 -0.1900
42.1400 14.0301 -0.1779
42.1600 14.0367 -0.1928
42.1800 14.0434 -0.1892
42.2000 14.0501 -0.1852
42.2200 14.0568 -0.1924
42.2400 14.0635 -0.1950
42.2600 14.0702 -0.1816
42.2800 14.0769 -0.1950
42.3000 14.0835 -0.1981
42.3200 14.0901 -0.1805
42.3400 14.0967 -0.1958
42.3600 14.1034 -0.1987
42.3800 14.1101 -0.1802
42.4000 14.1168 -0.1931
42.4200 14.1235 -0.2003
42.4400 14.1302 -0.1840
42.4600 14.1369 -0.1954
42.4800 14.1435 -0.2002
42.5000 14.1501 -0.1801
42.5200 14.1568 -0.1969
42.5400 14.1635 -0.2022
42.5600 14.1702 -0.1759
42.5800 14.1769 -0.2018
42.6000 14.1835 -0.2090
42.6200 14.1902 -0.1835
42.6400 14.1969 -0.1963
42.6600 14.2035 -0.2112
42.6800 14.2101 -0.1887
42.7000 14.2167 -0.1936
42.7200 14.2234 -0.2089
42.7400 14.2301 -0.1891
42.7600 14.2368 -0.1968
42.7800 14.2435 -0.2078
42.8000 14.2502 -0.1880
42.8200 14.2569 -0.2061
42.8400 14.2635 -0.2071
42.8600 14.2701 -0.1935
42.8800 14.2767 -0.1977
42.9000 14.2834 -0.2049
42.9200 14.2901 -0.1925
42.9400 14.2968 -0.1988
42.9600 14.3035 -0.2117
42.9800 14.3102 -0.1941
43.0000 14.3168 -0.1996
43.0200 14.3235 -0.2084
43.0400 14.3301 -0.2002
43.0600 14.3367 -0.2013
43.0800 14.3434 -0.2039
43.1000 14.3501 -0.2041
43.1200 14.3568 -0.2023
43.1400 14.3635 -0.1993
43.1600 14.3702 -0.2100
43.1800 14.3769 -0.2048
43.2000 14.3835 -0.2086
43.2200 14.3901 -0.2055
43.2400 14.3967 -0.2021
43.2600 14.4034 -0.2057
43.2800 14.4101 -0.2078
43.3000 14.4169 -0.2018
43.3200 14.4236 -0.2095
43.3400 14.4302 -0.2104
43.3600 14.4369 -0.2057
43.3800 14.4436 -0.2071
43.4000 14.4501 -0.2153
43.4200 14.4567 -0.1997
43.4400 14.4634 -0.2155
43.4600 14.4701 -0.2153
43.4800 14.4768 -0.1993
43.5000 14.4835 -0.2152
43.5200 14.4901 -0.2198
43.5400 14.4968 -0.2054
43.5600 14.5035 -0.2131
43.5800 14.5101 -0.2220
43.6000 14.5167 -0.2043
43.6200 14.5234 -0.2134
43.6400 14.5301 -0.2168
43.6600 14.5368 -0.2093
43.6800 14.5434 -0.2180
43.7000 14.5501 -0.2140
43.7200 14.5568 -0.2117
43.7400 14.5635 -0.2204
43.7600 14.5701 -0.2169
43.7800 14.5768 -0.2190
43.8000 14.5834 -0.2153
43.8200 14.5901 -0.2211
43.8400 14.5968 -0.2173
43.8600 14.6035 -0.2206
43.8800 14.6102 -0.2207
43.9000 14.6169 -0.2217
43.9200 14.6235 -0.2162
43.9400 14.6301 -0.2261
43.9600 14.6367 -0.2248
43.9800 14.6434 -0.2166
44.0000 14.6501 -0.2273
44.0200 14.6568 -0.2247
44.0400 14.6635 -0.2209
44.0600 14.6702 -0.2290
44.0800 14.6769 -0.2197
44.1000 14.6835 -0.2232
44.1200 14.6902 -0.2340
44.1400 14.6968 -0.2156
44.1600 14.7034 -0.2259
44.1800 14.7101 -0.2360
44.2000 14.7168 -0.2213
44.2200 14.7235 -0.2219
44.2400 14.7302 -0.2344
44.2600 14.7369 -0.2223
44.2800 14.7435 -0.2291
44.3000 14.7501 -0.2311
44.3200 14.7567 -0.2250
44.3400 14.7633 -0.2266
44.3600 14.7700 -0.2340
44.3800 14.7768 -0.2296
44.4000 14.7835 -0.2305
44.4200 14.7901 -0.2328
44.4400 14.7968 -0.2281
44.4600 14.8035 -0.2312
44.4800 14.8101 -0.2412
44.5000 14.8167 -0.2220
44.5200 14.8234 -0.2327
44.5400 14.8301 -0.2435
44.5600 14.8368 -0.2275
44.5800 14.8435 -0.2355
44.6000 14.8502 -0.2438
44.6200 14.8569 -0.2271
44.6400 14.8636 -0.2355
44.6600 14.8702 -0.2430
44.6800 14.8768 -0.2372
44.7000 14.8835 -0.2378
44.7200 14.8901 -0.2381
44.7400 14.8968 -0.2382
44.7600 14.9035 -0.2410
44.7800 14.9102 -0.2436
44.8000 14.9169 -0.2351
44.8200 14.9235 -0.2429
44.8400 14.9301 -0.2428
44.8600 14.9367 -0.2376
44.8800 14.9434 -0.2399
44.9000 14.9501 -0.2470
44.9200 14.9568 -0.2443
44.9400 14.9635 -0.2451
44.9600 14.9702 -0.2436
44.9800 14.9768 -0.2451
45.0000 14.9835 -0.2425
45.0200 14.9901 -0.2507
45.0400 14.9967 -0.2437
45.0600 15.0034 -0.2439
45.0800 15.0101 -0.2510
45.1000 15.0168 -0.2480
45.1200 15.0235 -0.2450
45.1400 15.0301 -0.2484
45.1600 15.0368 -0.2458
45.1800 15.0435 -0.2491
45.2000 15.0502 -0.2543
45.2200 15.0568 -0.2429
45.2400 15.0634 -0.2510
45.2600 15.0701 -0.2552
45.2800 15.0768 -0.2439
45.3000 15.0835 -0.2536
45.3200 15.0902 -0.2575
45.3400 15.0969 -0.2463
45.3600 15.1036 -0.2522
45.3800 15.1102 -0.2533
45.4000 15.1168 -0.2517
45.4200 15.1234 -0.2556
45.4400 15.1301 -0.2581
45.4600 15.1368 -0.2488
45.4800 15.1435 -0.2589
45.5000 15.1502 -0.2568
45.5200 15.1569 -0.2521
45.5400 15.1635 -0.2596
45.5600 15.1701 -0.2594
45.5800 15.1767 -0.2551
45.6000 15.1834 -0.2538
45.6200 15.1901 -0.2561
45.6400 15.1968 -0.2610
45.6600 15.2035 -0.2531
45.6800 15.2101 -0.2581
45.7000 15.2168 -0.2627
45.7200 15.2235 -0.2564
45.7400 15.2301 -0.2545
45.7600 15.2368 -0.2604
45.7800 15.2434 -0.2626
45.8000 15.2501 -0.2558
45.8200 15.2568 -0.2619
45.8400 15.2635 -0.2594
45.8600 15.2701 -0.2552
45.8800 15.2768 -0.2617
45.9000 15.2835 -0.2653
45.9200 15.2902 -0.2630
45.9400 15.2968 -0.2627
45.9600 15.3034 -0.2564
45.9800 15.3101 -0.2635
46.0000 15.3168 -0.2626
46.0200 15.3235 -0.2646
46.0400 15.3302 -0.2634
46.0600 15.3369 -0.2675
46.0800 15.3435 -0.2589
46.1000 15.3502 -0.2682
46.1200 15.3568 -0.2644
46.1400 15.3634 -0.2616
46.1600 15.3701 -0.2687
46.1800 15.3768 -0.2675
46.2000 15.3835 -0.2651
46.2200 15.3902 -0.2636
46.2400 15.3969 -0.2710
46.2600 15.4036 -0.2720
46.2800 15.4102 -0.2617
46.3000 15.4168 -0.2693
46.3200 15.4234 -0.2690
46.3400 15.4301 -0.2656
46.3600 15.4368 -0.2718
46.3800 15.4435 -0.2685
46.4000 15.4502 -0.2732
46.4200 15.4569 -0.2691
46.4400 15.4635 -0.2702
46.4600 15.4702 -0.2688
46.4800 15.4767 -0.2725
46.5000 15.4833 -0.2707
46.5200 15.4900 -0.2736
46.5400 15.4967 -0.2733
46.5600 15.5035 -0.2716
46.5800 15.5101 -0.2730
46.6000 15.5168 -0.2738
46.6200 15.5235 -0.2752
46.6400 15.5301 -0.2793
46.6600 15.5367 -0.2717
46.6800 15.5434 -0.2749
46.7000 15.5501 -0.2802
46.7200 15.5568 -0.2737
46.7400 15.5635 -0.2791
46.7600 15.5701 -0.2830
46.7800 15.5769 -0.2770
46.8000 15.5836 -0.2832
46.8200 15.5902 -0.2786
46.8400 15.5968 -0.2800
46.8600 15.6034 -0.2882
46.8800 15.6101 -0.2772
46.9000 15.6168 -0.2812
46.9200 15.6235 -0.2927
46.9400 15.6302 -0.2765
46.9600 15.6369 -0.2841
46.9800 15.6435 -0.2933
47.0000 15.6502 -0.2723
47.0200 15.6568 -0.2910
47.0400 15.6634 -0.2930
47.0600 15.6701 -0.2718
47.0800 15.6768 -0.2903
47.1000 15.6835 -0.2974
47.1200 15.6901 -0.2756
47.1400 15.6968 -0.2942
47.1600 15.7035 -0.2996
47.1800 15.7102 -0.2761
47.2000 15.7168 -0.2926
47.2200 15.7234 -0.3013
47.2400 15.7301 -0.2764
47.2600 15.7368 -0.2990
47.2800 15.7435 -0.2970
47.3000 15.7501 -0.2776
47.3200 15.7568 -0.2968
47.3400 15.7635 -0.3020
47.3600 15.7702 -0.2801
47.3800 15.7768 -0.2985
47.4000 15.7834 -0.3006
47.4200 15.7901 -0.2746
47.4400 15.7968 -0.3033
47.4600 15.8035 -0.3042
47.4800 15.8102 -0.2783
47.5000 15.8169 -0.3042
47.5200 15.8235 -0.3050
47.5400 15.8302 -0.2791
47.5600 15.8368 -0.3105
47.5800 15.8434 -0.3006
47.6000 15.8501 -0.2810
47.6200 15.8568 -0.3077
47.6400 15.8635 -0.3057
47.6600 15.8702 -0.2826
47.6800 15.8769 -0.3163
47.7000 15.8836 -0.2955
47.7200 15.8902 -0.2834
47.7400 15.8968 -0.3192
47.7600 15.9034 -0.2989
47.7800 15.9101 -0.2842
47.8000 15.9168 -0.3153
47.8200 15.9235 -0.2998
47.8400 15.9301 -0.2943
47.8600 15.9368 -0.3137
47.8800 15.9435 -0.3026
47.9000 15.9502 -0.2957
47.9200 15.9568 -0.3137
47.9400 15.9634 -0.2987
47.9600 15.9700 -0.3035
47.9800 15.9767 -0.3222
48.0000 15.9835 -0.2958
48.0200 15.9901 -0.3042
48.0400 15.9968 -0.3143
48.0600 16.0035 -0.3052
48.0800 16.0102 -0.3063
48.1000 16.0168 -0.3134
48.1200 16.0234 -0.3064
48.1400 16.0301 -0.3111
48.1600 16.0368 -0.3127
48.1800 16.0435 -0.3087
48.2000 16.0502 -0.3117
48.2200 16.0569 -0.3154
48.2400 16.0636 -0.3117
48.2600 16.0702 -0.3144
48.2800 16.0768 -0.3126
48.3000 16.0834 -0.3146
48.3200 16.0900 -0.3095
48.3400 16.0968 -0.3149
48.3600 16.1035 -0.3150
48.3800 16.1102 -0.3128
48.4000 16.1169 -0.3202
48.4200 16.1235 -0.3184
48.4400 16.1302 -0.3079
48.4600 16.1368 -0.3191
48.4800 16.1434 -0.3218
48.5000 16.1500 -0.3126
48.5200 16.1567 -0.3232
48.5400 16.1635 -0.3196
48.5600 16.1702 -0.3149
48.5800 16.1768 -0.3244
48.6000 16.1835 -0.3248
48.6200 16.1902 -0.3133
48.6400 16.1968 -0.3296
48.6600 16.2034 -0.3199
48.6800 16.2100 -0.3155
48.7000 16.2167 -0.3294
48.7200 16.2235 -0.3246
48.7400 16.2301 -0.3180
48.7600 16.2368 -0.3285
48.7800 16.2435 -0.3216
48.8000 16.2502 -0.3262
48.8200 16.2568 -0.3270
48.8400 16.2634 -0.3273
48.8600 16.2700 -0.3260
48.8800 16.2767 -0.3239
48.9000 16.2835 -0.3257
48.9200 16.2902 -0.3334
48.9400 16.2969 -0.3278
48.9600 16.3036 -0.3263
48.9800 16.3102 -0.3325
49.0000 16.3168 -0.3303
49.0200 16.3234 -0.3262
49.0400 16.3301 -0.3364
49.0600 16.3368 -0.3284
49.0800 16.3435 -0.3284
49.1000 16.3502 -0.3409
49.1200 16.3569 -0.3281
49.1400 16.3635 -0.3291
49.1600 16.3702 -0.3424
49.1800 16.3768 -0.3309
49.2000 16.3834 -0.3317
49.2200 16.3901 -0.3442
49.2400 16.3968 -0.3291
49.2600 16.4035 -0.3407
49.2800 16.4101 -0.3404
49.3000 16.4168 -0.3299
49.3200 16.4235 -0.3368
49.3400 16.4301 -0.3426
49.3600 16.4368 -0.3340
49.3800 16.4434 -0.3417
49.4000 16.4500 -0.3385
49.4200 16.4567 -0.3369
49.4400 16.4634 -0.3409
49.4600 16.4701 -0.3406
49.4800 16.4768 -0.3408
49.5000 16.4835 -0.3439
49.5200 16.4902 -0.3361
49.5400 16.4968 -0.3466
49.5600 16.5034 -0.3444
49.5800 16.5101 -0.3354
49.6000 16.5168 -0.3487
49.6200 16.5235 -0.3389
49.6400 16.5302 -0.3406
49.6600 16.5369 -0.3506
49.6800 16.5435 -0.3386
49.7000 16.5502 -0.3443
49.7200 16.5568 -0.3512
49.7400 16.5634 -0.3391
49.7600 16.5701 -0.3499
49.7800 16.5768 -0.3495
49.8000 16.5835 -0.3415
49.8200 16.5902 -0.3566
49.8400 16.5968 -0.3469
49.8600 16.6035 -0.3391
49.8800 16.6102 -0.3629
49.9000 16.6169 -0.3446
49.9200 16.6235 -0.3434
49.9400 16.6301 -0.3596
49.9600 16.6368 -0.3455
49.9800 16.6435 -0.3443
50.0000 16.6502 -0.3646
50.0200 16.6568 -0.3428
50.0400 16.6635 -0.3497
50.0600 16.6702 -0.3652
50.0800 16.6768 -0.3449
50.1000 16.6834 -0.3518
50.1200 16.6900 -0.3596
50.1400 16.6967 -0.3462
50.1600 16.7034 -0.3556
50.1800 16.7101 -0.3597
50.2000 16.7168 -0.3444
50.2200 16.7235 -0.3635
50.2400 16.7302 -0.3613
50.2600 16.7368 -0.3446
50.2800 16.7434 -0.3639
50.3000 16.7500 -0.3629
50.3200 16.7567 -0.3422
50.3400 16.7635 -0.3660
50.3600 16.7702 -0.3610
50.3800 16.7768 -0.3460
50.4000 16.7835 -0.3640
50.4200 16.7902 -0.3667
50.4400 16.7968 -0.3483
50.4600 16.8035 -0.3692
50.4800 16.8101 -0.3610
50.5000 16.8168 -0.3522
50.5200 16.8235 -0.3696
50.5400 16.8302 -0.3640
50.5600 16.8369 -0.3530
50.5800 16.8435 -0.3623
50.6000 16.8502 -0.3680
50.6200 16.8569 -0.3579
50.6400 16.8634 -0.3662
50.6600 16.8701 -0.3678
50.6800 16.8767 -0.3581
50.7000 16.8835 -0.3647
50.7200 16.8902 -0.3748
50.7400 16.8968 -0.3576
50.7600 16.9035 -0.3698
50.7800 16.9102 -0.3752
50.8000 16.9168 -0.3574
50.8200 16.9234 -0.3683
50.8400 16.9300 -0.3789
50.8600 16.9367 -0.3556
50.8800 16.9434 -0.3731
50.9000 16.9501 -0.3816
50.9200 16.9568 -0.3599
50.9400 16.9634 -0.3707
50.9600 16.9701 -0.3820
50.9800 16.9768 -0.3622
51.0000 16.9834 -0.3747
51.0200 16.9900 -0.3796
51.0400 16.9967 -0.3629
51.0600 17.0034 -0.3789
51.0800 17.0102 -0.3796
51.1000 17.0169 -0.3652
51.1200 17.0235 -0.3821
51.1400 17.0302 -0.3766
51.1600 17.0369 -0.3698
51.1800 17.0435 -0.3812
51.2000 17.0501 -0.3733
51.2200 17.0568 -0.3716
51.2400 17.0635 -0.3790
51.2600 17.0702 -0.3840
51.2800 17.0768 -0.3751
51.3000 17.0835 -0.3761
51.3200 17.0902 -0.3868
51.3400 17.0968 -0.3798
51.3600 17.1034 -0.3742
51.3800 17.1101 -0.3890
51.4000 17.1167 -0.3763
51.4200 17.1234 -0.3719
51.4400 17.1301 -0.3941
51.4600 17.1368 -0.3811
51.4800 17.1435 -0.3718
51.5000 17.1502 -0.3980
51.5200 17.1568 -0.3766
51.5400 17.1634 -0.3806
51.5600 17.1700 -0.3941
51.5800 17.1767 -0.3739
51.6000 17.1834 -0.3848
51.6200 17.1901 -0.3963
51.6400 17.1968 -0.3755
51.6600 17.2035 -0.3867
51.6800 17.2102 -0.3948
51.7000 17.2168 -0.3791
51.7200 17.2234 -0.3931
51.7400 17.2300 -0.3971
51.7600 17.2367 -0.3763
51.7800 17.2434 -0.3953
51.8000 17.2502 -0.3987
51.8200 17.2568 -0.3772
51.8400 17.2635 -0.3992
51.8600 17.2702 -0.3943
51.8800 17.2769 -0.3871
51.9000 17.2835 -0.3921
51.9200 17.2901 -0.3965
51.9400 17.2968 -0.3910
51.9600 17.3035 -0.3949
51.9800 17.3102 -0.3912
52.0000 17.3169 -0.3978
52.0200 17.3235 -0.3943
52.0400 17.3302 -0.3959
52.0600 17.3369 -0.4006
52.0800 17.3435 -0.3937
52.1000 17.3501 -0.3957
52.1200 17.3567 -0.3999
52.1400 17.3634 -0.3940
52.1600 17.3701 -0.4050
52.1800 17.3768 -0.4029
52.2000 17.3835 -0.3927
52.2200 17.3901 -0.4017
52.2400 17.3968 -0.4095
52.2600 17.4034 -0.3937
52.2800 17.4100 -0.4053
52.3000 17.4167 -0.4080
52.3200 17.4234 -0.3912
52.3400 17.4301 -0.4101
52.3600 17.4368 -0.4094
52.3800 17.4435 -0.3973
52.4000 17.4501 -0.4051
52.4200 17.4568 -0.4077
52.4400 17.4634 -0.3953
52.4600 17.4701 -0.4114
52.4800 17.4767 -0.4087
52.5000 17.4835 -0.4005
52.5200 17.4902 -0.4137
52.5400 17.4969 -0.4114
52.5600 17.5035 -0.4051
52.5800 17.5102 -0.4174
52.6000 17.5169 -0.4130
52.6200 17.5235 -0.4034
52.6400 17.5301 -0.4119
52.6600 17.5367 -0.4166
52.6800 17.5434 -0.4078
52.7000 17.5502 -0.4164
52.7200 17.5569 -0.4161
52.7400 17.5635 -0.4089
52.7600 17.5702 -0.4160
52.7800 17.5769 -0.4210
52.8000 17.5835 -0.4103
52.8200 17.5901 -0.4155
52.8400 17.5967 -0.4201
52.8600 17.6035 -0.4112
52.8800 17.6102 -0.4134
52.9000 17.6168 -0.4233
52.9200 17.6235 -0.4167
52.9400 17.6301 -0.4167
52.9600 17.6368 -0.4240
52.9800 17.6435 -0.4166
53.0000 17.6501 -0.4174
53.0200 17.6567 -0.4217
53.0400 17.6634 -0.4209
53.0600 17.6701 -0.4209
53.0800 17.6768 -0.4279
53.1000 17.6835 -0.4176
53.1200 17.6901 -0.4236
53.1400 17.6968 -0.4279
53.1600 17.7034 -0.4236
53.1800 17.7101 -0.4236
53.2000 17.7167 -0.4302
53.2200 17.7234 -0.4252
53.2400 17.7302 -0.4239
53.2600 17.7369 -0.4318
53.2800 17.7435 -0.4270
53.3000 17.7502 -0.4294
53.3200 17.7569 -0.4361
53.3400 17.7635 -0.4247
53.3600 17.7701 -0.4270
53.3800 17.7767 -0.4398
53.4000 17.7835 -0.4306
53.4200 17.7902 -0.4329
53.4400 17.7969 -0.4345
53.4600 17.8035 -0.4340
53.4800 17.8102 -0.4326
53.5000 17.8169 -0.4373
53.5200 17.8235 -0.4367
53.5400 17.8301 -0.4340
53.5600 17.8367 -0.4365
53.5800 17.8434 -0.4355
53.6000 17.8501 -0.4317
53.6200 17.8568 -0.4482
53.6400 17.8635 -0.4392
53.6600 17.8702 -0.4348
53.6800 17.8768 -0.4473
53.7000 17.8834 -0.4442
53.7200 17.8900 -0.4340
53.7400 17.8967 -0.4491
53.7600 17.9034 -0.4410
53.7800 17.9101 -0.4380
53.8000 17.9168 -0.4528
53.8200 17.9235 -0.4428
53.8400 17.9301 -0.4429
53.8600 17.9368 -0.4567
53.8800 17.9435 -0.4439
53.9000 17.9501 -0.4389
53.9200 17.9567 -0.4612
53.9400 17.9634 -0.4433
53.9600 17.9701 -0.4407
53.9800 17.9768 -0.4588
54.0000 17.9835 -0.4454
54.0200 17.9902 -0.4443
54.0400 17.9969 -0.4624
54.0600 18.0035 -0.4459
54.0800 18.0101 -0.4500
54.1000 18.0167 -0.4601
54.1200 18.0234 -0.4440
54.1400 18.0301 -0.4488
54.1600 18.0368 -0.4702
54.1800 18.0435 -0.4432
54.2000 18.0502 -0.4488
54.2200 18.0569 -0.4673
54.2400 18.0635 -0.4481
54.2600 18.0701 -0.4489
54.2800 18.0767 -0.4692
54.3000 18.0834 -0.4479
54.3200 18.0902 -0.4488
54.3400 18.0968 -0.4713
54.3600 18.1035 -0.4494
54.3800 18.1102 -0.4518
54.4000 18.1168 -0.4745
54.4200 18.1235 -0.4528
54.4400 18.1301 -0.4510
54.4600 18.1367 -0.4752
54.4800 18.1434 -0.4549
54.5000 18.1501 -0.4531
54.5200 18.1568 -0.4735
54.5400 18.1635 -0.4591
54.5600 18.1702 -0.4492
54.5800 18.1768 -0.4821
54.6000 18.1835 -0.4604
54.6200 18.1901 -0.4530
54.6400 18.1967 -0.4837
54.6600 18.2034 -0.4571
54.6800 18.2101 -0.4510
54.7000 18.2168 -0.4894
54.7200 18.2235 -0.4615
54.7400 18.2302 -0.4542
54.7600 18.2369 -0.4911
54.7800 18.2435 -0.4677
54.8000 18.2501 -0.4517
54.8200 18.2567 -0.4954
54.8400 18.2634 -0.4612
54.8600 18.2702 -0.4606
54.8800 18.2769 -0.4992
54.9000 18.2835 -0.4576
54.9200 18.2902 -0.4608
54.9400 18.2969 -0.4991
54.9600 18.3035 -0.4635
54.9800 18.3101 -0.4613
55.0000 18.3167 -0.5005
55.0200 18.3234 -0.4659
55.0400 18.3301 -0.4656
55.0600 18.3368 -0.4981
55.0800 18.3435 -0.4712
55.1000 18.3502 -0.4682
55.1200 18.3568 -0.4930
55.1400 18.3635 -0.4751
55.1600 18.3701 -0.4739
55.1800 18.3767 -0.4891
55.2000 18.3833 -0.4843
55.2200 18.3901 -0.4715
55.2400 18.3968 -0.4898
55.2600 18.4035 -0.4855
55.2800 18.4101 -0.4760
55.3000 18.4168 -0.4865
55.3200 18.4235 -0.4936
55.3400 18.4301 -0.4771
55.3600 18.4367 -0.4863
55.3800 18.4434 -0.4924
55.4000 18.4502 -0.4804
55.4200 18.4569 -0.4889
55.4400 18.4635 -0.4937
55.4600 18.4702 -0.4829
55.4800 18.4769 -0.4924
55.5000 18.4835 -0.4966
55.5200 18.4902 -0.4821
55.5400 18.4968 -0.4944
55.5600 18.5035 -0.4981
55.5800 18.5101 -0.4850
55.6000 18.5168 -0.4969
55.6200 18.5235 -0.5000
55.6400 18.5302 -0.4796
55.6600 18.5369 -0.5012
55.6800 18.5435 -0.5024
55.7000 18.5501 -0.4861
55.7200 18.5567 -0.5032
55.7400 18.5634 -0.4952
55.7600 18.5701 -0.4854
55.7800 18.5768 -0.5099
55.8000 18.5835 -0.4946
55.8200 18.5902 -0.4936
55.8400 18.5968 -0.5073
55.8600 18.6035 -0.4953
55.8800 18.6101 -0.4917
55.9000 18.6167 -0.5103
55.9200 18.6234 -0.4933
55.9400 18.6301 -0.4988
55.9600 18.6368 -0.5117
55.9800 18.6435 -0.4965
56.0000 18.6501 -0.5005
56.0200 18.6568 -0.5080
56.0400 18.6635 -0.5044
56.0600 18.6701 -0.5018
56.0800 18.6767 -0.5065
56.1000 18.6834 -0.5064
56.1200 18.6901 -0.5031
56.1400 18.6968 -0.5048
56.1600 18.7035 -0.5116
56.1800 18.7102 -0.5061
56.2000 18.7169 -0.5089
56.2200 18.7236 -0.5137
56.2400 18.7301 -0.5104
56.2600 18.7367 -0.5018
56.2800 18.7434 -0.5218
56.3000 18.7501 -0.5106
56.3200 18.7568 -0.5057
56.3400 18.7635 -0.5167
56.3600 18.7702 -0.5136
56.3800 18.7769 -0.5097
56.4000 18.7835 -0.5222
56.4200 18.7901 -0.5180
56.4400 18.7967 -0.5142
56.4600 18.8034 -0.5222
56.4800 18.8101 -0.5168
56.5000 18.8168 -0.5156
56.5200 18.8235 -0.5265
56.5400 18.8302 -0.5177
56.5600 18.8368 -0.5129
56.5800 18.8435 -0.5319
56.6000 18.8501 -0.5210
56.6200 18.8567 -0.5160
56.6400 18.8633 -0.5249
56.6600 18.8700 -0.5214
56.6800 18.8768 -0.5232
56.7000 18.8835 -0.5303
56.7200 18.8902 -0.5260
56.7400 18.8968 -0.5267
56.7600 18.9035 -0.5265
56.7800 18.9101 -0.5266
56.8000 18.9167 -0.5269
56.8200 18.9234 -0.5291
56.8400 18.9301 -0.5274
56.8600 18.9368 -0.5336
56.8800 18.9435 -0.5280
56.9000 18.9502 -0.5349
56.9200 18.9569 -0.5365
56.9400 18.9635 -0.5283
56.9600 18.9701 -0.5373
56.9800 18.9767 -0.5369
57.0000 18.9834 -0.5328
57.0200 18.9901 -0.5423
57.0400 18.9968 -0.5386
57.0600 19.0035 -0.5318
57.0800 19.0102 -0.5433
57.1000 19.0168 -0.5429
57.1200 19.0235 -0.5311
57.1400 19.0301 -0.5459
57.1600 19.0367 -0.5466
57.1800 19.0434 -0.5340
57.2000 19.0501 -0.5497
57.2200 19.0568 -0.5443
57.2400 19.0635 -0.5384
57.2600 19.0701 -0.5525
57.2800 19.0768 -0.5443
57.3000 19.0835 -0.5362
57.3200 19.0901 -0.5663
57.3400 19.0967 -0.5410
57.3600 19.1034 -0.5376
57.3800 19.1101 -0.5617
57.4000 19.1168 -0.5466
57.4200 19.1235 -0.5425
57.4400 19.1302 -0.5653
57.4600 19.1368 -0.5452
57.4800 19.1435 -0.5476
57.5000 19.1501 -0.5626
57.5200 19.1567 -0.5449
57.5400 19.1634 -0.5514
57.5600 19.1701 -0.5634
57.5800 19.1768 -0.5491
57.6000 19.1835 -0.5488
57.6200 19.1902 -0.5686
57.6400 19.1969 -0.5542
57.6600 19.2035 -0.5511
57.6800 19.2102 -0.5702
57.7000 19.2168 -0.5547
57.7200 19.2234 -0.5505
57.7400 19.2301 -0.5735
57.7600 19.2368 -0.5555
57.7800 19.2435 -0.5532
57.8000 19.2502 -0.5725
57.8200 19.2569 -0.5552
57.8400 19.2636 -0.5555
57.8600 19.2702 -0.5805
57.8800 19.2767 -0.5524
57.9000 19.2834 -0.5585
57.9200 19.2901 -0.5754
57.9400 19.2968 -0.5625
57.9600 19.3034 -0.5636
57.9800 19.3101 -0.5741
58.0000 19.3168 -0.5638
58.0200 19.3235 -0.5608
58.0400 19.3301 -0.5730
58.0600 19.3367 -0.5710
58.0800 19.3434 -0.5624
58.1000 19.3501 -0.5721
58.1200 19.3568 -0.5782
58.1400 19.3634 -0.5655
58.1600 19.3701 -0.5790
58.1800 19.3768 -0.5797
58.2000 19.3835 -0.5615
58.2200 19.3901 -0.5803
58.2400 19.3968 -0.5851
58.2600 19.4034 -0.5627
58.2800 19.4101 -0.5887
58.3000 19.4168 -0.5811
58.3200 19.4235 -0.5580
58.3400 19.4302 -0.5939
58.3600 19.4369 -0.5894
58.3800 19.4435 -0.5558
58.4000 19.4502 -0.6046
58.4200 19.4567 -0.5796
58.4400 19.4634 -0.5553
58.4600 19.4701 -0.6078
58.4800 19.4768 -0.5888
58.5000 19.4835 -0.5574
58.5200 19.4902 -0.6176
58.5400 19.4969 -0.5838
58.5600 19.5035 -0.5610
58.5800 19.5102 -0.6227
58.6000 19.5168 -0.5831
58.6200 19.5234 -0.5624
58.6400 19.5301 -0.6285
58.6600 19.5368 -0.5819
58.6800 19.5435 -0.5665
58.7000 19.5502 -0.6287
58.7200 19.5568 -0.5811
58.7400 19.5635 -0.5754
58.7600 19.5701 -0.6308
58.7800 19.5767 -0.5827
58.8000 19.5833 -0.5756
58.8200 19.5900 -0.6362
58.8400 19.5967 -0.5877
58.8600 19.6034 -0.5819
58.8800 19.6101 -0.6305
58.9000 19.6168 -0.5935
58.9200 19.6235 -0.5863
58.9400 19.6301 -0.6322
58.9600 19.6367 -0.5962
58.9800 19.6434 -0.5917
59.0000 19.6501 -0.6307
59.0200 19.6568 -0.5990
59.0400 19.6635 -0.5902
59.0600 19.6702 -0.6342
59.0800 19.6769 -0.6003
59.1000 19.6835 -0.6012
59.1200 19.6902 -0.6369
59.1400 19.6968 -0.6044
59.1600 19.7034 -0.6038
59.1800 19.7101 -0.6319
59.2000 19.7168 -0.6107
59.2200 19.7235 -0.6102
59.2400 19.7302 -0.6363
59.2600 19.7369 -0.6106
59.2800 19.7435 -0.6153
59.3000 19.7501 -0.6502
