Raw Data
Time Displacement Force
(s) (mm) (N)
0.0000 0.0000 0.1798
0.0200 0.0001 0.1792
0.0400 0.0011 0.2160
0.0600 0.0050 0.2113
0.0800 0.0107 0.1663
0.1000 0.0165 0.1806
0.1200 0.0226 0.2017
0.1400 0.0295 0.1823
0.1600 0.0368 0.1788
0.1800 0.0442 0.1836
0.2000 0.0513 0.1706
0.2200 0.0581 0.1764
0.2400 0.0647 0.1842
0.2600 0.0713 0.1714
0.2800 0.0780 0.1862
0.3000 0.0848 0.1880
0.3200 0.0915 0.1690
0.3400 0.0982 0.1853
0.3600 0.1049 0.1824
0.3800 0.1116 0.1791
0.4000 0.1182 0.1848
0.4200 0.1249 0.1861
0.4400 0.1315 0.1780
0.4600 0.1382 0.1878
0.4800 0.1449 0.1799
0.5000 0.1516 0.1840
0.5200 0.1582 0.1955
0.5400 0.1649 0.1833
0.5600 0.1716 0.1800
0.5800 0.1783 0.1916
0.6000 0.1849 0.1776
0.6200 0.1915 0.1890
0.6400 0.1981 0.1916
0.6600 0.2049 0.1760
0.6800 0.2116 0.1880
0.7000 0.2183 0.1891
0.7200 0.2249 0.1733
0.7400 0.2316 0.1941
0.7600 0.2382 0.1959
0.7800 0.2448 0.1791
0.8000 0.2514 0.1913
0.8200 0.2581 0.1856
0.8400 0.2648 0.1845
0.8600 0.2715 0.1936
0.8800 0.2782 0.1876
0.9000 0.2849 0.1791
0.9200 0.2916 0.1929
0.9400 0.2982 0.1858
0.9600 0.3049 0.1840
0.9800 0.3115 0.1921
1.0000 0.3181 0.1886
1.0200 0.3248 0.1829
1.0400 0.3315 0.1879
1.0600 0.3382 0.1835
1.0800 0.3449 0.1859
1.1000 0.3516 0.1881
1.1200 0.3583 0.1830
1.1400 0.3649 0.1842
1.1600 0.3715 0.1874
1.1800 0.3781 0.1847
1.2000 0.3848 0.1855
1.2200 0.3916 0.1854
1.2400 0.3983 0.1841
1.2600 0.4049 0.1823
1.2800 0.4116 0.1833
1.3000 0.4183 0.1873
1.3200 0.4249 0.1833
1.3400 0.4315 0.1832
1.3600 0.4381 0.1829
1.3800 0.4449 0.1849
1.4000 0.4516 0.1821
1.4200 0.4583 0.1891
1.4400 0.4649 0.1795
1.4600 0.4716 0.1774
1.4800 0.4783 0.1866
1.5000 0.4849 0.1839
1.5200 0.4915 0.1793
1.5400 0.4981 0.1858
1.5600 0.5048 0.1780
1.5800 0.5115 0.1810
1.6000 0.5182 0.1882
1.6200 0.5249 0.1788
1.6400 0.5316 0.1796
1.6600 0.5382 0.1839
1.6800 0.5448 0.1729
1.7000 0.5514 0.1846
1.7200 0.5581 0.1879
1.7400 0.5648 0.1707
1.7600 0.5715 0.1745
1.7800 0.5782 0.1863
1.8000 0.5849 0.1782
1.8200 0.5915 0.1768
1.8400 0.5982 0.1815
1.8600 0.6048 0.1646
1.8800 0.6115 0.1786
1.9000 0.6181 0.1795
1.9200 0.6248 0.1736
1.9400 0.6316 0.1819
1.9600 0.6382 0.1775
1.9800 0.6449 0.1677
2.0000 0.6516 0.1827
2.0200 0.6583 0.1803
2.0400 0.6649 0.1691
2.0600 0.6715 0.1750
2.0800 0.6782 0.1779
2.1000 0.6848 0.1687
2.1200 0.6915 0.1777
2.1400 0.6982 0.1759
2.1600 0.7049 0.1683
2.1800 0.7116 0.1781
2.2000 0.7183 0.1774
2.2200 0.7249 0.1678
2.2400 0.7315 0.1727
2.2600 0.7381 0.1766
2.2800 0.7448 0.1705
2.3000 0.7515 0.1734
2.3200 0.7582 0.1740
2.3400 0.7649 0.1713
2.3600 0.7716 0.1688
2.3800 0.7783 0.1715
2.4000 0.7849 0.1734
2.4200 0.7915 0.1761
2.4400 0.7981 0.1684
2.4600 0.8048 0.1724
2.4800 0.8115 0.1706
2.5000 0.8182 0.1711
2.5200 0.8249 0.1707
2.5400 0.8316 0.1709
2.5600 0.8383 0.1672
2.5800 0.8449 0.1691
2.6000 0.8515 0.1752
2.6200 0.8581 0.1680
2.6400 0.8648 0.1691
2.6600 0.8715 0.1802
2.6800 0.8782 0.1630
2.7000 0.8849 0.1661
2.7200 0.8916 0.1802
2.7400 0.8983 0.1683
2.7600 0.9049 0.1664
2.7800 0.9115 0.1756
2.8000 0.9181 0.1674
2.8200 0.9248 0.1661
2.8400 0.9316 0.1812
2.8600 0.9383 0.1639
2.8800 0.9449 0.1719
2.9000 0.9516 0.1759
2.9200 0.9583 0.1644
2.9400 0.9649 0.1738
2.9600 0.9715 0.1768
2.9800 0.9781 0.1645
3.0000 0.9848 0.1720
3.0200 0.9915 0.1737
3.0400 0.9982 0.1678
3.0600 1.0049 0.1731
3.0800 1.0115 0.1750
3.1000 1.0182 0.1668
3.1200 1.0249 0.1740
3.1400 1.0315 0.1733
3.1600 1.0381 0.1691
3.1800 1.0448 0.1697
3.2000 1.0515 0.1676
3.2200 1.0582 0.1683
3.2400 1.0649 0.1693
3.2600 1.0716 0.1712
3.2800 1.0782 0.1660
3.3000 1.0849 0.1677
3.3200 1.0915 0.1653
3.3400 1.0981 0.1727
3.3600 1.1048 0.1699
3.3800 1.1116 0.1660
3.4000 1.1183 0.1692
3.4200 1.1250 0.1627
3.4400 1.1316 0.1626
3.4600 1.1383 0.1715
3.4800 1.1449 0.1590
3.5000 1.1515 0.1674
3.5200 1.1582 0.1692
3.5400 1.1648 0.1626
3.5600 1.1715 0.1626
3.5800 1.1782 0.1681
3.6000 1.1849 0.1629
3.6200 1.1916 0.1655
3.6400 1.1983 0.1663
3.6600 1.2049 0.1583
3.6800 1.2115 0.1661
3.7000 1.2181 0.1626
3.7200 1.2248 0.1602
3.7400 1.2315 0.1663
3.7600 1.2382 0.1546
3.7800 1.2449 0.1609
3.8000 1.2516 0.1709
3.8200 1.2583 0.1503
3.8400 1.2649 0.1541
3.8600 1.2715 0.1701
3.8800 1.2781 0.1608
3.9000 1.2848 0.1558
3.9200 1.2915 0.1671
3.9400 1.2982 0.1534
3.9600 1.3049 0.1609
3.9800 1.3115 0.1635
4.0000 1.3182 0.1531
4.0200 1.3249 0.1577
4.0400 1.3315 0.1610
4.0600 1.3381 0.1520
4.0800 1.3448 0.1660
4.1000 1.3515 0.1614
4.1200 1.3583 0.1452
4.1400 1.3649 0.1584
4.1600 1.3716 0.1657
4.1800 1.3783 0.1488
4.2000 1.3850 0.1565
4.2200 1.3915 0.1643
4.2400 1.3982 0.1512
4.2600 1.4048 0.1558
4.2800 1.4115 0.1622
4.3000 1.4183 0.1561
4.3200 1.4250 0.1531
4.3400 1.4316 0.1559
4.3600 1.4383 0.1528
4.3800 1.4449 0.1590
4.4000 1.4515 0.1565
4.4200 1.4581 0.1519
4.4400 1.4648 0.1519
4.4600 1.4715 0.1649
4.4800 1.4782 0.1452
4.5000 1.4848 0.1550
4.5200 1.4915 0.1637
4.5400 1.4982 0.1479
4.5600 1.5049 0.1491
4.5800 1.5115 0.1588
4.6000 1.5181 0.1466
4.6200 1.5248 0.1522
4.6400 1.5315 0.1593
4.6600 1.5382 0.1418
4.6800 1.5449 0.1504
4.7000 1.5516 0.1624
4.7200 1.5583 0.1409
4.7400 1.5649 0.1514
4.7600 1.5715 0.1542
4.7800 1.5782 0.1394
4.8000 1.5848 0.1580
4.8200 1.5915 0.1560
4.8400 1.5982 0.1378
4.8600 1.6049 0.1558
4.8800 1.6116 0.1569
4.9000 1.6183 0.1358
4.9200 1.6249 0.1560
4.9400 1.6315 0.1522
4.9600 1.6381 0.1418
4.9800 1.6448 0.1583
5.0000 1.6515 0.1477
5.0200 1.6582 0.1393
5.0400 1.6649 0.1583
5.0600 1.6716 0.1484
5.0800 1.6783 0.1367
5.1000 1.6850 0.1563
5.1200 1.6916 0.1455
5.1400 1.6982 0.1368
5.1600 1.7048 0.1591
5.1800 1.7115 0.1418
5.2000 1.7182 0.1401
5.2200 1.7249 0.1569
5.2400 1.7316 0.1402
5.2600 1.7383 0.1432
5.2800 1.7449 0.1517
5.3000 1.7515 0.1397
5.3200 1.7581 0.1458
5.3400 1.7648 0.1563
5.3600 1.7715 0.1370
5.3800 1.7782 0.1425
5.4000 1.7849 0.1506
5.4200 1.7916 0.1411
5.4400 1.7982 0.1439
5.4600 1.8049 0.1498
5.4800 1.8115 0.1388
5.5000 1.8181 0.1448
5.5200 1.8248 0.1474
5.5400 1.8315 0.1442
5.5600 1.8382 0.1405
5.5800 1.8449 0.1488
5.6000 1.8516 0.1390
5.6200 1.8583 0.1383
5.6400 1.8649 0.1463
5.6600 1.8716 0.1410
5.6800 1.8782 0.1427
5.7000 1.8848 0.1472
5.7200 1.8915 0.1368
5.7400 1.8982 0.1415
5.7600 1.9049 0.1460
5.7800 1.9116 0.1344
5.8000 1.9183 0.1433
5.8200 1.9249 0.1437
5.8400 1.9315 0.1339
5.8600 1.9381 0.1431
5.8800 1.9448 0.1500
5.9000 1.9515 0.1356
5.9200 1.9582 0.1433
5.9400 1.9649 0.1444
5.9600 1.9716 0.1355
5.9800 1.9782 0.1390
6.0000 1.9849 0.1433
6.0200 1.9915 0.1347
6.0400 1.9981 0.1396
6.0600 2.0048 0.1429
6.0800 2.0115 0.1399
6.1000 2.0182 0.1350
6.1200 2.0248 0.1445
6.1400 2.0315 0.1373
6.1600 2.0382 0.1380
6.1800 2.0449 0.1441
6.2000 2.0516 0.1377
6.2200 2.0582 0.1356
6.2400 2.0648 0.1455
6.2600 2.0715 0.1342
6.2800 2.0782 0.1373
6.3000 2.0849 0.1454
6.3200 2.0916 0.1293
6.3400 2.0983 0.1390
6.3600 2.1050 0.1425
6.3800 2.1116 0.1364
6.4000 2.1182 0.1394
6.4200 2.1248 0.1449
6.4400 2.1316 0.1334
6.4600 2.1383 0.1369
6.4800 2.1450 0.1405
6.5000 2.1516 0.1365
6.5200 2.1582 0.1374
6.5400 2.1649 0.1419
6.5600 2.1715 0.1368
6.5800 2.1782 0.1393
6.6000 2.1848 0.1374
6.6200 2.1915 0.1352
6.6400 2.1982 0.1336
6.6600 2.2049 0.1398
6.6800 2.2116 0.1365
6.7000 2.2182 0.1378
6.7200 2.2249 0.1384
6.7400 2.2316 0.1369
6.7600 2.2381 0.1354
6.7800 2.2448 0.1435
6.8000 2.2515 0.1412
6.8200 2.2582 0.1276
6.8400 2.2649 0.1403
6.8600 2.2716 0.1385
6.8800 2.2783 0.1287
6.9000 2.2849 0.1384
6.9200 2.2916 0.1397
6.9400 2.2982 0.1294
6.9600 2.3048 0.1377
6.9800 2.3115 0.1368
7.0000 2.3182 0.1337
7.0200 2.3249 0.1373
7.0400 2.3316 0.1342
7.0600 2.3383 0.1268
7.0800 2.3449 0.1405
7.1000 2.3516 0.1326
7.1200 2.3582 0.1325
7.1400 2.3649 0.1352
7.1600 2.3715 0.1298
7.1800 2.3782 0.1282
7.2000 2.3849 0.1375
7.2200 2.3916 0.1303
7.2400 2.3983 0.1304
7.2600 2.4050 0.1356
7.2800 2.4116 0.1279
7.3000 2.4182 0.1325
7.3200 2.4248 0.1390
7.3400 2.4315 0.1294
7.3600 2.4382 0.1266
7.3800 2.4449 0.1314
7.4000 2.4516 0.1268
7.4200 2.4583 0.1336
7.4400 2.4649 0.1311
7.4600 2.4715 0.1271
7.4800 2.4781 0.1274
7.5000 2.4848 0.1354
7.5200 2.4914 0.1299
7.5400 2.4982 0.1269
7.5600 2.5049 0.1321
7.5800 2.5115 0.1321
7.6000 2.5182 0.1236
7.6200 2.5249 0.1384
7.6400 2.5315 0.1285
7.6600 2.5381 0.1293
7.6800 2.5448 0.1346
7.7000 2.5515 0.1259
7.7200 2.5582 0.1315
7.7400 2.5649 0.1364
7.7600 2.5716 0.1276
7.7800 2.5783 0.1281
7.8000 2.5850 0.1334
7.8200 2.5916 0.1272
7.8400 2.5982 0.1316
7.8600 2.6048 0.1329
7.8800 2.6115 0.1254
7.9000 2.6182 0.1323
7.9200 2.6249 0.1315
7.9400 2.6316 0.1219
7.9600 2.6383 0.1302
7.9800 2.6449 0.1311
8.0000 2.6516 0.1317
8.0200 2.6582 0.1305
8.0400 2.6648 0.1316
8.0600 2.6715 0.1295
8.0800 2.6782 0.1278
8.1000 2.6849 0.1290
8.1200 2.6916 0.1318
8.1400 2.6982 0.1236
8.1600 2.7049 0.1293
8.1800 2.7116 0.1295
8.2000 2.7182 0.1245
8.2200 2.7248 0.1325
8.2400 2.7315 0.1295
8.2600 2.7382 0.1160
8.2800 2.7449 0.1334
8.3000 2.7515 0.1359
8.3200 2.7582 0.1189
8.3400 2.7649 0.1293
8.3600 2.7715 0.1268
8.3800 2.7781 0.1247
8.4000 2.7848 0.1309
8.4200 2.7915 0.1186
8.4400 2.7982 0.1217
8.4600 2.8049 0.1326
8.4800 2.8116 0.1172
8.5000 2.8183 0.1308
8.5200 2.8249 0.1291
8.5400 2.8316 0.1205
8.5600 2.8382 0.1282
8.5800 2.8448 0.1279
8.6000 2.8515 0.1182
8.6200 2.8582 0.1349
8.6400 2.8650 0.1157
8.6600 2.8716 0.1230
8.6800 2.8783 0.1299
8.7000 2.8849 0.1179
8.7200 2.8916 0.1261
8.7400 2.8982 0.1266
8.7600 2.9048 0.1185
8.7800 2.9115 0.1290
8.8000 2.9182 0.1241
8.8200 2.9249 0.1210
8.8400 2.9315 0.1239
8.8600 2.9382 0.1177
8.8800 2.9449 0.1192
8.9000 2.9516 0.1291
8.9200 2.9582 0.1189
8.9400 2.9648 0.1152
8.9600 2.9715 0.1345
8.9800 2.9782 0.1199
9.0000 2.9849 0.1191
9.0200 2.9916 0.1194
9.0400 2.9982 0.1189
9.0600 3.0049 0.1240
9.0800 3.0116 0.1195
9.1000 3.0182 0.1156
9.1200 3.0248 0.1242
9.1400 3.0315 0.1165
9.1600 3.0382 0.1157
9.1800 3.0449 0.1186
9.2000 3.0516 0.1188
9.2200 3.0582 0.1206
9.2400 3.0649 0.1194
9.2600 3.0716 0.1124
9.2800 3.0782 0.1220
9.3000 3.0848 0.1185
9.3200 3.0915 0.1112
9.3400 3.0982 0.1245
9.3600 3.1049 0.1156
9.3800 3.1116 0.1168
9.4000 3.1183 0.1178
9.4200 3.1250 0.1098
9.4400 3.1316 0.1127
9.4600 3.1382 0.1201
9.4800 3.1448 0.1110
9.5000 3.1515 0.1200
9.5200 3.1582 0.1184
9.5400 3.1649 0.1098
9.5600 3.1716 0.1227
9.5800 3.1783 0.1166
9.6000 3.1849 0.1081
9.6200 3.1916 0.1296
9.6400 3.1982 0.1078
9.6600 3.2048 0.1083
9.6800 3.2115 0.1294
9.7000 3.2182 0.1127
9.7200 3.2249 0.1049
9.7400 3.2315 0.1244
9.7600 3.2382 0.1103
9.7800 3.2449 0.1136
9.8000 3.2516 0.1246
9.8200 3.2582 0.1097
9.8400 3.2648 0.1140
9.8600 3.2715 0.1194
9.8800 3.2782 0.1063
9.9000 3.2849 0.1147
9.9200 3.2916 0.1218
9.9400 3.2983 0.1089
9.9600 3.3050 0.1142
9.9800 3.3117 0.1117
10.0000 3.3182 0.1180
10.0200 3.3248 0.1182
10.0400 3.3315 0.1102
10.0600 3.3382 0.1192
10.0800 3.3449 0.1166
10.1000 3.3516 0.1047
10.1200 3.3583 0.1239
10.1400 3.3649 0.1091
10.1600 3.3716 0.1121
10.1800 3.3782 0.1243
10.2000 3.3848 0.1085
10.2200 3.3915 0.1129
10.2400 3.3982 0.1293
10.2600 3.4049 0.1017
10.2800 3.4115 0.1170
10.3000 3.4182 0.1298
10.3200 3.4249 0.1004
10.3400 3.4316 0.1172
10.3600 3.4382 0.1254
10.3800 3.4448 0.0992
10.4000 3.4514 0.1198
10.4200 3.4581 0.1243
10.4400 3.4649 0.0993
10.4600 3.4715 0.1248
10.4800 3.4782 0.1236
10.5000 3.4849 0.0979
10.5200 3.4916 0.1225
10.5400 3.4982 0.1181
10.5600 3.5048 0.1020
10.5800 3.5115 0.1237
10.6000 3.5182 0.1105
10.6200 3.5249 0.1050
10.6400 3.5316 0.1193
10.6600 3.5383 0.1099
10.6800 3.5449 0.1040
10.7000 3.5516 0.1211
10.7200 3.5583 0.1105
10.7400 3.5649 0.1069
10.7600 3.5715 0.1141
10.7800 3.5782 0.1103
10.8000 3.5849 0.1103
10.8200 3.5916 0.1115
10.8400 3.5983 0.1118
10.8600 3.6050 0.1154
10.8800 3.6116 0.1070
10.9000 3.6182 0.1067
10.9200 3.6248 0.1173
10.9400 3.6314 0.1083
10.9600 3.6381 0.1121
10.9800 3.6449 0.1092
11.0000 3.6516 0.1021
11.0200 3.6582 0.1163
11.0400 3.6649 0.1120
11.0600 3.6716 0.1037
11.0800 3.6782 0.1193
11.1000 3.6848 0.1079
11.1200 3.6914 0.1023
11.1400 3.6982 0.1177
11.1600 3.7049 0.1094
11.1800 3.7115 0.1014
11.2000 3.7182 0.1192
11.2200 3.7249 0.1047
11.2400 3.7316 0.1070
11.2600 3.7382 0.1153
11.2800 3.7449 0.1076
11.3000 3.7515 0.1096
11.3200 3.7582 0.1154
11.3400 3.7649 0.1033
11.3600 3.7716 0.1117
11.3800 3.7783 0.1108
11.4000 3.7850 0.1021
11.4200 3.7916 0.1137
11.4400 3.7983 0.1099
11.4600 3.8048 0.1058
11.4800 3.8115 0.1088
11.5000 3.8182 0.1096
11.5200 3.8249 0.1021
11.5400 3.8316 0.1085
11.5600 3.8383 0.1064
11.5800 3.8450 0.1010
11.6000 3.8516 0.1080
11.6200 3.8582 0.1120
11.6400 3.8648 0.1020
11.6600 3.8715 0.1099
11.6800 3.8782 0.1027
11.7000 3.8849 0.1022
11.7200 3.8916 0.1065
11.7400 3.8982 0.1105
11.7600 3.9049 0.0975
11.7800 3.9116 0.1032
11.8000 3.9182 0.1113
11.8200 3.9248 0.1014
11.8400 3.9314 0.1030
11.8600 3.9381 0.1086
11.8800 3.9448 0.0982
11.9000 3.9515 0.1003
11.9200 3.9582 0.1072
11.9400 3.9649 0.1023
11.9600 3.9716 0.0995
11.9800 3.9782 0.1084
12.0000 3.9848 0.1017
12.0200 3.9915 0.0948
12.0400 3.9982 0.1118
12.0600 4.0049 0.1012
12.0800 4.0116 0.0933
12.1000 4.0183 0.1050
12.1200 4.0250 0.1034
12.1400 4.0316 0.0934
12.1600 4.0383 0.1043
12.1800 4.0449 0.1046
12.2000 4.0515 0.0932
12.2200 4.0582 0.1032
12.2400 4.0649 0.1012
12.2600 4.0716 0.0957
12.2800 4.0782 0.1093
12.3000 4.0849 0.0997
12.3200 4.0916 0.0959
12.3400 4.0982 0.0989
12.3600 4.1049 0.0985
12.3800 4.1115 0.1021
12.4000 4.1181 0.0968
12.4200 4.1248 0.0981
12.4400 4.1315 0.1030
12.4600 4.1382 0.0926
12.4800 4.1449 0.1000
12.5000 4.1516 0.1049
12.5200 4.1582 0.0939
12.5400 4.1648 0.0990
12.5600 4.1715 0.1024
12.5800 4.1781 0.0944
12.6000 4.1848 0.1012
12.6200 4.1915 0.0993
12.6400 4.1982 0.0910
12.6600 4.2049 0.1010
12.6800 4.2116 0.0945
12.7000 4.2182 0.0988
12.7200 4.2248 0.0980
12.7400 4.2315 0.0927
12.7600 4.2382 0.0943
12.7800 4.2449 0.1023
12.8000 4.2516 0.0889
12.8200 4.2583 0.0998
12.8400 4.2649 0.1051
12.8600 4.2716 0.0840
12.8800 4.2783 0.1006
12.9000 4.2849 0.1088
12.9200 4.2915 0.0851
12.9400 4.2982 0.0992
12.9600 4.3049 0.1034
12.9800 4.3116 0.0870
13.0000 4.3183 0.1034
13.0200 4.3250 0.1015
13.0400 4.3316 0.0873
13.0600 4.3383 0.0990
13.0800 4.3449 0.1034
13.1000 4.3515 0.0857
13.1200 4.3581 0.1040
13.1400 4.3648 0.1029
13.1600 4.3715 0.0903
13.1800 4.3782 0.0998
13.2000 4.3849 0.1008
13.2200 4.3916 0.0917
13.2400 4.3982 0.0969
13.2600 4.4049 0.0999
13.2800 4.4115 0.0962
13.3000 4.4181 0.0967
13.3200 4.4248 0.1031
13.3400 4.4315 0.0875
13.3600 4.4382 0.0925
13.3800 4.4449 0.1028
13.4000 4.4516 0.0938
13.4200 4.4582 0.0902
13.4400 4.4649 0.1080
13.4600 4.4715 0.0976
13.4800 4.4781 0.0872
13.5000 4.4849 0.1045
13.5200 4.4916 0.0919
13.5400 4.4983 0.0889
13.5600 4.5049 0.1093
13.5800 4.5116 0.0911
13.6000 4.5183 0.0892
13.6200 4.5249 0.1114
13.6400 4.5315 0.0843
13.6600 4.5381 0.0951
13.6800 4.5449 0.1115
13.7000 4.5516 0.0855
13.7200 4.5583 0.0915
13.7400 4.5649 0.1118
13.7600 4.5716 0.0829
13.7800 4.5782 0.1003
13.8000 4.5849 0.1078
13.8200 4.5915 0.0824
13.8400 4.5982 0.1019
13.8600 4.6048 0.1083
13.8800 4.6115 0.0845
13.9000 4.6182 0.1038
13.9200 4.6249 0.1034
13.9400 4.6316 0.0863
13.9600 4.6382 0.1050
13.9800 4.6448 0.1021
14.0000 4.6514 0.0923
14.0200 4.6581 0.1085
14.0400 4.6648 0.0985
14.0600 4.6715 0.0921
14.0800 4.6782 0.1061
14.1000 4.6849 0.1014
14.1200 4.6916 0.0981
14.1400 4.6982 0.0975
14.1600 4.7048 0.0953
14.1800 4.7114 0.0997
14.2000 4.7181 0.1053
14.2200 4.7249 0.0887
14.2400 4.7316 0.0996
14.2600 4.7383 0.0985
14.2800 4.7449 0.0944
14.3000 4.7516 0.1025
14.3200 4.7583 0.0938
14.3400 4.7649 0.0924
14.3600 4.7716 0.0993
14.3800 4.7782 0.0955
14.4000 4.7849 0.0952
14.4200 4.7916 0.0980
14.4400 4.7983 0.0927
14.4600 4.8049 0.0892
14.4800 4.8116 0.1024
14.5000 4.8183 0.0906
14.5200 4.8249 0.0927
14.5400 4.8315 0.0981
14.5600 4.8381 0.0884
14.5800 4.8448 0.0957
14.6000 4.8515 0.0917
14.6200 4.8582 0.0936
14.6400 4.8649 0.0936
14.6600 4.8716 0.0935
14.6800 4.8782 0.0881
14.7000 4.8848 0.0912
14.7200 4.8914 0.0942
14.7400 4.8981 0.0902
14.7600 4.9049 0.0938
14.7800 4.9116 0.0890
14.8000 4.9183 0.0929
14.8200 4.9249 0.0943
14.8400 4.9316 0.0873
14.8600 4.9382 0.0947
14.8800 4.9449 0.0881
14.9000 4.9515 0.0932
14.9200 4.9582 0.0930
14.9400 4.9649 0.0876
14.9600 4.9716 0.0942
14.9800 4.9783 0.0909
15.0000 4.9849 0.0903
15.0200 4.9916 0.0911
15.0400 4.9983 0.0940
15.0600 5.0049 0.0901
15.0800 5.0115 0.0927
15.1000 5.0181 0.0933
15.1200 5.0248 0.0895
15.1400 5.0316 0.0910
15.1600 5.0383 0.0942
15.1800 5.0449 0.0881
15.2000 5.0516 0.0899
15.2200 5.0582 0.0881
15.2400 5.0649 0.0977
15.2600 5.0715 0.0894
15.2800 5.0781 0.0930
15.3000 5.0848 0.0948
15.3200 5.0916 0.0866
15.3400 5.0982 0.0890
15.3600 5.1049 0.0979
15.3800 5.1116 0.0901
15.4000 5.1182 0.0886
15.4200 5.1249 0.0922
15.4400 5.1315 0.0922
15.4600 5.1381 0.0893
15.4800 5.1448 0.0939
15.5000 5.1515 0.0880
15.5200 5.1582 0.0922
15.5400 5.1649 0.0922
15.5600 5.1716 0.0880
15.5800 5.1783 0.0966
15.6000 5.1849 0.0853
15.6200 5.1915 0.0925
15.6400 5.1981 0.0963
15.6600 5.2048 0.0871
15.6800 5.2116 0.0830
15.7000 5.2183 0.0966
15.7200 5.2249 0.0867
15.7400 5.2316 0.0892
15.7600 5.2383 0.0943
15.7800 5.2449 0.0863
15.8000 5.2515 0.0896
15.8200 5.2582 0.1008
15.8400 5.2649 0.0870
15.8600 5.2716 0.0894
15.8800 5.2783 0.0937
15.9000 5.2849 0.0870
15.9200 5.2916 0.0909
15.9400 5.2983 0.0919
15.9600 5.3049 0.0829
15.9800 5.3115 0.0913
16.0000 5.3181 0.0865
16.0200 5.3248 0.0875
16.0400 5.3315 0.0902
16.0600 5.3382 0.0835
16.0800 5.3449 0.0845
16.1000 5.3516 0.0892
16.1200 5.3583 0.0846
16.1400 5.3649 0.0872
16.1600 5.3714 0.0911
16.1800 5.3781 0.0820
16.2000 5.3848 0.0893
16.2200 5.3915 0.0933
16.2400 5.3982 0.0843
16.2600 5.4049 0.0824
16.2800 5.4115 0.0909
16.3000 5.4182 0.0804
16.3200 5.4249 0.0819
16.3400 5.4315 0.0932
16.3600 5.4381 0.0865
16.3800 5.4448 0.0785
16.4000 5.4516 0.0939
16.4200 5.4583 0.0799
16.4400 5.4649 0.0822
16.4600 5.4716 0.0928
16.4800 5.4783 0.0804
16.5000 5.4850 0.0747
16.5200 5.4916 0.0924
16.5400 5.4982 0.0834
16.5600 5.5048 0.0783
16.5800 5.5115 0.0934
16.6000 5.5182 0.0814
16.6200 5.5249 0.0813
16.6400 5.5316 0.0961
16.6600 5.5383 0.0804
16.6800 5.5449 0.0779
16.7000 5.5515 0.0960
16.7200 5.5581 0.0781
16.7400 5.5648 0.0804
16.7600 5.5716 0.0932
16.7800 5.5782 0.0790
16.8000 5.5849 0.0811
16.8200 5.5916 0.0931
16.8400 5.5982 0.0768
16.8600 5.6049 0.0867
16.8800 5.6115 0.0922
16.9000 5.6181 0.0784
16.9200 5.6248 0.0846
16.9400 5.6315 0.0918
16.9600 5.6382 0.0750
16.9800 5.6449 0.0869
17.0000 5.6515 0.0900
17.0200 5.6582 0.0781
17.0400 5.6649 0.0816
17.0600 5.6715 0.0892
17.0800 5.6782 0.0848
17.1000 5.6848 0.0811
17.1200 5.6915 0.0890
17.1400 5.6982 0.0803
17.1600 5.7049 0.0849
17.1800 5.7116 0.0893
17.2000 5.7183 0.0828
17.2200 5.7249 0.0776
17.2400 5.7315 0.0879
17.2600 5.7381 0.0857
17.2800 5.7448 0.0803
17.3000 5.7515 0.0873
17.3200 5.7583 0.0843
17.3400 5.7649 0.0799
17.3600 5.7716 0.0864
17.3800 5.7783 0.0815
17.4000 5.7849 0.0877
17.4200 5.7915 0.0873
17.4400 5.7982 0.0849
17.4600 5.8048 0.0789
17.4800 5.8115 0.0904
17.5000 5.8182 0.0856
17.5200 5.8249 0.0789
17.5400 5.8315 0.0933
17.5600 5.8382 0.0834
17.5800 5.8449 0.0780
17.6000 5.8515 0.0921
17.6200 5.8581 0.0845
17.6400 5.8648 0.0830
17.6600 5.8715 0.0912
17.6800 5.8782 0.0820
17.7000 5.8849 0.0826
17.7200 5.8916 0.0875
17.7400 5.8983 0.0861
17.7600 5.9049 0.0792
17.7800 5.9115 0.0898
17.8000 5.9182 0.0777
17.8200 5.9249 0.0861
17.8400 5.9316 0.0837
17.8600 5.9383 0.0750
17.8800 5.9450 0.0877
17.9000 5.9516 0.0815
17.9200 5.9583 0.0822
17.9400 5.9649 0.0861
17.9600 5.9715 0.0777
17.9800 5.9782 0.0827
18.0000 5.9848 0.0820
18.0200 5.9915 0.0790
18.0400 5.9982 0.0827
18.0600 6.0049 0.0772
18.0800 6.0116 0.0760
18.1000 6.0183 0.0874
18.1200 6.0249 0.0786
18.1400 6.0315 0.0729
18.1600 6.0381 0.0899
18.1800 6.0448 0.0737
18.2000 6.0515 0.0762
18.2200 6.0582 0.0874
18.2400 6.0649 0.0707
18.2600 6.0716 0.0774
18.2800 6.0783 0.0846
18.3000 6.0849 0.0675
18.3200 6.0915 0.0843
18.3400 6.0981 0.0815
18.3600 6.1048 0.0701
18.3800 6.1115 0.0799
18.4000 6.1182 0.0775
18.4200 6.1249 0.0650
18.4400 6.1315 0.0881
18.4600 6.1382 0.0697
18.4800 6.1449 0.0648
18.5000 6.1515 0.0854
18.5200 6.1582 0.0699
18.5400 6.1648 0.0687
18.5600 6.1715 0.0823
18.5800 6.1782 0.0690
18.6000 6.1849 0.0723
18.6200 6.1916 0.0747
18.6400 6.1983 0.0666
18.6600 6.2050 0.0749
18.6800 6.2115 0.0696
18.7000 6.2182 0.0685
18.7200 6.2248 0.0762
18.7400 6.2315 0.0727
18.7600 6.2383 0.0673
18.7800 6.2449 0.0793
18.8000 6.2516 0.0627
18.8200 6.2583 0.0705
18.8400 6.2649 0.0787
18.8600 6.2715 0.0671
18.8800 6.2781 0.0661
18.9000 6.2848 0.0783
18.9200 6.2915 0.0637
18.9400 6.2982 0.0736
18.9600 6.3049 0.0734
18.9800 6.3115 0.0631
19.0000 6.3182 0.0737
19.0200 6.3249 0.0742
19.0400 6.3315 0.0563
19.0600 6.3381 0.0767
19.0800 6.3448 0.0768
19.1000 6.3515 0.0559
19.1200 6.3582 0.0729
19.1400 6.3649 0.0716
19.1600 6.3716 0.0620
19.1800 6.3783 0.0710
19.2000 6.3849 0.0690
19.2200 6.3916 0.0610
19.2400 6.3982 0.0738
19.2600 6.4048 0.0661
19.2800 6.4115 0.0621
19.3000 6.4183 0.0690
19.3200 6.4249 0.0712
19.3400 6.4316 0.0615
19.3600 6.4383 0.0755
19.3800 6.4449 0.0673
19.4000 6.4515 0.0659
19.4200 6.4582 0.0719
19.4400 6.4648 0.0692
19.4600 6.4715 0.0632
19.4800 6.4782 0.0711
19.5000 6.4849 0.0694
19.5200 6.4916 0.0596
19.5400 6.4983 0.0669
19.5600 6.5049 0.0734
19.5800 6.5116 0.0577
19.6000 6.5182 0.0708
19.6200 6.5248 0.0730
19.6400 6.5315 0.0585
19.6600 6.5382 0.0654
19.6800 6.5449 0.0715
19.7000 6.5516 0.0599
19.7200 6.5583 0.0689
19.7400 6.5649 0.0675
19.7600 6.5715 0.0560
19.7800 6.5781 0.0799
19.8000 6.5848 0.0720
19.8200 6.5915 0.0603
19.8400 6.5982 0.0705
19.8600 6.6049 0.0680
19.8800 6.6116 0.0629
19.9000 6.6182 0.0694
19.9200 6.6249 0.0692
19.9400 6.6315 0.0678
19.9600 6.6381 0.0660
19.9800 6.6448 0.0683
20.0000 6.6515 0.0667
20.0200 6.6582 0.0702
20.0400 6.6649 0.0674
20.0600 6.6716 0.0632
20.0800 6.6783 0.0648
20.1000 6.6849 0.0724
20.1200 6.6916 0.0641
20.1400 6.6982 0.0594
20.1600 6.7048 0.0766
20.1800 6.7115 0.0672
20.2000 6.7182 0.0601
20.2200 6.7249 0.0734
20.2400 6.7316 0.0629
20.2600 6.7383 0.0595
20.2800 6.7450 0.0761
20.3000 6.7516 0.0573
20.3200 6.7582 0.0669
20.3400 6.7648 0.0731
20.3600 6.7715 0.0555
20.3800 6.7782 0.0660
20.4000 6.7849 0.0804
20.4200 6.7916 0.0527
20.4400 6.7983 0.0717
20.4600 6.8049 0.0749
20.4800 6.8115 0.0556
20.5000 6.8181 0.0714
20.5200 6.8248 0.0752
20.5400 6.8315 0.0555
20.5600 6.8382 0.0762
20.5800 6.8449 0.0737
20.6000 6.8515 0.0566
20.6200 6.8582 0.0711
20.6400 6.8649 0.0738
20.6600 6.8716 0.0594
20.6800 6.8782 0.0704
20.7000 6.8848 0.0716
20.7200 6.8915 0.0619
20.7400 6.8982 0.0749
20.7600 6.9049 0.0753
20.7800 6.9116 0.0685
20.8000 6.9183 0.0720
20.8200 6.9250 0.0733
20.8400 6.9316 0.0665
20.8600 6.9382 0.0692
20.8800 6.9448 0.0789
20.9000 6.9515 0.0674
20.9200 6.9582 0.0634
20.9400 6.9649 0.0776
20.9600 6.9716 0.0681
20.9800 6.9783 0.0715
21.0000 6.9849 0.0741
21.0200 6.9915 0.0670
21.0400 6.9982 0.0667
21.0600 7.0048 0.0809
21.0800 7.0115 0.0673
21.1000 7.0182 0.0657
21.1200 7.0249 0.0770
21.1400 7.0316 0.0675
21.1600 7.0382 0.0731
21.1800 7.0449 0.0754
21.2000 7.0516 0.0662
21.2200 7.0582 0.0671
21.2400 7.0648 0.0810
21.2600 7.0715 0.0680
21.2800 7.0782 0.0665
21.3000 7.0849 0.0826
21.3200 7.0916 0.0675
21.3400 7.0983 0.0670
21.3600 7.1049 0.0834
21.3800 7.1116 0.0638
21.4000 7.1182 0.0657
21.4200 7.1248 0.0823
21.4400 7.1315 0.0662
21.4600 7.1382 0.0678
21.4800 7.1449 0.0853
21.5000 7.1516 0.0563
21.5200 7.1583 0.0679
21.5400 7.1649 0.0873
21.5600 7.1716 0.0561
21.5800 7.1782 0.0645
21.6000 7.1848 0.0859
21.6200 7.1915 0.0571
21.6400 7.1982 0.0680
21.6600 7.2049 0.0809
21.6800 7.2116 0.0621
21.7000 7.2183 0.0683
21.7200 7.2250 0.0745
21.7400 7.2316 0.0595
21.7600 7.2382 0.0723
21.7800 7.2448 0.0767
21.8000 7.2515 0.0542
21.8200 7.2582 0.0720
21.8400 7.2649 0.0779
21.8600 7.2716 0.0600
21.8800 7.2783 0.0658
21.9000 7.2849 0.0745
21.9200 7.2916 0.0606
21.9400 7.2981 0.0649
21.9600 7.3048 0.0705
21.9800 7.3114 0.0642
22.0000 7.3181 0.0608
22.0200 7.3249 0.0707
22.0400 7.3315 0.0618
22.0600 7.3382 0.0617
22.0800 7.3449 0.0638
22.1000 7.3516 0.0648
22.1200 7.3582 0.0594
22.1400 7.3648 0.0673
22.1600 7.3715 0.0648
22.1800 7.3782 0.0551
22.2000 7.3849 0.0653
22.2200 7.3916 0.0655
22.2400 7.3983 0.0553
22.2600 7.4050 0.0698
22.2800 7.4116 0.0591
22.3000 7.4182 0.0583
22.3200 7.4248 0.0698
22.3400 7.4315 0.0553
22.3600 7.4382 0.0598
22.3800 7.4449 0.0642
22.4000 7.4516 0.0577
22.4200 7.4583 0.0578
22.4400 7.4650 0.0642
22.4600 7.4716 0.0571
22.4800 7.4782 0.0614
22.5000 7.4848 0.0611
22.5200 7.4915 0.0591
22.5400 7.4982 0.0628
22.5600 7.5049 0.0599
22.5800 7.5116 0.0612
22.6000 7.5182 0.0616
22.6200 7.5249 0.0532
22.6400 7.5316 0.0627
22.6600 7.5382 0.0597
22.6800 7.5448 0.0585
22.7000 7.5515 0.0683
22.7200 7.5582 0.0594
22.7400 7.5649 0.0564
22.7600 7.5715 0.0671
22.7800 7.5782 0.0615
22.8000 7.5849 0.0581
22.8200 7.5915 0.0638
22.8400 7.5982 0.0554
22.8600 7.6048 0.0583
22.8800 7.6115 0.0675
22.9000 7.6182 0.0577
22.9200 7.6249 0.0532
22.9400 7.6316 0.0653
22.9600 7.6383 0.0588
22.9800 7.6450 0.0546
23.0000 7.6516 0.0653
23.0200 7.6582 0.0612
23.0400 7.6648 0.0478
23.0600 7.6715 0.0678
23.0800 7.6782 0.0637
23.1000 7.6849 0.0505
23.1200 7.6916 0.0591
23.1400 7.6983 0.0612
23.1600 7.7049 0.0531
23.1800 7.7116 0.0609
23.2000 7.7182 0.0559
23.2200 7.7248 0.0525
23.2400 7.7315 0.0646
23.2600 7.7381 0.0594
23.2800 7.7449 0.0478
23.3000 7.7515 0.0646
23.3200 7.7582 0.0602
23.3400 7.7649 0.0427
23.3600 7.7716 0.0631
23.3800 7.7782 0.0584
23.4000 7.7848 0.0460
23.4200 7.7914 0.0594
23.4400 7.7982 0.0581
23.4600 7.8049 0.0465
23.4800 7.8116 0.0590
23.5000 7.8182 0.0516
23.5200 7.8249 0.0456
23.5400 7.8316 0.0616
23.5600 7.8382 0.0524
23.5800 7.8448 0.0470
23.6000 7.8515 0.0661
23.6200 7.8582 0.0448
23.6400 7.8649 0.0473
23.6600 7.8716 0.0658
23.6800 7.8782 0.0476
23.7000 7.8849 0.0455
23.7200 7.8916 0.0612
23.7400 7.8982 0.0457
23.7600 7.9048 0.0467
23.7800 7.9115 0.0596
23.8000 7.9182 0.0505
23.8200 7.9249 0.0492
23.8400 7.9316 0.0546
23.8600 7.9383 0.0461
23.8800 7.9450 0.0476
23.9000 7.9516 0.0557
23.9200 7.9582 0.0451
23.9400 7.9648 0.0465
23.9600 7.9715 0.0545
23.9800 7.9782 0.0527
24.0000 7.9849 0.0415
24.0200 7.9916 0.0548
24.0400 7.9983 0.0544
24.0600 8.0049 0.0440
24.0800 8.0116 0.0513
24.1000 8.0182 0.0551
24.1200 8.0248 0.0458
24.1400 8.0314 0.0565
24.1600 8.0381 0.0532
24.1800 8.0448 0.0417
24.2000 8.0515 0.0521
24.2200 8.0582 0.0583
24.2400 8.0649 0.0415
24.2600 8.0715 0.0573
24.2800 8.0782 0.0555
24.3000 8.0848 0.0391
24.3200 8.0915 0.0603
24.3400 8.0982 0.0559
24.3600 8.1049 0.0418
24.3800 8.1116 0.0563
24.4000 8.1183 0.0551
24.4200 8.1250 0.0422
24.4400 8.1317 0.0600
24.4600 8.1383 0.0565
24.4800 8.1448 0.0440
24.5000 8.1515 0.0627
24.5200 8.1582 0.0576
24.5400 8.1649 0.0375
24.5600 8.1716 0.0647
24.5800 8.1783 0.0504
24.6000 8.1849 0.0490
24.6200 8.1916 0.0620
24.6400 8.1982 0.0503
24.6600 8.2048 0.0492
24.6800 8.2115 0.0631
24.7000 8.2182 0.0540
24.7200 8.2249 0.0518
24.7400 8.2315 0.0567
24.7600 8.2382 0.0545
24.7800 8.2449 0.0509
24.8000 8.2516 0.0604
24.8200 8.2582 0.0513
24.8400 8.2648 0.0535
24.8600 8.2714 0.0563
24.8800 8.2781 0.0550
24.9000 8.2848 0.0542
24.9200 8.2915 0.0525
24.9400 8.2982 0.0586
24.9600 8.3049 0.0535
24.9800 8.3116 0.0482
25.0000 8.3182 0.0595
25.0200 8.3248 0.0559
25.0400 8.3315 0.0498
25.0600 8.3382 0.0609
25.0800 8.3449 0.0510
25.1000 8.3516 0.0524
25.1200 8.3583 0.0641
25.1400 8.3649 0.0475
25.1600 8.3716 0.0518
25.1800 8.3783 0.0647
25.2000 8.3849 0.0454
25.2200 8.3916 0.0600
25.2400 8.3982 0.0626
25.2600 8.4049 0.0432
25.2800 8.4116 0.0580
25.3000 8.4183 0.0592
25.3200 8.4249 0.0448
25.3400 8.4316 0.0604
25.3600 8.4383 0.0545
25.3800 8.4448 0.0446
25.4000 8.4514 0.0640
25.4200 8.4581 0.0569
25.4400 8.4648 0.0412
25.4600 8.4715 0.0638
25.4800 8.4782 0.0552
25.5000 8.4849 0.0429
25.5200 8.4916 0.0658
25.5400 8.4982 0.0470
25.5600 8.5048 0.0540
25.5800 8.5114 0.0607
25.6000 8.5181 0.0486
25.6200 8.5248 0.0552
25.6400 8.5316 0.0595
25.6600 8.5382 0.0452
25.6800 8.5449 0.0592
25.7000 8.5516 0.0579
25.7200 8.5583 0.0478
25.7400 8.5649 0.0581
25.7600 8.5715 0.0509
25.7800 8.5782 0.0497
25.8000 8.5849 0.0640
25.8200 8.5916 0.0423
25.8400 8.5983 0.0563
25.8600 8.6050 0.0638
25.8800 8.6116 0.0393
25.9000 8.6183 0.0564
25.9200 8.6249 0.0592
25.9400 8.6315 0.0432
25.9600 8.6382 0.0596
25.9800 8.6449 0.0581
26.0000 8.6516 0.0371
26.0200 8.6583 0.0612
26.0400 8.6650 0.0616
26.0600 8.6716 0.0369
26.0800 8.6782 0.0572
26.1000 8.6849 0.0650
26.1200 8.6915 0.0383
26.1400 8.6982 0.0592
26.1600 8.7049 0.0559
26.1800 8.7116 0.0428
26.2000 8.7182 0.0614
26.2200 8.7249 0.0514
26.2400 8.7316 0.0391
26.2600 8.7382 0.0633
26.2800 8.7448 0.0526
26.3000 8.7514 0.0407
26.3200 8.7581 0.0613
26.3400 8.7648 0.0516
26.3600 8.7715 0.0407
26.3800 8.7782 0.0611
26.4000 8.7849 0.0505
26.4200 8.7916 0.0384
26.4400 8.7982 0.0562
26.4600 8.8049 0.0499
26.4800 8.8115 0.0402
26.5000 8.8182 0.0541
26.5200 8.8249 0.0472
26.5400 8.8316 0.0420
26.5600 8.8383 0.0551
26.5800 8.8450 0.0494
26.6000 8.8516 0.0429
26.6200 8.8583 0.0476
26.6400 8.8649 0.0495
26.6600 8.8715 0.0443
26.6800 8.8782 0.0523
26.7000 8.8849 0.0460
26.7200 8.8916 0.0398
26.7400 8.8983 0.0490
26.7600 8.9049 0.0480
26.7800 8.9116 0.0426
26.8000 8.9182 0.0513
26.8200 8.9248 0.0458
26.8400 8.9314 0.0407
26.8600 8.9381 0.0457
26.8800 8.9448 0.0515
26.9000 8.9515 0.0415
26.9200 8.9582 0.0425
26.9400 8.9649 0.0447
26.9600 8.9716 0.0411
26.9800 8.9782 0.0477
27.0000 8.9848 0.0458
27.0200 8.9915 0.0440
27.0400 8.9981 0.0465
27.0600 9.0048 0.0452
27.0800 9.0116 0.0404
27.1000 9.0182 0.0414
27.1200 9.0249 0.0452
27.1400 9.0316 0.0423
27.1600 9.0382 0.0382
27.1800 9.0448 0.0491
27.2000 9.0515 0.0422
27.2200 9.0581 0.0390
27.2400 9.0649 0.0465
27.2600 9.0716 0.0440
27.2800 9.0783 0.0380
27.3000 9.0849 0.0513
27.3200 9.0916 0.0384
27.3400 9.0983 0.0383
27.3600 9.1049 0.0518
27.3800 9.1115 0.0404
27.4000 9.1182 0.0369
27.4200 9.1249 0.0518
27.4400 9.1316 0.0391
27.4600 9.1383 0.0380
27.4800 9.1450 0.0514
27.5000 9.1516 0.0352
27.5200 9.1583 0.0365
27.5400 9.1649 0.0495
27.5600 9.1715 0.0349
27.5800 9.1781 0.0395
27.6000 9.1848 0.0521
27.6200 9.1915 0.0326
27.6400 9.1982 0.0393
27.6600 9.2049 0.0520
27.6800 9.2116 0.0364
27.7000 9.2182 0.0344
27.7200 9.2249 0.0485
27.7400 9.2315 0.0363
27.7600 9.2381 0.0398
27.7800 9.2448 0.0473
27.8000 9.2515 0.0320
27.8200 9.2582 0.0350
27.8400 9.2649 0.0434
27.8600 9.2716 0.0310
27.8800 9.2782 0.0354
27.9000 9.2849 0.0437
27.9200 9.2915 0.0341
27.9400 9.2982 0.0338
27.9600 9.3049 0.0447
27.9800 9.3115 0.0366
28.0000 9.3182 0.0351
28.0200 9.3249 0.0397
28.0400 9.3316 0.0327
28.0600 9.3383 0.0355
28.0800 9.3449 0.0393
28.1000 9.3515 0.0394
28.1200 9.3581 0.0327
28.1400 9.3649 0.0393
28.1600 9.3716 0.0385
28.1800 9.3783 0.0334
28.2000 9.3849 0.0405
28.2200 9.3916 0.0406
28.2400 9.3983 0.0264
28.2600 9.4049 0.0407
28.2800 9.4115 0.0380
28.3000 9.4181 0.0364
28.3200 9.4249 0.0423
28.3400 9.4316 0.0338
28.3600 9.4382 0.0258
28.3800 9.4449 0.0444
28.4000 9.4516 0.0368
28.4200 9.4583 0.0257
28.4400 9.4649 0.0405
28.4600 9.4714 0.0377
28.4800 9.4781 0.0268
28.5000 9.4848 0.0433
28.5200 9.4915 0.0342
28.5400 9.4982 0.0276
28.5600 9.5049 0.0455
28.5800 9.5116 0.0328
28.6000 9.5182 0.0253
28.6200 9.5248 0.0455
28.6400 9.5314 0.0371
28.6600 9.5381 0.0318
28.6800 9.5448 0.0410
28.7000 9.5516 0.0335
28.7200 9.5583 0.0315
28.7400 9.5649 0.0342
28.7600 9.5716 0.0374
28.7800 9.5783 0.0282
28.8000 9.5849 0.0367
28.8200 9.5915 0.0355
28.8400 9.5982 0.0316
28.8600 9.6049 0.0339
28.8800 9.6116 0.0398
28.9000 9.6183 0.0298
28.9200 9.6249 0.0331
28.9400 9.6316 0.0415
28.9600 9.6383 0.0295
28.9800 9.6449 0.0348
29.0000 9.6515 0.0407
29.0200 9.6581 0.0286
29.0400 9.6648 0.0306
29.0600 9.6715 0.0407
29.0800 9.6782 0.0251
29.1000 9.6849 0.0323
29.1200 9.6916 0.0436
29.1400 9.6982 0.0234
29.1600 9.7048 0.0287
29.1800 9.7115 0.0498
29.2000 9.7181 0.0215
29.2200 9.7248 0.0289
29.2400 9.7316 0.0386
29.2600 9.7382 0.0222
29.2800 9.7449 0.0309
29.3000 9.7516 0.0396
29.3200 9.7582 0.0201
29.3400 9.7649 0.0326
29.3600 9.7715 0.0395
29.3800 9.7782 0.0200
29.4000 9.7849 0.0319
29.4200 9.7916 0.0393
29.4400 9.7983 0.0167
29.4600 9.8049 0.0339
29.4800 9.8116 0.0377
29.5000 9.8183 0.0199
29.5200 9.8249 0.0316
29.5400 9.8315 0.0347
29.5600 9.8381 0.0233
29.5800 9.8448 0.0375
29.6000 9.8516 0.0350
29.6200 9.8583 0.0149
29.6400 9.8649 0.0385
29.6600 9.8716 0.0395
29.6800 9.8783 0.0135
29.7000 9.8849 0.0331
29.7200 9.8915 0.0388
29.7400 9.8981 0.0122
29.7600 9.9048 0.0385
29.7800 9.9115 0.0432
29.8000 9.9182 0.0112
29.8200 9.9249 0.0329
29.8400 9.9316 0.0429
29.8600 9.9382 0.0079
29.8800 9.9449 0.0373
29.9000 9.9515 0.0472
29.9200 9.9581 0.0120
29.9400 9.9648 0.0287
29.9600 9.9715 0.0479
29.9800 9.9782 0.0166
30.0000 9.9849 0.0247
30.0200 9.9916 0.0453
30.0400 9.9983 0.0188
30.0600 10.0049 0.0172
30.0800 10.0115 0.0426
30.1000 10.0181 0.0288
30.1200 10.0248 0.0231
30.1400 10.0316 0.0402
30.1600 10.0383 0.0244
30.1800 10.0450 0.0232
30.2000 10.0516 0.0405
30.2200 10.0583 0.0286
30.2400 10.0649 0.0216
30.2600 10.0715 0.0417
30.2800 10.0781 0.0305
30.3000 10.0848 0.0211
30.3200 10.0916 0.0350
30.3400 10.0983 0.0329
30.3600 10.1049 0.0265
30.3800 10.1116 0.0410
30.4000 10.1183 0.0230
30.4200 10.1249 0.0237
30.4400 10.1315 0.0407
30.4600 10.1381 0.0291
30.4800 10.1448 0.0275
30.5000 10.1515 0.0380
30.5200 10.1582 0.0294
30.5400 10.1649 0.0250
30.5600 10.1716 0.0361
30.5800 10.1783 0.0370
30.6000 10.1849 0.0240
30.6200 10.1915 0.0334
30.6400 10.1981 0.0329
30.6600 10.2047 0.0256
30.6800 10.2115 0.0381
30.7000 10.2182 0.0298
30.7200 10.2249 0.0275
30.7400 10.2316 0.0328
30.7600 10.2382 0.0369
30.7800 10.2449 0.0231
30.8000 10.2515 0.0353
30.8200 10.2582 0.0362
30.8400 10.2648 0.0225
30.8600 10.2715 0.0340
30.8800 10.2782 0.0349
30.9000 10.2849 0.0211
30.9200 10.2916 0.0417
30.9400 10.2983 0.0282
30.9600 10.3050 0.0213
30.9800 10.3116 0.0393
31.0000 10.3182 0.0365
31.0200 10.3248 0.0196
31.0400 10.3315 0.0355
31.0600 10.3383 0.0377
31.0800 10.3449 0.0183
31.1000 10.3516 0.0327
31.1200 10.3583 0.0344
31.1400 10.3649 0.0233
31.1600 10.3715 0.0338
31.1800 10.3781 0.0337
31.2000 10.3848 0.0241
31.2200 10.3915 0.0375
31.2400 10.3983 0.0270
31.2600 10.4049 0.0230
31.2800 10.4116 0.0396
31.3000 10.4182 0.0271
31.3200 10.4249 0.0220
31.3400 10.4315 0.0428
31.3600 10.4381 0.0260
31.3800 10.4448 0.0290
31.4000 10.4515 0.0384
31.4200 10.4582 0.0289
31.4400 10.4649 0.0253
31.4600 10.4715 0.0383
31.4800 10.4782 0.0241
31.5000 10.4849 0.0273
31.5200 10.4915 0.0403
31.5400 10.4981 0.0246
31.5600 10.5048 0.0298
31.5800 10.5115 0.0396
31.6000 10.5182 0.0261
31.6200 10.5249 0.0276
31.6400 10.5316 0.0373
31.6600 10.5383 0.0225
31.6800 10.5449 0.0277
31.7000 10.5515 0.0370
31.7200 10.5581 0.0279
31.7400 10.5648 0.0330
31.7600 10.5715 0.0329
31.7800 10.5782 0.0212
31.8000 10.5849 0.0373
31.8200 10.5916 0.0297
31.8400 10.5983 0.0284
31.8600 10.6049 0.0348
31.8800 10.6116 0.0286
31.9000 10.6182 0.0298
31.9200 10.6248 0.0371
31.9400 10.6315 0.0257
31.9600 10.6382 0.0274
31.9800 10.6449 0.0405
32.0000 10.6516 0.0272
32.0200 10.6583 0.0317
32.0400 10.6649 0.0373
32.0600 10.6715 0.0222
32.0800 10.6781 0.0410
32.1000 10.6848 0.0374
32.1200 10.6915 0.0245
32.1400 10.6982 0.0380
32.1600 10.7049 0.0317
32.1800 10.7116 0.0244
32.2000 10.7182 0.0399
32.2200 10.7249 0.0357
32.2400 10.7315 0.0238
32.2600 10.7381 0.0409
32.2800 10.7448 0.0342
32.3000 10.7515 0.0316
32.3200 10.7583 0.0344
32.3400 10.7650 0.0369
32.3600 10.7716 0.0279
32.3800 10.7783 0.0325
32.4000 10.7849 0.0341
32.4200 10.7916 0.0313
32.4400 10.7982 0.0325
32.4600 10.8048 0.0357
32.4800 10.8115 0.0278
32.5000 10.8182 0.0332
32.5200 10.8249 0.0356
32.5400 10.8316 0.0288
32.5600 10.8383 0.0308
32.5800 10.8449 0.0369
32.6000 10.8516 0.0273
32.6200 10.8582 0.0307
32.6400 10.8648 0.0396
32.6600 10.8715 0.0291
32.6800 10.8782 0.0269
32.7000 10.8849 0.0383
32.7200 10.8916 0.0306
32.7400 10.8983 0.0303
32.7600 10.9049 0.0363
32.7800 10.9115 0.0257
32.8000 10.9181 0.0372
32.8200 10.9248 0.0354
32.8400 10.9315 0.0232
32.8600 10.9382 0.0292
32.8800 10.9449 0.0387
32.9000 10.9515 0.0164
32.9200 10.9582 0.0347
32.9400 10.9649 0.0363
32.9600 10.9715 0.0178
32.9800 10.9781 0.0386
33.0000 10.9848 0.0404
33.0200 10.9915 0.0165
33.0400 10.9982 0.0382
33.0600 11.0049 0.0335
33.0800 11.0116 0.0174
33.1000 11.0183 0.0332
33.1200 11.0250 0.0343
33.1400 11.0316 0.0196
33.1600 11.0382 0.0319
33.1800 11.0448 0.0284
33.2000 11.0515 0.0267
33.2200 11.0582 0.0309
33.2400 11.0649 0.0218
33.2600 11.0716 0.0305
33.2800 11.0783 0.0241
33.3000 11.0849 0.0237
33.3200 11.0915 0.0321
33.3400 11.0981 0.0281
33.3600 11.1048 0.0251
33.3800 11.1115 0.0321
33.4000 11.1182 0.0170
33.4200 11.1249 0.0271
33.4400 11.1315 0.0335
33.4600 11.1382 0.0195
33.4800 11.1449 0.0230
33.5000 11.1515 0.0292
33.5200 11.1581 0.0180
33.5400 11.1648 0.0340
33.5600 11.1715 0.0266
33.5800 11.1782 0.0149
33.6000 11.1849 0.0297
33.6200 11.1916 0.0254
33.6400 11.1983 0.0156
33.6600 11.2050 0.0317
33.6800 11.2116 0.0200
33.7000 11.2182 0.0112
33.7200 11.2248 0.0369
33.7400 11.2315 0.0210
33.7600 11.2382 0.0152
33.7800 11.2449 0.0321
33.8000 11.2516 0.0155
33.8200 11.2583 0.0179
33.8400 11.2649 0.0313
33.8600 11.2716 0.0185
33.8800 11.2782 0.0237
33.9000 11.2848 0.0286
33.9200 11.2915 0.0195
33.9400 11.2982 0.0232
33.9600 11.3049 0.0300
33.9800 11.3116 0.0125
34.0000 11.3183 0.0218
34.0200 11.3250 0.0305
34.0400 11.3316 0.0157
34.0600 11.3382 0.0201
34.0800 11.3448 0.0352
34.1000 11.3515 0.0171
34.1200 11.3582 0.0153
34.1400 11.3649 0.0343
34.1600 11.3716 0.0169
34.1800 11.3783 0.0157
34.2000 11.3849 0.0319
34.2200 11.3916 0.0167
34.2400 11.3981 0.0186
34.2600 11.4048 0.0354
34.2800 11.4115 0.0140
34.3000 11.4182 0.0196
34.3200 11.4249 0.0333
34.3400 11.4316 0.0155
34.3600 11.4382 0.0145
34.3800 11.4449 0.0341
34.4000 11.4515 0.0140
34.4200 11.4582 0.0163
34.4400 11.4648 0.0277
34.4600 11.4715 0.0189
34.4800 11.4782 0.0176
34.5000 11.4849 0.0281
34.5200 11.4916 0.0152
34.5400 11.4983 0.0186
34.5600 11.5050 0.0258
34.5800 11.5116 0.0173
34.6000 11.5182 0.0102
34.6200 11.5248 0.0292
34.6400 11.5315 0.0235
34.6600 11.5382 0.0140
34.6800 11.5449 0.0243
34.7000 11.5516 0.0241
34.7200 11.5583 0.0140
34.7400 11.5650 0.0204
34.7600 11.5716 0.0233
34.7800 11.5782 0.0145
34.8000 11.5848 0.0276
34.8200 11.5915 0.0215
34.8400 11.5982 0.0127
34.8600 11.6049 0.0283
34.8800 11.6116 0.0209
34.9000 11.6183 0.0103
34.9200 11.6249 0.0315
34.9400 11.6315 0.0150
34.9600 11.6382 0.0164
34.9800 11.6448 0.0288
35.0000 11.6515 0.0137
35.0200 11.6582 0.0125
35.0400 11.6649 0.0294
35.0600 11.6715 0.0112
35.0800 11.6782 0.0138
35.1000 11.6849 0.0308
35.1200 11.6916 0.0137
35.1400 11.6982 0.0120
35.1600 11.7048 0.0278
35.1800 11.7115 0.0143
35.2000 11.7182 0.0131
35.2200 11.7249 0.0258
35.2400 11.7316 0.0138
35.2600 11.7383 0.0176
35.2800 11.7450 0.0218
35.3000 11.7516 0.0099
35.3200 11.7582 0.0215
35.3400 11.7648 0.0261
35.3600 11.7715 0.0120
35.3800 11.7782 0.0222
35.4000 11.7849 0.0201
35.4200 11.7916 0.0146
35.4400 11.7983 0.0236
35.4600 11.8049 0.0212
35.4800 11.8116 0.0112
35.5000 11.8182 0.0241
35.5200 11.8248 0.0188
35.5400 11.8315 0.0080
35.5600 11.8382 0.0222
35.5800 11.8449 0.0207
35.6000 11.8516 0.0088
35.6200 11.8582 0.0265
35.6400 11.8649 0.0168
35.6600 11.8716 0.0075
35.6800 11.8782 0.0265
35.7000 11.8848 0.0163
35.7200 11.8914 0.0143
35.7400 11.8982 0.0274
35.7600 11.9049 0.0093
35.7800 11.9116 0.0127
35.8000 11.9183 0.0302
35.8200 11.9249 0.0084
35.8400 11.9316 0.0110
35.8600 11.9382 0.0260
35.8800 11.9448 0.0166
35.9000 11.9515 0.0131
35.9200 11.9582 0.0246
35.9400 11.9649 0.0109
35.9600 11.9716 0.0176
35.9800 11.9782 0.0221
36.0000 11.9849 0.0101
36.0200 11.9916 0.0137
36.0400 11.9982 0.0259
36.0600 12.0048 0.0127
36.0800 12.0115 0.0192
36.1000 12.0182 0.0230
36.1200 12.0249 0.0111
36.1400 12.0316 0.0189
36.1600 12.0383 0.0233
36.1800 12.0450 0.0069
36.2000 12.0516 0.0170
36.2200 12.0582 0.0205
36.2400 12.0648 0.0131
36.2600 12.0715 0.0232
36.2800 12.0782 0.0203
36.3000 12.0849 0.0114
36.3200 12.0916 0.0176
36.3400 12.0983 0.0204
36.3600 12.1049 0.0153
36.3800 12.1116 0.0214
36.4000 12.1182 0.0155
36.4200 12.1248 0.0124
36.4400 12.1314 0.0199
36.4600 12.1382 0.0202
36.4800 12.1449 0.0140
36.5000 12.1515 0.0170
36.5200 12.1582 0.0201
36.5400 12.1649 0.0235
36.5600 12.1716 0.0199
36.5800 12.1782 0.0189
36.6000 12.1848 0.0146
36.6200 12.1915 0.0157
36.6400 12.1982 0.0153
36.6600 12.2049 0.0178
36.6800 12.2116 0.0183
36.7000 12.2183 0.0151
36.7200 12.2250 0.0181
36.7400 12.2316 0.0200
36.7600 12.2382 0.0171
36.7800 12.2448 0.0188
36.8000 12.2515 0.0174
36.8200 12.2582 0.0135
36.8400 12.2649 0.0197
36.8600 12.2716 0.0152
36.8800 12.2783 0.0167
36.9000 12.2849 0.0176
36.9200 12.2916 0.0168
36.9400 12.2982 0.0155
36.9600 12.3048 0.0170
36.9800 12.3115 0.0144
37.0000 12.3182 0.0197
37.0200 12.3249 0.0128
37.0400 12.3316 0.0151
37.0600 12.3382 0.0164
37.0800 12.3449 0.0162
37.1000 12.3516 0.0135
37.1200 12.3582 0.0183
37.1400 12.3648 0.0129
37.1600 12.3715 0.0152
37.1800 12.3782 0.0222
37.2000 12.3849 0.0133
37.2200 12.3915 0.0164
37.2400 12.3982 0.0174
37.2600 12.4049 0.0081
37.2800 12.4116 0.0127
37.3000 12.4182 0.0215
37.3200 12.4248 0.0138
37.3400 12.4315 0.0161
37.3600 12.4382 0.0187
37.3800 12.4449 0.0076
37.4000 12.4516 0.0175
37.4200 12.4583 0.0207
37.4400 12.4649 0.0057
37.4600 12.4716 0.0180
37.4800 12.4782 0.0116
37.5000 12.4848 0.0115
37.5200 12.4915 0.0162
37.5400 12.4982 0.0187
37.5600 12.5049 0.0131
37.5800 12.5116 0.0110
37.6000 12.5183 0.0116
37.6200 12.5249 0.0099
37.6400 12.5316 0.0172
37.6600 12.5382 0.0131
37.6800 12.5448 0.0095
37.7000 12.5515 0.0201
37.7200 12.5582 0.0089
37.7400 12.5649 0.0191
37.7600 12.5715 0.0179
37.7800 12.5782 0.0086
37.8000 12.5849 0.0155
37.8200 12.5916 0.0133
37.8400 12.5982 0.0099
37.8600 12.6048 0.0149
37.8800 12.6114 0.0142
37.9000 12.6181 0.0043
37.9200 12.6249 0.0146
37.9400 12.6316 0.0165
37.9600 12.6382 0.0106
37.9800 12.6449 0.0098
38.0000 12.6516 0.0123
38.0200 12.6582 0.0130
38.0400 12.6648 0.0134
38.0600 12.6715 0.0057
38.0800 12.6782 0.0160
38.1000 12.6849 0.0082
38.1200 12.6916 0.0106
38.1400 12.6982 0.0171
38.1600 12.7049 0.0057
38.1800 12.7116 0.0052
38.2000 12.7182 0.0178
38.2200 12.7248 0.0069
38.2400 12.7315 0.0076
38.2600 12.7382 0.0162
38.2800 12.7449 -0.0001
38.3000 12.7516 0.0095
38.3200 12.7583 0.0139
38.3400 12.7649 0.0024
38.3600 12.7716 0.0093
38.3800 12.7782 0.0081
38.4000 12.7848 0.0043
38.4200 12.7915 0.0185
38.4400 12.7982 0.0049
38.4600 12.8049 0.0030
38.4800 12.8116 0.0117
38.5000 12.8183 0.0046
38.5200 12.8249 0.0021
38.5400 12.8316 0.0147
38.5600 12.8382 0.0048
38.5800 12.8448 0.0031
38.6000 12.8514 0.0157
38.6200 12.8581 0.0014
38.6400 12.8649 0.0018
38.6600 12.8715 0.0127
38.6800 12.8782 0.0011
38.7000 12.8849 0.0056
38.7200 12.8916 0.0100
38.7400 12.8982 0.0045
38.7600 12.9048 0.0049
38.7800 12.9115 0.0081
38.8000 12.9181 0.0044
38.8200 12.9249 0.0081
38.8400 12.9316 0.0022
38.8600 12.9383 0.0006
38.8800 12.9450 0.0072
38.9000 12.9516 0.0007
38.9200 12.9583 0.0022
38.9400 12.9648 0.0075
38.9600 12.9715 0.0067
38.9800 12.9782 0.0039
39.0000 12.9849 0.0041
39.0200 12.9916 0.0029
39.0400 12.9983 0.0039
39.0600 13.0050 -0.0012
39.0800 13.0116 0.0038
39.1000 13.0182 0.0047
39.1200 13.0248 -0.0034
39.1400 13.0315 0.0038
39.1600 13.0382 0.0057
39.1800 13.0448 -0.0038
39.2000 13.0515 0.0096
39.2200 13.0582 0.0032
39.2400 13.0649 -0.0058
39.2600 13.0716 0.0072
39.2800 13.0782 -0.0011
39.3000 13.0848 0.0021
39.3200 13.0914 0.0125
39.3400 13.0981 0.0001
39.3600 13.1048 -0.0014
39.3800 13.1115 0.0111
39.4000 13.1182 -0.0020
39.4200 13.1249 0.0026
39.4400 13.1316 0.0092
39.4600 13.1382 -0.0032
39.4800 13.1448 -0.0005
39.5000 13.1515 0.0110
39.5200 13.1582 -0.0006
39.5400 13.1649 0.0054
39.5600 13.1716 0.0037
39.5800 13.1783 -0.0024
39.6000 13.1849 0.0018
39.6200 13.1916 0.0099
39.6400 13.1982 -0.0020
39.6600 13.2049 0.0019
39.6800 13.2115 0.0056
39.7000 13.2182 -0.0001
39.7200 13.2249 0.0019
39.7400 13.2316 0.0008
39.7600 13.2383 0.0035
39.7800 13.2450 0.0058
39.8000 13.2516 0.0010
39.8200 13.2583 -0.0013
39.8400 13.2648 0.0032
39.8600 13.2714 0.0032
39.8800 13.2781 0.0055
39.9000 13.2848 0.0011
39.9200 13.2916 0.0033
39.9400 13.2982 0.0002
39.9600 13.3049 0.0052
39.9800 13.3116 0.0005
40.0000 13.3182 0.0043
40.0200 13.3248 0.0004
40.0400 13.3314 0.0041
40.0600 13.3381 0.0058
40.0800 13.3448 0.0037
40.1000 13.3515 -0.0052
40.1200 13.3582 0.0048
40.1400 13.3649 0.0034
40.1600 13.3716 0.0025
40.1800 13.3783 0.0022
40.2000 13.3849 0.0033
40.2200 13.3915 -0.0001
40.2400 13.3982 0.0065
40.2600 13.4049 -0.0018
40.2800 13.4116 -0.0020
40.3000 13.4183 0.0050
40.3200 13.4250 -0.0006
40.3400 13.4316 -0.0002
40.3600 13.4383 -0.0013
40.3800 13.4449 0.0030
40.4000 13.4515 0.0016
40.4200 13.4581 -0.0032
40.4400 13.4649 -0.0018
40.4600 13.4716 0.0039
40.4800 13.4783 -0.0036
40.5000 13.4849 0.0016
40.5200 13.4916 0.0017
40.5400 13.4982 -0.0016
40.5600 13.5049 -0.0010
40.5800 13.5115 0.0021
40.6000 13.5182 -0.0038
40.6200 13.5249 0.0034
40.6400 13.5316 0.0013
40.6600 13.5382 -0.0045
40.6800 13.5449 0.0071
40.7000 13.5516 -0.0006
40.7200 13.5582 -0.0078
40.7400 13.5648 0.0084
40.7600 13.5714 -0.0026
40.7800 13.5781 -0.0040
40.8000 13.5848 0.0065
40.8200 13.5915 -0.0031
40.8400 13.5982 -0.0060
40.8600 13.6049 0.0051
40.8800 13.6116 0.0001
40.9000 13.6183 -0.0054
40.9200 13.6249 0.0047
40.9400 13.6315 -0.0036
40.9600 13.6382 0.0006
40.9800 13.6449 0.0045
41.0000 13.6516 -0.0028
41.0200 13.6583 0.0004
41.0400 13.6650 0.0050
41.0600 13.6716 -0.0093
41.0800 13.6783 0.0040
41.1000 13.6849 0.0093
41.1200 13.6915 -0.0058
41.1400 13.6982 0.0044
41.1600 13.7049 0.0098
41.1800 13.7116 -0.0039
41.2000 13.7182 0.0038
41.2200 13.7249 0.0105
41.2400 13.7316 -0.0054
41.2600 13.7383 -0.0003
41.2800 13.7449 0.0079
41.3000 13.7515 0.0011
41.3200 13.7581 0.0034
41.3400 13.7648 0.0076
41.3600 13.7715 -0.0011
41.3800 13.7782 0.0037
41.4000 13.7849 0.0077
41.4200 13.7916 0.0026
41.4400 13.7983 -0.0010
41.4600 13.8049 0.0039
41.4800 13.8115 0.0025
41.5000 13.8181 0.0061
41.5200 13.8248 0.0011
41.5400 13.8315 0.0038
41.5600 13.8382 0.0031
41.5800 13.8449 0.0079
41.6000 13.8516 -0.0020
41.6200 13.8582 0.0037
41.6400 13.8649 0.0044
41.6600 13.8715 -0.0016
41.6800 13.8782 0.0059
41.7000 13.8849 0.0024
41.7200 13.8916 -0.0018
41.7400 13.8983 0.0039
41.7600 13.9049 0.0044
41.7800 13.9116 0.0019
41.8000 13.9183 0.0018
41.8200 13.9249 0.0046
41.8400 13.9315 -0.0051
41.8600 13.9382 0.0032
41.8800 13.9449 0.0047
41.9000 13.9516 -0.0012
41.9200 13.9583 -0.0010
41.9400 13.9650 0.0023
41.9600 13.9716 0.0066
41.9800 13.9783 -0.0050
42.0000 13.9849 0.0029
42.0200 13.9915 0.0033
42.0400 13.9981 -0.0025
42.0600 14.0048 0.0016
42.0800 14.0115 0.0015
42.1000 14.0182 -0.0041
42.1200 14.0249 0.0028
42.1400 14.0316 0.0010
42.1600 14.0382 -0.0028
42.1800 14.0449 0.0011
42.2000 14.0515 0.0030
42.2200 14.0581 -0.0076
42.2400 14.0648 0.0043
42.2600 14.0715 -0.0059
42.2800 14.0782 -0.0047
42.3000 14.0849 0.0014
42.3200 14.0915 -0.0070
42.3400 14.0982 -0.0026
42.3600 14.1049 0.0009
42.3800 14.1115 -0.0047
42.4000 14.1181 -0.0027
42.4200 14.1248 0.0052
42.4400 14.1316 -0.0071
42.4600 14.1383 -0.0008
42.4800 14.1449 0.0005
42.5000 14.1516 -0.0028
42.5200 14.1583 0.0012
42.5400 14.1649 -0.0004
42.5600 14.1715 -0.0071
42.5800 14.1781 0.0037
42.6000 14.1848 -0.0016
42.6200 14.1916 -0.0043
42.6400 14.1983 0.0000
42.6600 14.2049 0.0005
42.6800 14.2116 -0.0061
42.7000 14.2183 0.0012
42.7200 14.2249 -0.0031
42.7400 14.2315 0.0004
42.7600 14.2381 0.0016
42.7800 14.2448 -0.0035
42.8000 14.2515 -0.0019
42.8200 14.2582 -0.0065
42.8400 14.2649 0.0014
42.8600 14.2716 0.0002
42.8800 14.2783 -0.0082
42.9000 14.2849 0.0048
42.9200 14.2915 0.0016
42.9400 14.2981 -0.0078
42.9600 14.3048 0.0086
42.9800 14.3115 -0.0066
43.0000 14.3182 -0.0046
43.0200 14.3249 0.0071
43.0400 14.3315 -0.0080
43.0600 14.3382 -0.0003
43.0800 14.3448 0.0070
43.1000 14.3514 -0.0108
43.1200 14.3581 0.0026
43.1400 14.3648 0.0054
43.1600 14.3715 -0.0136
43.1800 14.3783 0.0006
43.2000 14.3849 0.0055
43.2200 14.3916 -0.0136
43.2400 14.3983 0.0008
43.2600 14.4049 -0.0003
43.2800 14.4115 -0.0080
43.3000 14.4182 0.0039
43.3200 14.4249 0.0034
43.3400 14.4316 -0.0107
43.3600 14.4383 0.0023
43.3800 14.4449 0.0039
43.4000 14.4516 -0.0125
43.4200 14.4583 0.0026
43.4400 14.4649 0.0012
43.4600 14.4715 -0.0089
43.4800 14.4781 0.0058
43.5000 14.4848 0.0020
43.5200 14.4915 -0.0114
43.5400 14.4982 0.0058
43.5600 14.5049 -0.0058
43.5800 14.5116 -0.0072
43.6000 14.5182 0.0022
43.6200 14.5248 -0.0020
43.6400 14.5314 -0.0106
43.6600 14.5381 0.0033
43.6800 14.5448 -0.0034
43.7000 14.5515 -0.0105
43.7200 14.5582 -0.0002
43.7400 14.5649 -0.0050
43.7600 14.5716 -0.0085
43.7800 14.5782 -0.0011
43.8000 14.5849 -0.0076
43.8200 14.5915 -0.0045
43.8400 14.5982 0.0004
43.8600 14.6049 -0.0048
43.8800 14.6116 -0.0082
43.9000 14.6182 -0.0057
43.9200 14.6249 -0.0042
43.9400 14.6316 -0.0062
43.9600 14.6383 -0.0042
43.9800 14.6449 -0.0110
44.0000 14.6515 -0.0069
44.0200 14.6581 -0.0051
44.0400 14.6648 -0.0032
44.0600 14.6715 -0.0061
44.0800 14.6782 -0.0045
44.1000 14.6849 -0.0067
44.1200 14.6916 -0.0095
44.1400 14.6983 -0.0016
44.1600 14.7049 -0.0058
44.1800 14.7115 -0.0103
44.2000 14.7181 -0.0003
44.2200 14.7248 -0.0110
44.2400 14.7315 -0.0094
44.2600 14.7382 -0.0041
44.2800 14.7449 -0.0084
44.3000 14.7516 -0.0126
44.3200 14.7582 -0.0059
44.3400 14.7649 -0.0143
44.3600 14.7715 -0.0082
44.3800 14.7781 -0.0019
44.4000 14.7848 -0.0132
44.4200 14.7915 -0.0051
44.4400 14.7982 -0.0100
44.4600 14.8049 -0.0146
44.4800 14.8116 -0.0044
44.5000 14.8183 -0.0113
44.5200 14.8249 -0.0135
44.5400 14.8315 -0.0048
44.5600 14.8381 -0.0085
44.5800 14.8448 -0.0069
44.6000 14.8516 -0.0102
44.6200 14.8583 -0.0076
44.6400 14.8650 -0.0113
44.6600 14.8716 -0.0075
44.6800 14.8783 -0.0070
44.7000 14.8849 -0.0122
44.7200 14.8915 -0.0118
44.7400 14.8982 -0.0018
44.7600 14.9048 -0.0116
44.7800 14.9116 -0.0120
44.8000 14.9183 -0.0033
44.8200 14.9249 -0.0117
44.8400 14.9316 -0.0141
44.8600 14.9383 -0.0025
44.8800 14.9449 -0.0155
44.9000 14.9515 -0.0099
44.9200 14.9581 -0.0022
44.9400 14.9648 -0.0155
44.9600 14.9715 -0.0048
44.9800 14.9782 -0.0041
45.0000 14.9849 -0.0177
45.0200 14.9916 -0.0032
45.0400 14.9983 -0.0053
45.0600 15.0049 -0.0185
45.0800 15.0115 -0.0005
45.1000 15.0181 -0.0088
45.1200 15.0247 -0.0114
45.1400 15.0315 0.0018
45.1600 15.0382 -0.0108
45.1800 15.0449 -0.0163
45.2000 15.0516 -0.0001
45.2200 15.0582 -0.0147
45.2400 15.0649 -0.0136
45.2600 15.0715 -0.0009
45.2800 15.0781 -0.0108
45.3000 15.0848 -0.0145
45.3200 15.0915 -0.0073
45.3400 15.0982 -0.0153
45.3600 15.1049 -0.0085
45.3800 15.1116 -0.0063
45.4000 15.1183 -0.0185
45.4200 15.1250 -0.0101
45.4400 15.1316 -0.0090
45.4600 15.1382 -0.0118
45.4800 15.1448 -0.0106
45.5000 15.1515 -0.0108
45.5200 15.1582 -0.0127
45.5400 15.1649 -0.0111
45.5600 15.1716 -0.0133
45.5800 15.1783 -0.0098
45.6000 15.1849 -0.0167
45.6200 15.1915 -0.0091
45.6400 15.1981 -0.0152
45.6600 15.2048 -0.0102
45.6800 15.2115 -0.0110
45.7000 15.2182 -0.0110
45.7200 15.2249 -0.0161
45.7400 15.2316 -0.0081
45.7600 15.2383 -0.0087
45.7800 15.2449 -0.0204
45.8000 15.2515 -0.0126
45.8200 15.2581 -0.0072
45.8400 15.2648 -0.0203
45.8600 15.2715 -0.0082
45.8800 15.2782 -0.0064
45.9000 15.2849 -0.0223
45.9200 15.2915 -0.0117
45.9400 15.2982 -0.0110
45.9600 15.3049 -0.0212
45.9800 15.3115 -0.0084
46.0000 15.3182 -0.0129
46.0200 15.3248 -0.0247
46.0400 15.3315 -0.0066
46.0600 15.3382 -0.0134
46.0800 15.3449 -0.0199
46.1000 15.3516 -0.0094
46.1200 15.3583 -0.0127
46.1400 15.3649 -0.0221
46.1600 15.3715 -0.0054
46.1800 15.3782 -0.0121
46.2000 15.3848 -0.0175
46.2200 15.3915 -0.0111
46.2400 15.3983 -0.0111
46.2600 15.4049 -0.0214
46.2800 15.4116 -0.0080
46.3000 15.4183 -0.0156
46.3200 15.4249 -0.0163
46.3400 15.4316 -0.0069
46.3600 15.4382 -0.0131
46.3800 15.4448 -0.0164
46.4000 15.4515 -0.0113
46.4200 15.4582 -0.0103
46.4400 15.4649 -0.0195
46.4600 15.4715 -0.0117
46.4800 15.4782 -0.0115
46.5000 15.4849 -0.0176
46.5200 15.4915 -0.0170
46.5400 15.4981 -0.0079
46.5600 15.5048 -0.0117
46.5800 15.5115 -0.0133
46.6000 15.5182 -0.0146
46.6200 15.5249 -0.0193
46.6400 15.5316 -0.0164
46.6600 15.5383 -0.0091
46.6800 15.5449 -0.0185
46.7000 15.5515 -0.0176
46.7200 15.5582 -0.0077
46.7400 15.5648 -0.0166
46.7600 15.5715 -0.0175
46.7800 15.5783 -0.0040
46.8000 15.5850 -0.0236
46.8200 15.5916 -0.0153
46.8400 15.5983 -0.0117
46.8600 15.6049 -0.0219
46.8800 15.6115 -0.0127
46.9000 15.6182 -0.0120
46.9200 15.6248 -0.0234
46.9400 15.6315 -0.0106
46.9600 15.6382 -0.0148
46.9800 15.6449 -0.0238
47.0000 15.6516 -0.0126
47.0200 15.6583 -0.0149
47.0400 15.6649 -0.0209
47.0600 15.6716 -0.0156
47.0800 15.6782 -0.0153
47.1000 15.6848 -0.0225
47.1200 15.6915 -0.0122
47.1400 15.6982 -0.0178
47.1600 15.7049 -0.0194
47.1800 15.7116 -0.0141
47.2000 15.7183 -0.0196
47.2200 15.7249 -0.0267
47.2400 15.7315 -0.0158
47.2600 15.7381 -0.0197
47.2800 15.7448 -0.0224
47.3000 15.7515 -0.0201
47.3200 15.7582 -0.0150
47.3400 15.7649 -0.0258
47.3600 15.7715 -0.0183
47.3800 15.7782 -0.0165
47.4000 15.7849 -0.0273
47.4200 15.7915 -0.0252
47.4400 15.7981 -0.0175
47.4600 15.8048 -0.0236
47.4800 15.8115 -0.0202
47.5000 15.8182 -0.0166
47.5200 15.8249 -0.0294
47.5400 15.8316 -0.0170
47.5600 15.8383 -0.0178
47.5800 15.8450 -0.0295
47.6000 15.8516 -0.0193
47.6200 15.8582 -0.0193
47.6400 15.8648 -0.0311
47.6600 15.8715 -0.0123
47.6800 15.8782 -0.0253
47.7000 15.8849 -0.0302
47.7200 15.8916 -0.0136
47.7400 15.8983 -0.0203
47.7600 15.9049 -0.0328
47.7800 15.9115 -0.0090
47.8000 15.9181 -0.0273
47.8200 15.9248 -0.0254
47.8400 15.9315 -0.0109
47.8600 15.9382 -0.0265
47.8800 15.9449 -0.0234
47.9000 15.9515 -0.0095
47.9200 15.9582 -0.0320
47.9400 15.9649 -0.0266
47.9600 15.9715 -0.0083
47.9800 15.9781 -0.0275
48.0000 15.9848 -0.0201
48.0200 15.9915 -0.0153
48.0400 15.9982 -0.0321
48.0600 16.0049 -0.0143
48.0800 16.0116 -0.0147
48.1000 16.0182 -0.0318
48.1200 16.0249 -0.0138
48.1400 16.0316 -0.0200
48.1600 16.0382 -0.0301
48.1800 16.0448 -0.0127
48.2000 16.0515 -0.0132
48.2200 16.0582 -0.0340
48.2400 16.0649 -0.0145
48.2600 16.0716 -0.0189
48.2800 16.0783 -0.0270
48.3000 16.0849 -0.0179
48.3200 16.0916 -0.0195
48.3400 16.0982 -0.0261
48.3600 16.1048 -0.0099
48.3800 16.1115 -0.0220
48.4000 16.1182 -0.0237
48.4200 16.1249 -0.0129
48.4400 16.1316 -0.0273
48.4600 16.1383 -0.0188
48.4800 16.1450 -0.0151
48.5000 16.1516 -0.0232
48.5200 16.1582 -0.0186
48.5400 16.1648 -0.0186
48.5600 16.1715 -0.0189
48.5800 16.1782 -0.0180
48.6000 16.1849 -0.0198
48.6200 16.1916 -0.0171
48.6400 16.1983 -0.0213
48.6600 16.2050 -0.0221
48.6800 16.2116 -0.0138
48.7000 16.2182 -0.0169
48.7200 16.2248 -0.0269
48.7400 16.2314 -0.0077
48.7600 16.2382 -0.0221
48.7800 16.2449 -0.0257
48.8000 16.2516 -0.0112
48.8200 16.2582 -0.0246
48.8400 16.2649 -0.0277
48.8600 16.2715 -0.0091
48.8800 16.2782 -0.0264
48.9000 16.2848 -0.0241
48.9200 16.2915 -0.0103
48.9400 16.2982 -0.0263
48.9600 16.3049 -0.0214
48.9800 16.3116 -0.0103
49.0000 16.3183 -0.0285
49.0200 16.3250 -0.0227
49.0400 16.3316 -0.0136
49.0600 16.3382 -0.0304
49.0800 16.3448 -0.0123
49.1000 16.3515 -0.0222
49.1200 16.3582 -0.0328
49.1400 16.3649 -0.0099
49.1600 16.3716 -0.0201
49.1800 16.3783 -0.0311
49.2000 16.3850 -0.0090
49.2200 16.3916 -0.0263
49.2400 16.3982 -0.0261
49.2600 16.4048 -0.0072
49.2800 16.4115 -0.0259
49.3000 16.4182 -0.0263
49.3200 16.4249 -0.0104
49.3400 16.4316 -0.0303
49.3600 16.4383 -0.0169
49.3800 16.4449 -0.0140
49.4000 16.4515 -0.0311
49.4200 16.4581 -0.0186
49.4400 16.4648 -0.0154
49.4600 16.4714 -0.0267
49.4800 16.4781 -0.0147
49.5000 16.4849 -0.0213
49.5200 16.4915 -0.0288
49.5400 16.4982 -0.0168
49.5600 16.5049 -0.0192
49.5800 16.5116 -0.0260
49.6000 16.5182 -0.0177
49.6200 16.5248 -0.0222
49.6400 16.5315 -0.0285
49.6600 16.5382 -0.0143
49.6800 16.5449 -0.0227
49.7000 16.5516 -0.0254
49.7200 16.5583 -0.0223
49.7400 16.5650 -0.0209
49.7600 16.5716 -0.0254
49.7800 16.5782 -0.0167
49.8000 16.5848 -0.0236
49.8200 16.5915 -0.0238
49.8400 16.5982 -0.0217
49.8600 16.6049 -0.0279
49.8800 16.6116 -0.0212
49.9000 16.6183 -0.0240
49.9200 16.6249 -0.0313
49.9400 16.6316 -0.0188
49.9600 16.6382 -0.0282
49.9800 16.6448 -0.0273
50.0000 16.6515 -0.0220
50.0200 16.6582 -0.0314
50.0400 16.6649 -0.0254
50.0600 16.6715 -0.0209
50.0800 16.6782 -0.0312
50.1000 16.6849 -0.0246
50.1200 16.6916 -0.0209
50.1400 16.6982 -0.0381
50.1600 16.7048 -0.0197
50.1800 16.7114 -0.0215
50.2000 16.7181 -0.0358
50.2200 16.7249 -0.0210
50.2400 16.7316 -0.0234
50.2600 16.7383 -0.0353
50.2800 16.7449 -0.0234
50.3000 16.7516 -0.0317
50.3200 16.7582 -0.0316
50.3400 16.7648 -0.0215
50.3600 16.7715 -0.0294
50.3800 16.7782 -0.0369
50.4000 16.7849 -0.0250
50.4200 16.7916 -0.0285
50.4400 16.7982 -0.0331
50.4600 16.8049 -0.0216
50.4800 16.8116 -0.0328
50.5000 16.8182 -0.0360
50.5200 16.8249 -0.0210
50.5400 16.8315 -0.0276
50.5600 16.8382 -0.0372
50.5800 16.8449 -0.0201
50.6000 16.8516 -0.0315
50.6200 16.8583 -0.0369
50.6400 16.8650 -0.0258
50.6600 16.8716 -0.0269
50.6800 16.8782 -0.0361
50.7000 16.8848 -0.0246
50.7200 16.8915 -0.0299
50.7400 16.8982 -0.0310
50.7600 16.9049 -0.0273
50.7800 16.9116 -0.0278
50.8000 16.9183 -0.0351
50.8200 16.9249 -0.0255
50.8400 16.9316 -0.0343
50.8600 16.9382 -0.0311
50.8800 16.9448 -0.0224
50.9000 16.9514 -0.0348
50.9200 16.9581 -0.0353
50.9400 16.9648 -0.0212
50.9600 16.9715 -0.0332
50.9800 16.9782 -0.0288
51.0000 16.9849 -0.0262
51.0200 16.9915 -0.0399
51.0400 16.9982 -0.0287
51.0600 17.0048 -0.0240
51.0800 17.0115 -0.0356
51.1000 17.0182 -0.0278
51.1200 17.0249 -0.0290
51.1400 17.0316 -0.0364
51.1600 17.0383 -0.0266
51.1800 17.0450 -0.0286
51.2000 17.0517 -0.0348
51.2200 17.0583 -0.0321
51.2400 17.0648 -0.0252
51.2600 17.0715 -0.0326
51.2800 17.0782 -0.0299
51.3000 17.0849 -0.0322
51.3200 17.0916 -0.0318
51.3400 17.0983 -0.0276
51.3600 17.1050 -0.0310
51.3800 17.1116 -0.0319
51.4000 17.1182 -0.0318
51.4200 17.1248 -0.0346
51.4400 17.1315 -0.0250
51.4600 17.1382 -0.0312
51.4800 17.1449 -0.0338
51.5000 17.1516 -0.0342
51.5200 17.1582 -0.0325
51.5400 17.1649 -0.0313
51.5600 17.1716 -0.0304
51.5800 17.1783 -0.0342
51.6000 17.1849 -0.0303
51.6200 17.1915 -0.0258
51.6400 17.1982 -0.0396
51.6600 17.2049 -0.0314
51.6800 17.2115 -0.0267
51.7000 17.2182 -0.0385
51.7200 17.2249 -0.0317
51.7400 17.2316 -0.0256
51.7600 17.2382 -0.0421
51.7800 17.2448 -0.0333
51.8000 17.2515 -0.0299
51.8200 17.2582 -0.0398
51.8400 17.2649 -0.0277
51.8600 17.2716 -0.0307
51.8800 17.2783 -0.0435
51.9000 17.2850 -0.0258
51.9200 17.2916 -0.0343
51.9400 17.2982 -0.0395
51.9600 17.3048 -0.0285
51.9800 17.3115 -0.0296
52.0000 17.3182 -0.0417
52.0200 17.3249 -0.0297
52.0400 17.3316 -0.0318
52.0600 17.3383 -0.0419
52.0800 17.3449 -0.0275
52.1000 17.3516 -0.0347
52.1200 17.3582 -0.0400
52.1400 17.3648 -0.0237
52.1600 17.3715 -0.0291
52.1800 17.3781 -0.0392
52.2000 17.3848 -0.0229
52.2200 17.3915 -0.0383
52.2400 17.3982 -0.0344
52.2600 17.4049 -0.0209
52.2800 17.4116 -0.0318
52.3000 17.4182 -0.0406
52.3200 17.4248 -0.0214
52.3400 17.4314 -0.0320
52.3600 17.4381 -0.0354
52.3800 17.4449 -0.0192
52.4000 17.4516 -0.0313
52.4200 17.4583 -0.0379
52.4400 17.4649 -0.0188
52.4600 17.4716 -0.0320
52.4800 17.4782 -0.0318
52.5000 17.4848 -0.0188
52.5200 17.4915 -0.0323
52.5400 17.4982 -0.0321
52.5600 17.5049 -0.0182
52.5800 17.5116 -0.0336
52.6000 17.5182 -0.0331
52.6200 17.5249 -0.0144
52.6400 17.5316 -0.0382
52.6600 17.5383 -0.0323
52.6800 17.5449 -0.0183
52.7000 17.5515 -0.0320
52.7200 17.5581 -0.0309
52.7400 17.5649 -0.0121
52.7600 17.5716 -0.0391
52.7800 17.5783 -0.0285
52.8000 17.5849 -0.0150
52.8200 17.5916 -0.0357
52.8400 17.5982 -0.0285
52.8600 17.6048 -0.0168
52.8800 17.6115 -0.0372
52.9000 17.6182 -0.0310
52.9200 17.6249 -0.0204
52.9400 17.6316 -0.0322
52.9600 17.6383 -0.0271
52.9800 17.6449 -0.0191
53.0000 17.6516 -0.0390
53.0200 17.6582 -0.0282
53.0400 17.6648 -0.0200
53.0600 17.6714 -0.0332
53.0800 17.6781 -0.0260
53.1000 17.6848 -0.0220
53.1200 17.6915 -0.0309
53.1400 17.6982 -0.0251
53.1600 17.7049 -0.0190
53.1800 17.7116 -0.0295
53.2000 17.7182 -0.0272
53.2200 17.7248 -0.0255
53.2400 17.7315 -0.0272
53.2600 17.7381 -0.0222
53.2800 17.7449 -0.0269
53.3000 17.7516 -0.0335
53.3200 17.7583 -0.0233
53.3400 17.7650 -0.0252
53.3600 17.7717 -0.0281
53.3800 17.7783 -0.0253
53.4000 17.7848 -0.0233
53.4200 17.7915 -0.0293
53.4400 17.7982 -0.0243
53.4600 17.8049 -0.0269
53.4800 17.8116 -0.0307
53.5000 17.8183 -0.0261
53.5200 17.8249 -0.0224
53.5400 17.8316 -0.0315
53.5600 17.8382 -0.0233
53.5800 17.8448 -0.0246
53.6000 17.8515 -0.0286
53.6200 17.8582 -0.0281
53.6400 17.8648 -0.0252
53.6600 17.8715 -0.0261
53.6800 17.8782 -0.0278
53.7000 17.8849 -0.0270
53.7200 17.8916 -0.0326
53.7400 17.8982 -0.0255
53.7600 17.9048 -0.0279
53.7800 17.9114 -0.0342
53.8000 17.9181 -0.0307
53.8200 17.9248 -0.0245
53.8400 17.9315 -0.0378
53.8600 17.9382 -0.0300
53.8800 17.9449 -0.0255
53.9000 17.9516 -0.0381
53.9200 17.9582 -0.0294
53.9400 17.9648 -0.0267
53.9600 17.9714 -0.0348
53.9800 17.9781 -0.0247
54.0000 17.9849 -0.0417
54.0200 17.9916 -0.0403
54.0400 17.9983 -0.0243
54.0600 18.0049 -0.0346
54.0800 18.0116 -0.0399
54.1000 18.0183 -0.0264
54.1200 18.0249 -0.0373
54.1400 18.0315 -0.0383
54.1600 18.0382 -0.0319
54.1800 18.0449 -0.0399
54.2000 18.0516 -0.0357
54.2200 18.0582 -0.0335
54.2400 18.0649 -0.0456
54.2600 18.0716 -0.0344
54.2800 18.0783 -0.0348
54.3000 18.0849 -0.0473
54.3200 18.0915 -0.0296
54.3400 18.0981 -0.0354
54.3600 18.1048 -0.0444
54.3800 18.1116 -0.0329
54.4000 18.1182 -0.0414
54.4200 18.1249 -0.0469
54.4400 18.1316 -0.0298
54.4600 18.1382 -0.0448
54.4800 18.1448 -0.0433
54.5000 18.1514 -0.0305
54.5200 18.1581 -0.0458
54.5400 18.1648 -0.0455
54.5600 18.1715 -0.0342
54.5800 18.1782 -0.0430
54.6000 18.1849 -0.0414
54.6200 18.1916 -0.0413
54.6400 18.1982 -0.0456
54.6600 18.2049 -0.0422
54.6800 18.2115 -0.0430
54.7000 18.2182 -0.0452
54.7200 18.2249 -0.0451
54.7400 18.2315 -0.0412
54.7600 18.2382 -0.0469
54.7800 18.2449 -0.0437
54.8000 18.2516 -0.0469
54.8200 18.2583 -0.0468
54.8400 18.2649 -0.0480
54.8600 18.2715 -0.0452
54.8800 18.2781 -0.0467
54.9000 18.2849 -0.0489
54.9200 18.2916 -0.0443
54.9400 18.2983 -0.0476
54.9600 18.3050 -0.0538
54.9800 18.3116 -0.0441
55.0000 18.3183 -0.0490
55.0200 18.3249 -0.0532
55.0400 18.3315 -0.0488
55.0600 18.3382 -0.0404
55.0800 18.3449 -0.0578
55.1000 18.3516 -0.0514
55.1200 18.3582 -0.0435
55.1400 18.3649 -0.0542
55.1600 18.3716 -0.0526
55.1800 18.3782 -0.0506
55.2000 18.3849 -0.0555
55.2200 18.3915 -0.0524
55.2400 18.3981 -0.0470
55.2600 18.4048 -0.0572
55.2800 18.4115 -0.0522
55.3000 18.4182 -0.0485
55.3200 18.4249 -0.0548
55.3400 18.4316 -0.0511
55.3600 18.4383 -0.0514
55.3800 18.4449 -0.0575
55.4000 18.4515 -0.0461
55.4200 18.4581 -0.0527
55.4400 18.4648 -0.0497
55.4600 18.4716 -0.0483
55.4800 18.4783 -0.0503
55.5000 18.4850 -0.0571
55.5200 18.4916 -0.0460
55.5400 18.4983 -0.0462
55.5600 18.5049 -0.0527
55.5800 18.5115 -0.0438
55.6000 18.5182 -0.0472
55.6200 18.5249 -0.0537
55.6400 18.5316 -0.0465
55.6600 18.5383 -0.0477
55.6800 18.5449 -0.0473
55.7000 18.5516 -0.0409
55.7200 18.5582 -0.0469
55.7400 18.5649 -0.0490
55.7600 18.5715 -0.0407
55.7800 18.5781 -0.0475
55.8000 18.5848 -0.0474
55.8200 18.5915 -0.0410
55.8400 18.5982 -0.0476
55.8600 18.6049 -0.0454
55.8800 18.6116 -0.0424
55.9000 18.6183 -0.0425
55.9200 18.6249 -0.0411
55.9400 18.6315 -0.0365
55.9600 18.6381 -0.0473
55.9800 18.6448 -0.0440
56.0000 18.6515 -0.0448
56.0200 18.6582 -0.0391
56.0400 18.6649 -0.0417
56.0600 18.6716 -0.0435
56.0800 18.6782 -0.0408
56.1000 18.6849 -0.0422
56.1200 18.6915 -0.0398
56.1400 18.6981 -0.0396
56.1600 18.7048 -0.0406
56.1800 18.7116 -0.0431
56.2000 18.7182 -0.0426
56.2200 18.7249 -0.0372
56.2400 18.7316 -0.0410
56.2600 18.7383 -0.0405
56.2800 18.7449 -0.0398
56.3000 18.7515 -0.0427
56.3200 18.7582 -0.0348
56.3400 18.7648 -0.0369
56.3600 18.7716 -0.0369
56.3800 18.7783 -0.0416
56.4000 18.7850 -0.0365
56.4200 18.7916 -0.0436
56.4400 18.7983 -0.0390
56.4600 18.8049 -0.0405
56.4800 18.8115 -0.0375
56.5000 18.8181 -0.0382
56.5200 18.8248 -0.0394
56.5400 18.8315 -0.0390
56.5600 18.8382 -0.0359
56.5800 18.8449 -0.0393
56.6000 18.8516 -0.0402
56.6200 18.8582 -0.0400
56.6400 18.8649 -0.0393
56.6600 18.8715 -0.0411
56.6800 18.8781 -0.0424
56.7000 18.8848 -0.0428
56.7200 18.8915 -0.0373
56.7400 18.8982 -0.0387
56.7600 18.9049 -0.0467
56.7800 18.9115 -0.0330
56.8000 18.9182 -0.0407
56.8200 18.9249 -0.0458
56.8400 18.9315 -0.0376
56.8600 18.9382 -0.0375
56.8800 18.9448 -0.0424
56.9000 18.9515 -0.0330
56.9200 18.9582 -0.0438
56.9400 18.9649 -0.0364
56.9600 18.9716 -0.0393
56.9800 18.9783 -0.0436
57.0000 18.9849 -0.0400
57.0200 18.9915 -0.0355
57.0400 18.9981 -0.0385
57.0600 19.0048 -0.0389
57.0800 19.0116 -0.0396
57.1000 19.0183 -0.0406
57.1200 19.0249 -0.0370
57.1400 19.0316 -0.0367
57.1600 19.0383 -0.0408
57.1800 19.0449 -0.0447
57.2000 19.0515 -0.0358
57.2200 19.0582 -0.0372
57.2400 19.0648 -0.0412
57.2600 19.0715 -0.0354
57.2800 19.0782 -0.0404
57.3000 19.0849 -0.0436
57.3200 19.0916 -0.0362
57.3400 19.0983 -0.0397
57.3600 19.1049 -0.0389
57.3800 19.1115 -0.0379
57.4000 19.1181 -0.0389
57.4200 19.1248 -0.0401
57.4400 19.1315 -0.0345
57.4600 19.1382 -0.0406
57.4800 19.1449 -0.0407
57.5000 19.1515 -0.0399
57.5200 19.1582 -0.0358
57.5400 19.1649 -0.0419
57.5600 19.1715 -0.0368
57.5800 19.1781 -0.0429
57.6000 19.1848 -0.0382
57.6200 19.1916 -0.0428
57.6400 19.1983 -0.0420
57.6600 19.2050 -0.0408
57.6800 19.2116 -0.0438
57.7000 19.2183 -0.0376
57.7200 19.2250 -0.0440
57.7400 19.2316 -0.0416
57.7600 19.2382 -0.0352
57.7800 19.2449 -0.0436
57.8000 19.2516 -0.0443
57.8200 19.2583 -0.0408
57.8400 19.2649 -0.0403
57.8600 19.2716 -0.0422
57.8800 19.2783 -0.0428
57.9000 19.2849 -0.0445
57.9200 19.2915 -0.0401
57.9400 19.2981 -0.0376
57.9600 19.3048 -0.0487
57.9800 19.3115 -0.0399
58.0000 19.3182 -0.0435
58.0200 19.3249 -0.0480
58.0400 19.3316 -0.0418
58.0600 19.3382 -0.0422
58.0800 19.3449 -0.0442
58.1000 19.3515 -0.0382
58.1200 19.3581 -0.0501
58.1400 19.3648 -0.0424
58.1600 19.3715 -0.0413
58.1800 19.3783 -0.0481
58.2000 19.3849 -0.0455
58.2200 19.3916 -0.0438
58.2400 19.3982 -0.0486
58.2600 19.4049 -0.0439
58.2800 19.4115 -0.0431
58.3000 19.4182 -0.0492
58.3200 19.4249 -0.0455
58.3400 19.4315 -0.0479
58.3600 19.4382 -0.0449
58.3800 19.4449 -0.0441
58.4000 19.4516 -0.0434
58.4200 19.4583 -0.0485
58.4400 19.4649 -0.0502
58.4600 19.4715 -0.0465
58.4800 19.4781 -0.0436
58.5000 19.4848 -0.0487
58.5200 19.4915 -0.0441
58.5400 19.4982 -0.0487
58.5600 19.5049 -0.0442
58.5800 19.5116 -0.0469
58.6000 19.5183 -0.0485
58.6200 19.5249 -0.0535
58.6400 19.5315 -0.0421
58.6600 19.5381 -0.0482
58.6800 19.5448 -0.0542
58.7000 19.5515 -0.0385
58.7200 19.5582 -0.0481
58.7400 19.5649 -0.0579
58.7600 19.5716 -0.0426
58.7800 19.5782 -0.0487
58.8000 19.5849 -0.0520
58.8200 19.5915 -0.0460
58.8400 19.5982 -0.0531
58.8600 19.6048 -0.0512
58.8800 19.6115 -0.0457
58.9000 19.6182 -0.0564
58.9200 19.6249 -0.0511
58.9400 19.6315 -0.0454
58.9600 19.6382 -0.0613
58.9800 19.6449 -0.0472
59.0000 19.6515 -0.0517
59.0200 19.6581 -0.0514
59.0400 19.6648 -0.0492
59.0600 19.6715 -0.0544
59.0800 19.6782 -0.0536
59.1000 19.6849 -0.0468
59.1200 19.6916 -0.0550
59.1400 19.6983 -0.0575
59.1600 19.7049 -0.0528
59.1800 19.7115 -0.0542
59.2000 19.7181 -0.0564
59.2200 19.7248 -0.0521
59.2400 19.7315 -0.0573
59.2600 19.7382 -0.0521
59.2800 19.7449 -0.0538
59.3000 19.7516 -0.0590
59.3200 19.7583 -0.0519
59.3400 19.7650 -0.0535
59.3600 19.7716 -0.0556
59.3800 19.7782 -0.0546
59.4000 19.7848 -0.0513
59.4200 19.7915 -0.0520
59.4400 19.7982 -0.0565
59.4600 19.8049 -0.0544
59.4800 19.8116 -0.0515
59.5000 19.8183 -0.0573
59.5200 19.8249 -0.0550
59.5400 19.8315 -0.0557
59.5600 19.8381 -0.0514
59.5800 19.8447 -0.0491
59.6000 19.8515 -0.0516
59.6200 19.8582 -0.0550
59.6400 19.8649 -0.0432
59.6600 19.8715 -0.0544
59.6800 19.8782 -0.0567
59.7000 19.8849 -0.0449
59.7200 19.8915 -0.0536
59.7400 19.8982 -0.0573
59.7600 19.9048 -0.0427
59.7800 19.9115 -0.0549
59.8000 19.9182 -0.0584
59.8200 19.9249 -0.0421
59.8400 19.9316 -0.0537
59.8600 19.9383 -0.0589
59.8800 19.9450 -0.0392
59.9000 19.9516 -0.0523
59.9200 19.9582 -0.0579
59.9400 19.9648 -0.0408
59.9600 19.9715 -0.0514
59.9800 19.9782 -0.0532
60.0000 19.9849 -0.0432
60.0200 19.9916 -0.0576
60.0400 19.9983 -0.0551
60.0600 20.0049 -0.0410
60.0800 20.0115 -0.0581
60.1000 20.0181 -0.0516
60.1200 20.0248 -0.0417
60.1400 20.0315 -0.0524
60.1600 20.0382 -0.0591
60.1800 20.0449 -0.0463
60.2000 20.0516 -0.0504
60.2200 20.0582 -0.0557
60.2400 20.0649 -0.0519
60.2600 20.0715 -0.0519
60.2800 20.0781 -0.0552
60.3000 20.0848 -0.0441
60.3200 20.0915 -0.0512
60.3400 20.0982 -0.0608
60.3600 20.1049 -0.0464
60.3800 20.1115 -0.0528
60.4000 20.1182 -0.0680
60.4200 20.1249 -0.0509
60.4400 20.1316 -0.0498
60.4600 20.1382 -0.0738
60.4800 20.1448 -0.0486
60.5000 20.1515 -0.0521
60.5200 20.1582 -0.0730
60.5400 20.1649 -0.0495
60.5600 20.1716 -0.0578
60.5800 20.1783 -0.0763
60.6000 20.1849 -0.0435
60.6200 20.1916 -0.0624
60.6400 20.1982 -0.0740
60.6600 20.2048 -0.0437
60.6800 20.2115 -0.0640
60.7000 20.2182 -0.0732
60.7200 20.2249 -0.0479
60.7400 20.2316 -0.0705
60.7600 20.2383 -0.0702
60.7800 20.2449 -0.0537
60.8000 20.2516 -0.0682
60.8200 20.2582 -0.0651
60.8400 20.2648 -0.0494
60.8600 20.2715 -0.0666
60.8800 20.2782 -0.0639
60.9000 20.2849 -0.0542
60.9200 20.2916 -0.0644
60.9400 20.2983 -0.0592
60.9600 20.3049 -0.0634
60.9800 20.3116 -0.0625
61.0000 20.3181 -0.0593
61.0200 20.3248 -0.0657
61.0400 20.3314 -0.0661
61.0600 20.3382 -0.0546
61.0800 20.3449 -0.0657
61.1000 20.3515 -0.0600
61.1200 20.3582 -0.0607
61.1400 20.3649 -0.0612
61.1600 20.3716 -0.0623
61.1800 20.3782 -0.0600
61.2000 20.3848 -0.0434
61.2200 20.3915 0.0013
61.2400 20.3983 0.0194
61.2600 20.4050 0.0526
61.2800 20.4116 0.0933
61.3000 20.4183 0.1021
61.3200 20.4250 0.1308
61.3400 20.4316 0.1692
61.3600 20.4382 0.1768
61.3800 20.4448 0.2146
61.4000 20.4515 0.2458
61.4200 20.4582 0.2563
61.4400 20.4649 0.2999
61.4600 20.4716 0.3245
61.4800 20.4783 0.3391
61.5000 20.4849 0.3689
61.5200 20.4916 0.3902
61.5400 20.4982 0.4011
61.5600 20.5048 0.4380
61.5800 20.5115 0.4554
61.6000 20.5182 0.4712
61.6200 20.5249 0.4791
61.6400 20.5316 0.4637
61.6600 20.5383 0.4568
61.6800 20.5449 0.4591
61.7000 20.5516 0.4489
61.7200 20.5581 0.4558
61.7400 20.5648 0.4539
61.7600 20.5714 0.4504
61.7800 20.5782 0.4509
61.8000 20.5849 0.4544
61.8200 20.5915 0.4477
61.8400 20.5982 0.4554
61.8600 20.6049 0.4534
61.8800 20.6115 0.4483
61.9000 20.6182 0.4535
61.9200 20.6248 0.4541
61.9400 20.6315 0.4558
61.9600 20.6382 0.4518
61.9800 20.6449 0.4496
62.0000 20.6516 0.4566
62.0200 20.6583 0.4529
62.0400 20.6650 0.4497
62.0600 20.6716 0.4567
62.0800 20.6782 0.4488
62.1000 20.6848 0.4510
62.1200 20.6915 0.4530
62.1400 20.6982 0.4485
62.1600 20.7049 0.4479
62.1800 20.7116 0.4557
62.2000 20.7183 0.4446
62.2200 20.7249 0.4460
62.2400 20.7315 0.4490
62.2600 20.7382 0.4456
62.2800 20.7448 0.4448
62.3000 20.7515 0.4490
62.3200 20.7582 0.4466
62.3400 20.7649 0.4466
62.3600 20.7715 0.4517
62.3800 20.7782 0.4423
62.4000 20.7849 0.4442
62.4200 20.7915 0.4510
62.4400 20.7982 0.4415
62.4600 20.8048 0.4419
62.4800 20.8115 0.4464
62.5000 20.8182 0.4403
62.5200 20.8249 0.4415
62.5400 20.8316 0.4453
62.5600 20.8383 0.4425
62.5800 20.8450 0.4404
62.6000 20.8516 0.4453
62.6200 20.8582 0.4347
62.6400 20.8648 0.4398
62.6600 20.8715 0.4450
62.6800 20.8782 0.4419
62.7000 20.8849 0.4349
62.7200 20.8916 0.4480
62.7400 20.8983 0.4398
62.7600 20.9050 0.4367
62.7800 20.9116 0.4420
62.8000 20.9182 0.4442
62.8200 20.9248 0.4344
62.8400 20.9315 0.4387
62.8600 20.9382 0.4402
62.8800 20.9449 0.4301
62.9000 20.9516 0.4396
62.9200 20.9583 0.4428
62.9400 20.9649 0.4287
62.9600 20.9716 0.4392
62.9800 20.9782 0.4429
63.0000 20.9848 0.4293
63.0200 20.9915 0.4402
63.0400 20.9982 0.4401
63.0600 21.0049 0.4272
63.0800 21.0116 0.4345
63.1000 21.0183 0.4398
63.1200 21.0249 0.4212
63.1400 21.0316 0.4344
63.1600 21.0382 0.4339
63.1800 21.0448 0.4202
63.2000 21.0514 0.4359
63.2200 21.0582 0.4350
63.2400 21.0649 0.4187
63.2600 21.0716 0.4351
63.2800 21.0783 0.4329
63.3000 21.0849 0.4215
63.3200 21.0916 0.4277
63.3400 21.0982 0.4324
63.3600 21.1048 0.4147
63.3800 21.1115 0.4314
63.4000 21.1182 0.4294
63.4200 21.1249 0.4140
63.4400 21.1316 0.4307
63.4600 21.1383 0.4312
63.4800 21.1449 0.4122
63.5000 21.1516 0.4254
63.5200 21.1582 0.4378
63.5400 21.1648 0.4118
63.5600 21.1715 0.4269
63.5800 21.1782 0.4338
63.6000 21.1849 0.4153
63.6200 21.1916 0.4228
63.6400 21.1983 0.4314
63.6600 21.2050 0.4133
63.6800 21.2116 0.4247
63.7000 21.2182 0.4262
63.7200 21.2248 0.4162
63.7400 21.2315 0.4210
63.7600 21.2382 0.4278
63.7800 21.2449 0.4143
63.8000 21.2516 0.4244
63.8200 21.2582 0.4245
63.8400 21.2649 0.4127
63.8600 21.2716 0.4212
63.8800 21.2782 0.4236
63.9000 21.2848 0.4136
63.9200 21.2915 0.4185
63.9400 21.2982 0.4265
63.9600 21.3049 0.4152
63.9800 21.3115 0.4188
64.0000 21.3182 0.4248
64.0200 21.3249 0.4107
64.0400 21.3316 0.4150
64.0600 21.3382 0.4270
64.0800 21.3448 0.4096
64.1000 21.3515 0.4166
64.1200 21.3582 0.4211
64.1400 21.3649 0.4111
64.1600 21.3716 0.4149
64.1800 21.3783 0.4228
64.2000 21.3850 0.4094
64.2200 21.3916 0.4143
64.2400 21.3982 0.4161
64.2600 21.4048 0.4103
64.2800 21.4115 0.4175
64.3000 21.4182 0.4192
64.3200 21.4249 0.4077
64.3400 21.4316 0.4145
64.3600 21.4383 0.4154
64.3800 21.4449 0.4112
64.4000 21.4516 0.4106
64.4200 21.4582 0.4187
64.4400 21.4648 0.4088
64.4600 21.4715 0.4055
64.4800 21.4782 0.4180
64.5000 21.4849 0.4075
64.5200 21.4916 0.4082
64.5400 21.4982 0.4205
64.5600 21.5049 0.4034
64.5800 21.5116 0.4079
64.6000 21.5182 0.4196
64.6200 21.5248 0.4051
64.6400 21.5314 0.4087
64.6600 21.5381 0.4157
64.6800 21.5449 0.4028
64.7000 21.5516 0.4059
64.7200 21.5583 0.4193
64.7400 21.5649 0.4013
64.7600 21.5716 0.4109
64.7800 21.5782 0.4150
64.8000 21.5848 0.4025
64.8200 21.5915 0.4106
64.8400 21.5982 0.4130
64.8600 21.6049 0.4034
64.8800 21.6116 0.4120
64.9000 21.6182 0.4064
64.9200 21.6249 0.4045
64.9400 21.6316 0.4088
64.9600 21.6382 0.4057
64.9800 21.6449 0.4086
65.0000 21.6515 0.4081
65.0200 21.6582 0.4050
65.0400 21.6649 0.4068
65.0600 21.6716 0.4029
65.0800 21.6783 0.4043
65.1000 21.6850 0.4094
65.1200 21.6916 0.3973
65.1400 21.6982 0.4041
65.1600 21.7048 0.4076
65.1800 21.7115 0.4014
65.2000 21.7181 0.4025
65.2200 21.7249 0.4080
65.2400 21.7316 0.3968
65.2600 21.7383 0.4019
65.2800 21.7449 0.4080
65.3000 21.7516 0.3970
65.3200 21.7582 0.3955
65.3400 21.7648 0.4082
65.3600 21.7714 0.3963
65.3800 21.7781 0.4000
65.4000 21.7848 0.4041
65.4200 21.7915 0.3970
65.4400 21.7982 0.3990
65.4600 21.8049 0.4026
65.4800 21.8116 0.3989
65.5000 21.8182 0.3932
65.5200 21.8248 0.3979
65.5400 21.8315 0.3985
65.5600 21.8382 0.3952
65.5800 21.8449 0.4004
65.6000 21.8516 0.3963
65.6200 21.8583 0.3915
65.6400 21.8650 0.4026
65.6600 21.8716 0.3996
65.6800 21.8783 0.3901
65.7000 21.8849 0.3995
65.7200 21.8915 0.4002
65.7400 21.8982 0.3900
65.7600 21.9049 0.4012
65.7800 21.9116 0.3937
65.8000 21.9183 0.3883
65.8200 21.9249 0.4026
65.8400 21.9316 0.3964
65.8600 21.9382 0.3853
65.8800 21.9448 0.4048
65.9000 21.9515 0.3934
65.9200 21.9582 0.3913
65.9400 21.9649 0.3991
65.9600 21.9716 0.3987
65.9800 21.9782 0.3872
66.0000 21.9849 0.3993
66.0200 21.9916 0.3920
66.0400 21.9982 0.3885
66.0600 22.0049 0.3995
66.0800 22.0115 0.3934
66.1000 22.0182 0.3883
66.1200 22.0248 0.3988
66.1400 22.0315 0.3952
66.1600 22.0382 0.3834
66.1800 22.0449 0.3999
66.2000 22.0515 0.3945
66.2200 22.0582 0.3777
66.2400 22.0648 0.3982
66.2600 22.0715 0.3964
66.2800 22.0782 0.3798
66.3000 22.0849 0.4016
66.3200 22.0916 0.3905
66.3400 22.0983 0.3847
66.3600 22.1050 0.3953
66.3800 22.1116 0.3885
66.4000 22.1182 0.3843
66.4200 22.1248 0.3962
66.4400 22.1315 0.3899
66.4600 22.1382 0.3795
66.4800 22.1449 0.3942
66.5000 22.1516 0.3832
66.5200 22.1583 0.3793
66.5400 22.1649 0.3963
66.5600 22.1716 0.3836
66.5800 22.1782 0.3798
66.6000 22.1848 0.3911
66.6200 22.1915 0.3868
66.6400 22.1981 0.3821
66.6600 22.2048 0.3943
66.6800 22.2115 0.3809
66.7000 22.2182 0.3800
66.7200 22.2249 0.3970
66.7400 22.2316 0.3771
66.7600 22.2382 0.3829
66.7800 22.2448 0.3932
66.8000 22.2514 0.3804
66.8200 22.2581 0.3783
66.8400 22.2648 0.3938
66.8600 22.2716 0.3784
66.8800 22.2782 0.3764
66.9000 22.2849 0.3923
66.9200 22.2916 0.3804
66.9400 22.2982 0.3751
66.9600 22.3049 0.3907
66.9800 22.3115 0.3781
67.0000 22.3182 0.3796
67.0200 22.3249 0.3873
67.0400 22.3316 0.3782
67.0600 22.3382 0.3770
67.0800 22.3449 0.3898
67.1000 22.3516 0.3724
67.1200 22.3583 0.3781
67.1400 22.3649 0.3867
67.1600 22.3715 0.3755
67.1800 22.3781 0.3787
67.2000 22.3848 0.3826
67.2200 22.3916 0.3770
67.2400 22.3982 0.3753
67.2600 22.4049 0.3846
67.2800 22.4116 0.3753
67.3000 22.4183 0.3736
67.3200 22.4249 0.3807
67.3400 22.4315 0.3782
67.3600 22.4382 0.3719
67.3800 22.4449 0.3831
67.4000 22.4516 0.3726
67.4200 22.4583 0.3732
67.4400 22.4649 0.3763
67.4600 22.4716 0.3749
67.4800 22.4782 0.3682
67.5000 22.4848 0.3791
67.5200 22.4914 0.3714
67.5400 22.4981 0.3706
67.5600 22.5048 0.3785
67.5800 22.5115 0.3743
67.6000 22.5182 0.3627
67.6200 22.5249 0.3777
67.6400 22.5316 0.3696
67.6600 22.5382 0.3629
67.6800 22.5448 0.3771
67.7000 22.5515 0.3685
67.7200 22.5581 0.3662
67.7400 22.5649 0.3752
67.7600 22.5716 0.3644
67.7800 22.5783 0.3643
67.8000 22.5850 0.3773
67.8200 22.5917 0.3644
67.8400 22.5983 0.3636
67.8600 22.6049 0.3732
67.8800 22.6115 0.3683
67.9000 22.6182 0.3645
67.9200 22.6249 0.3763
67.9400 22.6316 0.3626
67.9600 22.6383 0.3691
67.9800 22.6450 0.3686
68.0000 22.6516 0.3673
68.0200 22.6583 0.3640
68.0400 22.6649 0.3677
68.0600 22.6715 0.3719
68.0800 22.6782 0.3582
68.1000 22.6849 0.3705
68.1200 22.6915 0.3693
68.1400 22.6982 0.3596
68.1600 22.7049 0.3692
68.1800 22.7116 0.3678
68.2000 22.7182 0.3629
68.2200 22.7248 0.3652
68.2400 22.7314 0.3670
68.2600 22.7381 0.3592
68.2800 22.7448 0.3692
68.3000 22.7515 0.3672
68.3200 22.7582 0.3526
68.3400 22.7649 0.3720
68.3600 22.7716 0.3639
68.3800 22.7782 0.3549
68.4000 22.7849 0.3694
68.4200 22.7915 0.3629
68.4400 22.7982 0.3556
68.4600 22.8049 0.3680
68.4800 22.8116 0.3570
68.5000 22.8183 0.3625
68.5200 22.8250 0.3652
68.5400 22.8316 0.3541
68.5600 22.8383 0.3598
68.5800 22.8449 0.3641
68.6000 22.8515 0.3527
68.6200 22.8582 0.3588
68.6400 22.8649 0.3582
68.6600 22.8716 0.3581
68.6800 22.8783 0.3558
68.7000 22.8849 0.3574
68.7200 22.8916 0.3604
68.7400 22.8983 0.3544
68.7600 22.9049 0.3558
68.7800 22.9115 0.3627
68.8000 22.9181 0.3556
68.8200 22.9248 0.3548
68.8400 22.9315 0.3596
68.8600 22.9382 0.3557
68.8800 22.9449 0.3524
68.9000 22.9516 0.3579
68.9200 22.9582 0.3525
68.9400 22.9649 0.3458
68.9600 22.9715 0.3630
68.9800 22.9781 0.3508
69.0000 22.9848 0.3534
69.0200 22.9915 0.3594
69.0400 22.9982 0.3497
69.0600 23.0049 0.3502
69.0800 23.0115 0.3610
69.1000 23.0182 0.3448
69.1200 23.0249 0.3488
69.1400 23.0315 0.3578
69.1600 23.0381 0.3477
69.1800 23.0448 0.3493
69.2000 23.0515 0.3625
69.2200 23.0582 0.3497
69.2400 23.0649 0.3504
69.2600 23.0716 0.3530
69.2800 23.0783 0.3515
69.3000 23.0849 0.3501
69.3200 23.0915 0.3531
69.3400 23.0981 0.3563
69.3600 23.1049 0.3481
69.3800 23.1116 0.3559
69.4000 23.1183 0.3511
69.4200 23.1250 0.3513
69.4400 23.1316 0.3543
69.4600 23.1382 0.3534
69.4800 23.1449 0.3447
69.5000 23.1515 0.3567
69.5200 23.1582 0.3545
69.5400 23.1649 0.3471
69.5600 23.1716 0.3512
69.5800 23.1783 0.3550
69.6000 23.1849 0.3428
69.6200 23.1916 0.3532
69.6400 23.1983 0.3509
69.6600 23.2049 0.3435
69.6800 23.2115 0.3554
69.7000 23.2181 0.3523
69.7200 23.2248 0.3418
69.7400 23.2315 0.3578
69.7600 23.2382 0.3535
69.7800 23.2449 0.3387
69.8000 23.2516 0.3547
69.8200 23.2583 0.3475
69.8400 23.2649 0.3379
69.8600 23.2715 0.3536
69.8800 23.2781 0.3540
69.9000 23.2848 0.3412
69.9200 23.2916 0.3528
69.9400 23.2983 0.3485
69.9600 23.3050 0.3402
69.9800 23.3116 0.3533
70.0000 23.3183 0.3497
70.0200 23.3249 0.3418
70.0400 23.3315 0.3517
70.0600 23.3382 0.3494
70.0800 23.3449 0.3478
70.1000 23.3516 0.3428
70.1200 23.3583 0.3477
70.1400 23.3649 0.3456
70.1600 23.3716 0.3462
70.1800 23.3783 0.3466
70.2000 23.3849 0.3411
70.2200 23.3915 0.3480
70.2400 23.3981 0.3493
70.2600 23.4048 0.3391
70.2800 23.4115 0.3437
70.3000 23.4182 0.3468
70.3200 23.4249 0.3339
70.3400 23.4316 0.3417
70.3600 23.4383 0.3432
70.3800 23.4449 0.3394
70.4000 23.4515 0.3450
70.4200 23.4581 0.3446
70.4400 23.4648 0.3366
70.4600 23.4715 0.3425
70.4800 23.4782 0.3402
70.5000 23.4849 0.3357
70.5200 23.4916 0.3385
70.5400 23.4982 0.3415
70.5600 23.5049 0.3325
70.5800 23.5115 0.3410
70.6000 23.5181 0.3397
70.6200 23.5248 0.3362
70.6400 23.5316 0.3414
70.6600 23.5383 0.3319
70.6800 23.5449 0.3340
70.7000 23.5516 0.3418
70.7200 23.5583 0.3319
70.7400 23.5649 0.3368
70.7600 23.5715 0.3400
70.7800 23.5782 0.3323
70.8000 23.5848 0.3334
70.8200 23.5916 0.3390
70.8400 23.5983 0.3307
70.8600 23.6050 0.3364
70.8800 23.6116 0.3364
70.9000 23.6183 0.3275
70.9200 23.6249 0.3349
70.9400 23.6315 0.3323
70.9600 23.6381 0.3298
70.9800 23.6448 0.3345
71.0000 23.6515 0.3363
71.0200 23.6582 0.3280
71.0400 23.6649 0.3334
71.0600 23.6716 0.3301
71.0800 23.6782 0.3344
71.1000 23.6849 0.3322
71.1200 23.6915 0.3297
71.1400 23.6981 0.3317
71.1600 23.7048 0.3325
71.1800 23.7115 0.3231
71.2000 23.7182 0.3324
71.2200 23.7249 0.3318
71.2400 23.7315 0.3283
71.2600 23.7382 0.3305
71.2800 23.7449 0.3293
71.3000 23.7515 0.3280
71.3200 23.7582 0.3280
71.3400 23.7648 0.3288
71.3600 23.7715 0.3237
71.3800 23.7782 0.3275
71.4000 23.7849 0.3320
71.4200 23.7916 0.3265
71.4400 23.7983 0.3253
71.4600 23.8049 0.3276
71.4800 23.8115 0.3259
71.5000 23.8181 0.3300
71.5200 23.8248 0.3252
71.5400 23.8315 0.3250
71.5600 23.8383 0.3279
71.5800 23.8449 0.3262
71.6000 23.8516 0.3176
71.6200 23.8583 0.3299
71.6400 23.8649 0.3255
71.6600 23.8715 0.3222
71.6800 23.8781 0.3281
71.7000 23.8848 0.3294
71.7200 23.8915 0.3218
71.7400 23.8982 0.3244
71.7600 23.9049 0.3226
71.7800 23.9116 0.3236
71.8000 23.9182 0.3254
71.8200 23.9249 0.3196
71.8400 23.9315 0.3226
71.8600 23.9381 0.3245
71.8800 23.9448 0.3203
71.9000 23.9515 0.3244
71.9200 23.9582 0.3203
71.9400 23.9649 0.3207
71.9600 23.9715 0.3251
71.9800 23.9782 0.3169
72.0000 23.9849 0.3193
72.0200 23.9915 0.3220
72.0400 23.9981 0.3198
72.0600 24.0048 0.3178
72.0800 24.0115 0.3193
72.1000 24.0183 0.3165
72.1200 24.0250 0.3200
72.1400 24.0316 0.3184
72.1600 24.0383 0.3156
72.1800 24.0450 0.3172
72.2000 24.0516 0.3223
72.2200 24.0582 0.3114
72.2400 24.0649 0.3176
72.2600 24.0716 0.3170
72.2800 24.0782 0.3141
72.3000 24.0849 0.3199
72.3200 24.0916 0.3155
72.3400 24.0983 0.3101
72.3600 24.1049 0.3171
72.3800 24.1115 0.3188
72.4000 24.1181 0.3043
72.4200 24.1248 0.3249
72.4400 24.1315 0.3175
72.4600 24.1382 0.3016
72.4800 24.1449 0.3180
72.5000 24.1516 0.3138
72.5200 24.1582 0.3082
72.5400 24.1649 0.3225
72.5600 24.1715 0.3053
72.5800 24.1781 0.3103
72.6000 24.1848 0.3244
72.6200 24.1915 0.3054
72.6400 24.1982 0.3032
72.6600 24.2049 0.3275
72.6800 24.2116 0.3028
72.7000 24.2182 0.3129
72.7200 24.2249 0.3168
72.7400 24.2316 0.3000
72.7600 24.2382 0.3092
72.7800 24.2449 0.3160
72.8000 24.2515 0.3028
72.8200 24.2582 0.3132
72.8400 24.2649 0.3196
72.8600 24.2716 0.2993
72.8800 24.2783 0.3090
72.9000 24.2850 0.3196
72.9200 24.2916 0.3011
72.9400 24.2982 0.3067
72.9600 24.3048 0.3159
72.9800 24.3115 0.3018
73.0000 24.3182 0.3070
73.0200 24.3249 0.3136
73.0400 24.3316 0.3035
73.0600 24.3383 0.3034
73.0800 24.3449 0.3166
73.1000 24.3515 0.3011
73.1200 24.3581 0.3090
73.1400 24.3648 0.3119
73.1600 24.3715 0.3061
73.1800 24.3782 0.3003
73.2000 24.3849 0.3117
73.2200 24.3916 0.3069
73.2400 24.3982 0.3004
73.2600 24.4049 0.3075
73.2800 24.4115 0.3031
73.3000 24.4181 0.2990
73.3200 24.4248 0.3115
73.3400 24.4315 0.3027
73.3600 24.4382 0.2967
73.3800 24.4449 0.3039
73.4000 24.4515 0.3074
73.4200 24.4582 0.2986
73.4400 24.4649 0.3057
73.4600 24.4716 0.3031
73.4800 24.4782 0.2953
73.5000 24.4848 0.3123
73.5200 24.4915 0.2996
73.5400 24.4982 0.2942
73.5600 24.5049 0.3098
73.5800 24.5116 0.3036
73.6000 24.5183 0.2889
73.6200 24.5249 0.3070
73.6400 24.5316 0.3035
73.6600 24.5382 0.2910
73.6800 24.5448 0.3023
73.7000 24.5515 0.3008
73.7200 24.5582 0.2894
73.7400 24.5649 0.3039
73.7600 24.5716 0.2981
73.7800 24.5783 0.2922
73.8000 24.5849 0.3005
73.8200 24.5916 0.2985
73.8400 24.5982 0.2854
73.8600 24.6048 0.3012
73.8800 24.6115 0.3027
73.9000 24.6182 0.2814
73.9200 24.6249 0.3013
73.9400 24.6316 0.3035
73.9600 24.6383 0.2828
73.9800 24.6449 0.2984
74.0000 24.6515 0.3017
74.0200 24.6581 0.2821
74.0400 24.6648 0.2976
74.0600 24.6715 0.2979
74.0800 24.6782 0.2790
74.1000 24.6849 0.2996
74.1200 24.6916 0.2987
74.1400 24.6982 0.2749
74.1600 24.7049 0.3023
74.1800 24.7115 0.2907
74.2000 24.7182 0.2810
74.2200 24.7248 0.3055
74.2400 24.7315 0.2914
74.2600 24.7382 0.2789
74.2800 24.7449 0.3046
74.3000 24.7516 0.2877
74.3200 24.7583 0.2810
74.3400 24.7650 0.3047
74.3600 24.7716 0.2865
74.3800 24.7782 0.2821
74.4000 24.7848 0.3055
74.4200 24.7915 0.2872
74.4400 24.7982 0.2834
74.4600 24.8049 0.2992
74.4800 24.8116 0.2851
74.5000 24.8183 0.2880
74.5200 24.8249 0.2955
74.5400 24.8315 0.2849
74.5600 24.8381 0.2858
74.5800 24.8448 0.3007
74.6000 24.8515 0.2862
74.6200 24.8582 0.2865
74.6400 24.8649 0.2945
74.6600 24.8716 0.2884
74.6800 24.8782 0.2849
74.7000 24.8849 0.2905
74.7200 24.8916 0.2874
74.7400 24.8982 0.2892
74.7600 24.9048 0.2899
74.7800 24.9115 0.2914
74.8000 24.9182 0.2845
74.8200 24.9249 0.2929
74.8400 24.9315 0.2891
74.8600 24.9382 0.2871
74.8800 24.9449 0.2912
74.9000 24.9516 0.2909
74.9200 24.9582 0.2808
74.9400 24.9648 0.2900
74.9600 24.9715 0.2943
74.9800 24.9782 0.2823
75.0000 24.9849 0.2918
75.0200 24.9916 0.2871
75.0400 24.9983 0.2862
75.0600 25.0049 0.2922
75.0800 25.0116 0.2915
75.1000 25.0182 0.2806
75.1200 25.0248 0.2932
75.1400 25.0315 0.2900
75.1600 25.0382 0.2789
75.1800 25.0449 0.2904
75.2000 25.0516 0.2917
75.2200 25.0583 0.2766
75.2400 25.0649 0.2882
75.2600 25.0716 0.2906
75.2800 25.0782 0.2789
75.3000 25.0848 0.2907
75.3200 25.0915 0.2873
75.3400 25.0982 0.2740
75.3600 25.1049 0.2919
75.3800 25.1115 0.2872
75.4000 25.1182 0.2777
75.4200 25.1249 0.2909
75.4400 25.1316 0.2844
75.4600 25.1382 0.2780
75.4800 25.1448 0.2907
75.5000 25.1514 0.2838
75.5200 25.1582 0.2746
75.5400 25.1649 0.2846
75.5600 25.1715 0.2802
75.5800 25.1782 0.2851
75.6000 25.1849 0.2857
75.6200 25.1915 0.2772
75.6400 25.1982 0.2847
75.6600 25.2048 0.2831
75.6800 25.2115 0.2802
75.7000 25.2182 0.2808
75.7200 25.2249 0.2772
75.7400 25.2316 0.2804
75.7600 25.2383 0.2760
75.7800 25.2450 0.2837
75.8000 25.2516 0.2788
75.8200 25.2582 0.2810
75.8400 25.2648 0.2783
75.8600 25.2715 0.2824
75.8800 25.2782 0.2785
75.9000 25.2849 0.2730
75.9200 25.2916 0.2801
75.9400 25.2983 0.2767
75.9600 25.3050 0.2735
75.9800 25.3116 0.2789
76.0000 25.3182 0.2775
76.0200 25.3248 0.2757
76.0400 25.3315 0.2743
76.0600 25.3382 0.2738
76.0800 25.3449 0.2728
76.1000 25.3516 0.2729
76.1200 25.3583 0.2748
76.1400 25.3650 0.2700
76.1600 25.3716 0.2804
76.1800 25.3781 0.2707
76.2000 25.3847 0.2701
76.2200 25.3914 0.2775
76.2400 25.3982 0.2725
76.2600 25.4049 0.2636
76.2800 25.4116 0.2779
76.3000 25.4182 0.2743
76.3200 25.4249 0.2632
76.3400 25.4315 0.2708
76.3600 25.4382 0.2764
76.3800 25.4448 0.2653
76.4000 25.4515 0.2730
76.4200 25.4582 0.2705
76.4400 25.4649 0.2602
76.4600 25.4716 0.2777
76.4800 25.4783 0.2747
76.5000 25.4850 0.2577
76.5200 25.4916 0.2709
76.5400 25.4982 0.2763
76.5600 25.5048 0.2601
76.5800 25.5115 0.2721
76.6000 25.5182 0.2691
76.6200 25.5249 0.2637
76.6400 25.5316 0.2714
76.6600 25.5383 0.2634
76.6800 25.5449 0.2637
76.7000 25.5516 0.2777
76.7200 25.5582 0.2541
76.7400 25.5648 0.2660
76.7600 25.5715 0.2808
76.7800 25.5782 0.2594
76.8000 25.5849 0.2570
76.8200 25.5916 0.2727
76.8400 25.5982 0.2599
76.8600 25.6049 0.2634
76.8800 25.6115 0.2700
76.9000 25.6182 0.2577
76.9200 25.6248 0.2613
76.9400 25.6315 0.2680
76.9600 25.6382 0.2607
76.9800 25.6449 0.2643
77.0000 25.6516 0.2592
77.0200 25.6583 0.2638
77.0400 25.6650 0.2586
77.0600 25.6716 0.2597
77.0800 25.6782 0.2694
77.1000 25.6848 0.2543
77.1200 25.6915 0.2585
77.1400 25.6982 0.2663
77.1600 25.7049 0.2584
77.1800 25.7116 0.2575
77.2000 25.7183 0.2658
77.2200 25.7250 0.2544
77.2400 25.7316 0.2616
77.2600 25.7382 0.2669
77.2800 25.7448 0.2525
77.3000 25.7515 0.2594
77.3200 25.7582 0.2698
77.3400 25.7649 0.2461
77.3600 25.7716 0.2658
77.3800 25.7782 0.2665
77.4000 25.7849 0.2487
77.4200 25.7916 0.2578
77.4400 25.7982 0.2610
77.4600 25.8049 0.2523
77.4800 25.8115 0.2698
77.5000 25.8182 0.2570
77.5200 25.8249 0.2480
77.5400 25.8315 0.2693
77.5600 25.8382 0.2633
77.5800 25.8449 0.2449
77.6000 25.8516 0.2625
77.6200 25.8582 0.2593
77.6400 25.8648 0.2507
77.6600 25.8714 0.2617
77.6800 25.8781 0.2569
77.7000 25.8849 0.2606
77.7200 25.8916 0.2546
77.7400 25.8982 0.2535
77.7600 25.9049 0.2592
77.7800 25.9115 0.2587
77.8000 25.9182 0.2543
77.8200 25.9248 0.2557
77.8400 25.9315 0.2574
77.8600 25.9382 0.2577
77.8800 25.9449 0.2506
77.9000 25.9516 0.2514
77.9200 25.9583 0.2574
77.9400 25.9649 0.2573
77.9600 25.9716 0.2493
77.9800 25.9782 0.2546
78.0000 25.9848 0.2491
78.0200 25.9915 0.2559
78.0400 25.9982 0.2525
78.0600 26.0049 0.2475
78.0800 26.0116 0.2528
78.1000 26.0183 0.2482
78.1200 26.0250 0.2474
78.1400 26.0316 0.2526
78.1600 26.0382 0.2512
78.1800 26.0448 0.2488
78.2000 26.0515 0.2502
78.2200 26.0582 0.2467
78.2400 26.0649 0.2507
78.2600 26.0716 0.2434
78.2800 26.0783 0.2438
78.3000 26.0849 0.2476
78.3200 26.0916 0.2510
78.3400 26.0982 0.2427
78.3600 26.1048 0.2510
78.3800 26.1114 0.2482
78.4000 26.1181 0.2454
78.4200 26.1248 0.2446
78.4400 26.1315 0.2406
78.4600 26.1382 0.2497
78.4800 26.1449 0.2432
78.5000 26.1516 0.2372
78.5200 26.1582 0.2416
78.5400 26.1648 0.2417
78.5600 26.1715 0.2485
78.5800 26.1782 0.2447
78.6000 26.1849 0.2348
78.6200 26.1916 0.2463
78.6400 26.1983 0.2412
78.6600 26.2050 0.2322
78.6800 26.2116 0.2459
78.7000 26.2182 0.2408
78.7200 26.2248 0.2325
78.7400 26.2315 0.2472
78.7600 26.2382 0.2386
78.7800 26.2449 0.2420
78.8000 26.2516 0.2438
78.8200 26.2583 0.2366
78.8400 26.2649 0.2372
78.8600 26.2716 0.2401
78.8800 26.2782 0.2361
78.9000 26.2848 0.2410
78.9200 26.2915 0.2353
78.9400 26.2982 0.2381
78.9600 26.3049 0.2407
78.9800 26.3116 0.2388
79.0000 26.3182 0.2425
79.0200 26.3249 0.2360
79.0400 26.3316 0.2257
79.0600 26.3382 0.2402
79.0800 26.3448 0.2445
79.1000 26.3514 0.2280
79.1200 26.3581 0.2368
79.1400 26.3649 0.2379
79.1600 26.3716 0.2289
79.1800 26.3783 0.2379
79.2000 26.3849 0.2395
79.2200 26.3916 0.2332
79.2400 26.3982 0.2351
79.2600 26.4048 0.2328
79.2800 26.4115 0.2384
79.3000 26.4182 0.2397
79.3200 26.4249 0.2376
79.3400 26.4316 0.2236
79.3600 26.4382 0.2407
79.3800 26.4449 0.2397
79.4000 26.4516 0.2305
79.4200 26.4583 0.2328
79.4400 26.4649 0.2379
79.4600 26.4715 0.2317
79.4800 26.4782 0.2326
79.5000 26.4849 0.2391
79.5200 26.4916 0.2355
79.5400 26.4983 0.2343
79.5600 26.5050 0.2399
79.5800 26.5116 0.2291
79.6000 26.5183 0.2358
79.6200 26.5248 0.2415
79.6400 26.5315 0.2345
79.6600 26.5381 0.2335
79.6800 26.5448 0.2400
79.7000 26.5516 0.2344
79.7200 26.5582 0.2301
79.7400 26.5649 0.2419
79.7600 26.5716 0.2305
79.7800 26.5782 0.2301
79.8000 26.5848 0.2416
79.8200 26.5914 0.2314
79.8400 26.5981 0.2316
79.8600 26.6048 0.2396
79.8800 26.6115 0.2240
79.9000 26.6182 0.2356
79.9200 26.6249 0.2465
79.9400 26.6315 0.2243
79.9600 26.6382 0.2313
79.9800 26.6448 0.2440
80.0000 26.6515 0.2210
80.0200 26.6582 0.2381
80.0400 26.6649 0.2426
80.0600 26.6716 0.2226
80.0800 26.6783 0.2359
80.1000 26.6850 0.2433
80.1200 26.6916 0.2240
80.1400 26.6983 0.2355
80.1600 26.7049 0.2425
80.1800 26.7115 0.2230
80.2000 26.7182 0.2380
80.2200 26.7249 0.2339
80.2400 26.7316 0.2267
80.2600 26.7383 0.2347
80.2800 26.7449 0.2358
80.3000 26.7516 0.2258
80.3200 26.7582 0.2331
80.3400 26.7648 0.2325
80.3600 26.7715 0.2302
80.3800 26.7782 0.2289
80.4000 26.7849 0.2353
80.4200 26.7916 0.2286
80.4400 26.7982 0.2283
80.4600 26.8049 0.2349
80.4800 26.8116 0.2279
80.5000 26.8182 0.2242
80.5200 26.8249 0.2315
80.5400 26.8315 0.2243
80.5600 26.8381 0.2260
80.5800 26.8448 0.2347
80.6000 26.8515 0.2230
80.6200 26.8582 0.2232
80.6400 26.8649 0.2333
80.6600 26.8715 0.2203
80.6800 26.8782 0.2200
80.7000 26.8848 0.2307
80.7200 26.8915 0.2220
80.7400 26.8981 0.2234
80.7600 26.9049 0.2290
80.7800 26.9116 0.2214
80.8000 26.9183 0.2218
80.8200 26.9250 0.2286
80.8400 26.9316 0.2130
80.8600 26.9382 0.2193
80.8800 26.9448 0.2296
80.9000 26.9515 0.2178
80.9200 26.9582 0.2173
80.9400 26.9649 0.2313
80.9600 26.9716 0.2073
80.9800 26.9783 0.2199
81.0000 26.9849 0.2278
81.0200 26.9916 0.2134
81.0400 26.9983 0.2174
81.0600 27.0049 0.2259
81.0800 27.0115 0.2116
81.1000 27.0181 0.2199
81.1200 27.0248 0.2232
81.1400 27.0315 0.2114
81.1600 27.0382 0.2186
81.1800 27.0449 0.2283
81.2000 27.0516 0.2109
81.2200 27.0582 0.2128
81.2400 27.0648 0.2227
81.2600 27.0714 0.2109
81.2800 27.0781 0.2198
81.3000 27.0848 0.2178
81.3200 27.0915 0.2111
81.3400 27.0982 0.2156
81.3600 27.1049 0.2259
81.3800 27.1116 0.2081
81.4000 27.1182 0.2150
81.4200 27.1249 0.2215
81.4400 27.1315 0.2080
81.4600 27.1382 0.2166
81.4800 27.1449 0.2228
81.5000 27.1516 0.2093
81.5200 27.1582 0.2128
81.5400 27.1649 0.2215
81.5600 27.1716 0.2104
81.5800 27.1783 0.2066
81.6000 27.1849 0.2257
81.6200 27.1915 0.2058
81.6400 27.1981 0.2120
81.6600 27.2048 0.2242
81.6800 27.2116 0.2088
81.7000 27.2183 0.2078
81.7200 27.2249 0.2165
81.7400 27.2316 0.2143
81.7600 27.2383 0.2067
81.7800 27.2449 0.2152
81.8000 27.2515 0.2063
81.8200 27.2582 0.2126
81.8400 27.2649 0.2156
81.8600 27.2716 0.2044
81.8800 27.2783 0.2075
81.9000 27.2849 0.2144
81.9200 27.2916 0.2069
81.9400 27.2982 0.2067
81.9600 27.3049 0.2094
81.9800 27.3115 0.2113
82.0000 27.3181 0.2094
82.0200 27.3248 0.2079
82.0400 27.3315 0.2041
82.0600 27.3382 0.2123
82.0800 27.3449 0.2108
82.1000 27.3515 0.2039
82.1200 27.3582 0.2102
82.1400 27.3648 0.2081
82.1600 27.3715 0.2080
82.1800 27.3781 0.2087
82.2000 27.3848 0.2026
82.2200 27.3916 0.2081
82.2400 27.3983 0.2102
82.2600 27.4050 0.2073
82.2800 27.4117 0.2036
82.3000 27.4183 0.2071
82.3200 27.4249 0.2067
82.3400 27.4315 0.2093
82.3600 27.4382 0.2071
82.3800 27.4449 0.1991
82.4000 27.4516 0.2176
82.4200 27.4583 0.2039
82.4400 27.4649 0.1939
82.4600 27.4716 0.2157
82.4800 27.4783 0.2110
82.5000 27.4849 0.1949
82.5200 27.4915 0.2077
82.5400 27.4981 0.2052
82.5600 27.5048 0.2035
82.5800 27.5115 0.2052
82.6000 27.5182 0.2015
82.6200 27.5249 0.2029
82.6400 27.5316 0.2116
82.6600 27.5383 0.2003
82.6800 27.5449 0.1961
82.7000 27.5515 0.2064
82.7200 27.5581 0.2061
82.7400 27.5648 0.2041
82.7600 27.5715 0.1998
82.7800 27.5782 0.2058
82.8000 27.5849 0.1999
82.8200 27.5916 0.2026
82.8400 27.5982 0.2022
82.8600 27.6049 0.2016
82.8800 27.6115 0.2006
82.9000 27.6181 0.2016
82.9200 27.6248 0.2008
82.9400 27.6316 0.1996
82.9600 27.6383 0.2031
82.9800 27.6449 0.1996
83.0000 27.6516 0.1957
83.0200 27.6583 0.2045
83.0400 27.6649 0.1945
83.0600 27.6715 0.1984
83.0800 27.6782 0.1999
83.1000 27.6849 0.1980
83.1200 27.6916 0.2006
83.1400 27.6982 0.2003
83.1600 27.7049 0.1942
83.1800 27.7116 0.1967
83.2000 27.7183 0.1996
83.2200 27.7249 0.1918
83.2400 27.7315 0.2008
83.2600 27.7381 0.1997
83.2800 27.7448 0.1908
83.3000 27.7515 0.1995
83.3200 27.7582 0.2014
83.3400 27.7649 0.1907
83.3600 27.7716 0.1947
83.3800 27.7783 0.1956
83.4000 27.7849 0.1958
83.4200 27.7914 0.1989
83.4400 27.7981 0.1982
83.4600 27.8048 0.1948
83.4800 27.8115 0.1961
83.5000 27.8182 0.1927
83.5200 27.8249 0.1988
83.5400 27.8316 0.1960
83.5600 27.8382 0.1892
83.5800 27.8449 0.1909
83.6000 27.8515 0.1927
83.6200 27.8582 0.1937
83.6400 27.8649 0.1949
83.6600 27.8716 0.1907
83.6800 27.8782 0.1939
83.7000 27.8849 0.1915
83.7200 27.8916 0.1919
83.7400 27.8983 0.1967
83.7600 27.9049 0.1880
83.7800 27.9115 0.1929
83.8000 27.9181 0.1957
83.8200 27.9248 0.1868
83.8400 27.9316 0.1962
83.8600 27.9383 0.1913
83.8800 27.9450 0.1858
83.9000 27.9516 0.1961
83.9200 27.9583 0.1937
83.9400 27.9649 0.1884
83.9600 27.9715 0.1907
83.9800 27.9781 0.2005
84.0000 27.9848 0.1854
84.0200 27.9916 0.1908
84.0400 27.9982 0.1999
84.0600 28.0049 0.1831
84.0800 28.0116 0.1868
84.1000 28.0183 0.1991
84.1200 28.0249 0.1851
84.1400 28.0315 0.1903
84.1600 28.0381 0.1982
84.1800 28.0448 0.1886
84.2000 28.0515 0.1892
84.2200 28.0582 0.1985
84.2400 28.0649 0.1886
84.2600 28.0716 0.1900
84.2800 28.0782 0.1975
84.3000 28.0849 0.1829
84.3200 28.0915 0.1882
84.3400 28.0981 0.1941
84.3600 28.1048 0.1868
84.3800 28.1116 0.1867
84.4000 28.1183 0.1925
84.4200 28.1250 0.1880
84.4400 28.1317 0.1922
84.4600 28.1383 0.1880
84.4800 28.1449 0.1826
84.5000 28.1515 0.1925
84.5200 28.1582 0.1971
84.5400 28.1649 0.1794
84.5600 28.1716 0.1891
84.5800 28.1783 0.1895
84.6000 28.1849 0.1829
84.6200 28.1916 0.1943
84.6400 28.1982 0.1904
84.6600 28.2049 0.1766
84.6800 28.2115 0.1915
84.7000 28.2181 0.1882
84.7200 28.2248 0.1791
84.7400 28.2315 0.1957
84.7600 28.2382 0.1803
84.7800 28.2449 0.1746
84.8000 28.2516 0.1951
84.8200 28.2583 0.1822
84.8400 28.2649 0.1807
84.8600 28.2715 0.1926
84.8800 28.2781 0.1801
84.9000 28.2848 0.1828
84.9200 28.2915 0.1850
84.9400 28.2982 0.1803
84.9600 28.3049 0.1814
84.9800 28.3116 0.1916
85.0000 28.3182 0.1765
85.0200 28.3249 0.1809
85.0400 28.3315 0.1892
85.0600 28.3381 0.1820
85.0800 28.3448 0.1801
85.1000 28.3515 0.1872
85.1200 28.3583 0.1806
85.1400 28.3649 0.1835
85.1600 28.3716 0.1809
85.1800 28.3783 0.1819
85.2000 28.3850 0.1810
85.2200 28.3916 0.1874
85.2400 28.3982 0.1826
85.2600 28.4048 0.1756
85.2800 28.4115 0.1889
85.3000 28.4183 0.1788
85.3200 28.4249 0.1715
85.3400 28.4316 0.1869
85.3600 28.4383 0.1787
85.3800 28.4449 0.1683
85.4000 28.4515 0.1922
85.4200 28.4581 0.1773
85.4400 28.4648 0.1720
85.4600 28.4715 0.1880
85.4800 28.4782 0.1755
85.5000 28.4849 0.1688
85.5200 28.4916 0.1900
85.5400 28.4982 0.1719
85.5600 28.5049 0.1746
85.5800 28.5115 0.1863
85.6000 28.5181 0.1734
85.6200 28.5248 0.1761
85.6400 28.5315 0.1836
85.6600 28.5382 0.1691
85.6800 28.5449 0.1806
85.7000 28.5515 0.1816
85.7200 28.5582 0.1666
85.7400 28.5649 0.1825
85.7600 28.5715 0.1734
85.7800 28.5782 0.1693
85.8000 28.5848 0.1860
85.8200 28.5915 0.1750
85.8400 28.5982 0.1679
85.8600 28.6049 0.1818
85.8800 28.6116 0.1721
85.9000 28.6183 0.1715
85.9200 28.6250 0.1819
85.9400 28.6315 0.1708
85.9600 28.6381 0.1673
85.9800 28.6448 0.1819
86.0000 28.6515 0.1700
86.0200 28.6583 0.1715
86.0400 28.6650 0.1783
86.0600 28.6716 0.1743
86.0800 28.6783 0.1682
86.1000 28.6849 0.1764
86.1200 28.6915 0.1709
86.1400 28.6982 0.1719
86.1600 28.7048 0.1738
86.1800 28.7115 0.1694
86.2000 28.7182 0.1714
86.2200 28.7249 0.1685
86.2400 28.7316 0.1718
86.2600 28.7383 0.1708
86.2800 28.7449 0.1696
86.3000 28.7515 0.1689
86.3200 28.7581 0.1726
86.3400 28.7647 0.1769
86.3600 28.7715 0.1683
86.3800 28.7782 0.1661
86.4000 28.7849 0.1699
86.4200 28.7915 0.1665
86.4400 28.7982 0.1688
86.4600 28.8049 0.1662
86.4800 28.8115 0.1673
86.5000 28.8181 0.1690
86.5200 28.8248 0.1753
86.5400 28.8315 0.1638
86.5600 28.8383 0.1637
86.5800 28.8450 0.1738
86.6000 28.8516 0.1668
86.6200 28.8583 0.1619
86.6400 28.8650 0.1702
86.6600 28.8716 0.1620
86.6800 28.8782 0.1661
86.7000 28.8849 0.1656
86.7200 28.8916 0.1631
86.7400 28.8983 0.1637
86.7600 28.9049 0.1682
86.7800 28.9116 0.1604
86.8000 28.9183 0.1637
86.8200 28.9249 0.1712
86.8400 28.9315 0.1621
86.8600 28.9381 0.1590
86.8800 28.9448 0.1680
86.9000 28.9515 0.1676
86.9200 28.9582 0.1598
86.9400 28.9649 0.1641
86.9600 28.9716 0.1642
86.9800 28.9782 0.1585
87.0000 28.9849 0.1615
87.0200 28.9915 0.1658
87.0400 28.9981 0.1573
87.0600 29.0048 0.1687
87.0800 29.0115 0.1602
87.1000 29.0182 0.1578
87.1200 29.0249 0.1639
87.1400 29.0316 0.1625
87.1600 29.0382 0.1555
87.1800 29.0449 0.1628
87.2000 29.0516 0.1586
87.2200 29.0582 0.1612
87.2400 29.0649 0.1650
87.2600 29.0715 0.1621
87.2800 29.0782 0.1566
87.3000 29.0849 0.1621
87.3200 29.0916 0.1602
87.3400 29.0983 0.1534
87.3600 29.1050 0.1593
87.3800 29.1116 0.1579
87.4000 29.1182 0.1546
87.4200 29.1248 0.1621
87.4400 29.1315 0.1596
87.4600 29.1382 0.1491
87.4800 29.1450 0.1609
87.5000 29.1516 0.1568
87.5200 29.1583 0.1503
87.5400 29.1649 0.1617
87.5600 29.1715 0.1587
87.5800 29.1781 0.1513
87.6000 29.1848 0.1624
87.6200 29.1915 0.1565
87.6400 29.1982 0.1527
87.6600 29.2049 0.1611
87.6800 29.2115 0.1595
87.7000 29.2182 0.1525
87.7200 29.2249 0.1584
87.7400 29.2315 0.1505
87.7600 29.2382 0.1550
87.7800 29.2448 0.1563
87.8000 29.2515 0.1515
87.8200 29.2582 0.1548
87.8400 29.2649 0.1539
87.8600 29.2715 0.1522
87.8800 29.2783 0.1501
87.9000 29.2849 0.1512
87.9200 29.2916 0.1484
87.9400 29.2982 0.1548
87.9600 29.3048 0.1518
87.9800 29.3115 0.1544
88.0000 29.3182 0.1517
88.0200 29.3250 0.1503
88.0400 29.3316 0.1496
88.0600 29.3383 0.1555
88.0800 29.3449 0.1492
88.1000 29.3516 0.1513
88.1200 29.3582 0.1523
88.1400 29.3648 0.1502
88.1600 29.3715 0.1493
88.1800 29.3782 0.1491
88.2000 29.3849 0.1478
88.2200 29.3916 0.1518
88.2400 29.3983 0.1486
88.2600 29.4050 0.1447
88.2800 29.4116 0.1482
88.3000 29.4182 0.1505
88.3200 29.4248 0.1456
88.3400 29.4315 0.1440
88.3600 29.4382 0.1491
88.3800 29.4449 0.1458
88.4000 29.4516 0.1465
88.4200 29.4583 0.1500
88.4400 29.4649 0.1420
88.4600 29.4716 0.1417
88.4800 29.4781 0.1494
88.5000 29.4847 0.1447
88.5200 29.4914 0.1464
88.5400 29.4982 0.1419
88.5600 29.5049 0.1431
88.5800 29.5116 0.1428
88.6000 29.5182 0.1477
88.6200 29.5249 0.1425
88.6400 29.5316 0.1478
88.6600 29.5382 0.1411
88.6800 29.5448 0.1432
88.7000 29.5515 0.1437
88.7200 29.5582 0.1428
88.7400 29.5649 0.1452
88.7600 29.5716 0.1451
88.7800 29.5783 0.1396
88.8000 29.5850 0.1485
88.8200 29.5916 0.1434
88.8400 29.5982 0.1371
88.8600 29.6048 0.1453
88.8800 29.6115 0.1477
88.9000 29.6182 0.1335
88.9200 29.6249 0.1435
88.9400 29.6316 0.1458
88.9600 29.6383 0.1321
88.9800 29.6449 0.1452
89.0000 29.6515 0.1477
89.0200 29.6581 0.1308
89.0400 29.6648 0.1338
89.0600 29.6714 0.1541
89.0800 29.6782 0.1338
89.1000 29.6849 0.1314
89.1200 29.6916 0.1505
89.1400 29.6983 0.1405
89.1600 29.7049 0.1270
89.1800 29.7116 0.1464
89.2000 29.7182 0.1401
89.2200 29.7248 0.1293
89.2400 29.7315 0.1490
89.2600 29.7382 0.1381
89.2800 29.7449 0.1228
89.3000 29.7516 0.1491
89.3200 29.7582 0.1439
89.3400 29.7649 0.1258
89.3600 29.7716 0.1380
89.3800 29.7782 0.1489
89.4000 29.7848 0.1295
89.4200 29.7915 0.1377
89.4400 29.7982 0.1461
89.4600 29.8049 0.1267
89.4800 29.8116 0.1401
89.5000 29.8183 0.1436
89.5200 29.8249 0.1289
89.5400 29.8316 0.1351
89.5600 29.8382 0.1435
89.5800 29.8448 0.1336
89.6000 29.8515 0.1402
89.6200 29.8582 0.1391
89.6400 29.8649 0.1283
89.6600 29.8716 0.1350
89.6800 29.8783 0.1423
89.7000 29.8850 0.1345
89.7200 29.8916 0.1336
89.7400 29.8982 0.1401
89.7600 29.9048 0.1339
89.7800 29.9115 0.1322
89.8000 29.9182 0.1432
89.8200 29.9249 0.1374
89.8400 29.9315 0.1278
89.8600 29.9382 0.1349
89.8800 29.9449 0.1384
89.9000 29.9515 0.1242
89.9200 29.9581 0.1365
89.9400 29.9647 0.1381
89.9600 29.9714 0.1263
89.9800 29.9782 0.1384
90.0000 29.9849 0.1392
90.0200 29.9916 0.1243
90.0400 29.9983 0.1357
90.0600 30.0050 0.1400
90.0800 30.0116 0.1241
90.1000 30.0182 0.1381
90.1200 30.0248 0.1367
90.1400 30.0315 0.1278
90.1600 30.0383 0.1318
90.1800 30.0450 0.1319
90.2000 30.0516 0.1315
90.2200 30.0583 0.1357
90.2400 30.0649 0.1242
90.2600 30.0716 0.1274
90.2800 30.0782 0.1360
90.3000 30.0848 0.1370
90.3200 30.0915 0.1237
90.3400 30.0982 0.1288
90.3600 30.1049 0.1305
90.3800 30.1116 0.1295
90.4000 30.1183 0.1318
90.4200 30.1250 0.1235
90.4400 30.1316 0.1285
90.4600 30.1382 0.1357
90.4800 30.1448 0.1194
90.5000 30.1514 0.1289
90.5200 30.1581 0.1424
90.5400 30.1648 0.1142
90.5600 30.1715 0.1318
90.5800 30.1782 0.1380
90.6000 30.1849 0.1199
90.6200 30.1916 0.1323
90.6400 30.1982 0.1317
90.6600 30.2048 0.1157
90.6800 30.2114 0.1370
90.7000 30.2181 0.1285
90.7200 30.2249 0.1128
90.7400 30.2315 0.1360
90.7600 30.2382 0.1362
90.7800 30.2449 0.1093
90.8000 30.2515 0.1342
90.8200 30.2582 0.1308
90.8400 30.2648 0.1167
90.8600 30.2715 0.1377
90.8800 30.2782 0.1235
90.9000 30.2849 0.1118
90.9200 30.2916 0.1373
90.9400 30.2983 0.1286
90.9600 30.3050 0.1141
90.9800 30.3116 0.1347
91.0000 30.3182 0.1201
91.0200 30.3248 0.1172
91.0400 30.3315 0.1380
91.0600 30.3382 0.1215
91.0800 30.3449 0.1157
91.1000 30.3516 0.1359
91.1200 30.3583 0.1176
91.1400 30.3650 0.1177
91.1600 30.3716 0.1328
91.1800 30.3782 0.1167
91.2000 30.3848 0.1143
91.2200 30.3915 0.1374
91.2400 30.3982 0.1155
91.2600 30.4049 0.1178
91.2800 30.4115 0.1254
91.3000 30.4182 0.1185
91.3200 30.4249 0.1182
91.3400 30.4315 0.1274
91.3600 30.4382 0.1132
91.3800 30.4448 0.1170
91.4000 30.4514 0.1320
91.4200 30.4581 0.1093
91.4400 30.4649 0.1172
91.4600 30.4715 0.1304
91.4800 30.4782 0.1076
91.5000 30.4849 0.1172
91.5200 30.4916 0.1260
91.5400 30.4982 0.1066
91.5600 30.5048 0.1186
91.5800 30.5115 0.1275
91.6000 30.5182 0.1090
91.6200 30.5249 0.1131
91.6400 30.5316 0.1239
91.6600 30.5383 0.1130
91.6800 30.5450 0.1139
91.7000 30.5516 0.1183
91.7200 30.5582 0.1164
91.7400 30.5648 0.1088
91.7600 30.5715 0.1217
91.7800 30.5782 0.1158
91.8000 30.5849 0.1143
91.8200 30.5916 0.1153
91.8400 30.5983 0.1137
91.8600 30.6049 0.1126
91.8800 30.6116 0.1130
91.9000 30.6182 0.1171
91.9200 30.6249 0.1097
91.9400 30.6315 0.1156
91.9600 30.6382 0.1177
91.9800 30.6449 0.1038
92.0000 30.6515 0.1197
92.0200 30.6582 0.1211
92.0400 30.6649 0.1031
92.0600 30.6716 0.1162
92.0800 30.6782 0.1152
92.1000 30.6848 0.1078
92.1200 30.6914 0.1153
92.1400 30.6981 0.1202
92.1600 30.7049 0.1032
92.1800 30.7116 0.1201
92.2000 30.7182 0.1125
92.2200 30.7249 0.1032
92.2400 30.7316 0.1187
92.2600 30.7382 0.1125
92.2800 30.7448 0.1036
92.3000 30.7515 0.1193
92.3200 30.7582 0.1094
92.3400 30.7649 0.1052
92.3600 30.7715 0.1161
92.3800 30.7782 0.1121
92.4000 30.7849 0.1042
92.4200 30.7916 0.1210
92.4400 30.7983 0.1077
92.4600 30.8049 0.1066
92.4800 30.8115 0.1244
92.5000 30.8182 0.1074
92.5200 30.8249 0.1130
92.5400 30.8316 0.1161
92.5600 30.8383 0.1070
92.5800 30.8450 0.1159
92.6000 30.8516 0.1153
92.6200 30.8582 0.1004
92.6400 30.8648 0.1149
92.6600 30.8715 0.1145
92.6800 30.8782 0.1081
92.7000 30.8849 0.1160
92.7200 30.8916 0.1121
92.7400 30.8983 0.1036
92.7600 30.9049 0.1153
92.7800 30.9116 0.1097
92.8000 30.9182 0.1109
92.8200 30.9248 0.1091
92.8400 30.9315 0.1087
92.8600 30.9382 0.1060
92.8800 30.9449 0.1100
92.9000 30.9515 0.1122
92.9200 30.9582 0.1066
92.9400 30.9649 0.1088
92.9600 30.9715 0.1121
92.9800 30.9782 0.1059
93.0000 30.9848 0.1071
93.0200 30.9915 0.1135
93.0400 30.9982 0.1034
93.0600 31.0049 0.1069
93.0800 31.0116 0.1100
93.1000 31.0183 0.1042
93.1200 31.0250 0.1072
93.1400 31.0316 0.1089
93.1600 31.0382 0.1035
93.1800 31.0448 0.1075
93.2000 31.0515 0.1097
93.2200 31.0582 0.1052
93.2400 31.0649 0.0997
93.2600 31.0716 0.1059
93.2800 31.0783 0.1052
93.3000 31.0849 0.1088
93.3200 31.0916 0.1003
93.3400 31.0982 0.1037
93.3600 31.1049 0.1065
93.3800 31.1115 0.1034
93.4000 31.1182 0.1005
93.4200 31.1249 0.1068
93.4400 31.1316 0.1044
93.4600 31.1382 0.0987
93.4800 31.1449 0.1018
93.5000 31.1516 0.1047
93.5200 31.1582 0.1001
93.5400 31.1648 0.1018
93.5600 31.1714 0.1042
93.5800 31.1781 0.0979
93.6000 31.1848 0.0998
93.6200 31.1916 0.1035
93.6400 31.1983 0.0974
93.6600 31.2049 0.0972
93.6800 31.2116 0.1037
93.7000 31.2182 0.0925
93.7200 31.2248 0.1029
93.7400 31.2315 0.1023
93.7600 31.2382 0.0939
93.7800 31.2449 0.0990
93.8000 31.2516 0.1003
93.8200 31.2583 0.0917
93.8400 31.2649 0.1040
93.8600 31.2716 0.0957
93.8800 31.2783 0.0923
93.9000 31.2849 0.0990
93.9200 31.2915 0.0996
93.9400 31.2982 0.0900
93.9600 31.3049 0.1016
93.9800 31.3116 0.0943
94.0000 31.3182 0.0870
94.0200 31.3249 0.1003
94.0400 31.3316 0.0937
94.0600 31.3383 0.0908
94.0800 31.3449 0.0953
94.1000 31.3515 0.0962
94.1200 31.3581 0.0888
94.1400 31.3649 0.0979
94.1600 31.3716 0.0950
94.1800 31.3782 0.0865
94.2000 31.3849 0.0949
94.2200 31.3916 0.0967
94.2400 31.3982 0.0889
94.2600 31.4048 0.0957
94.2800 31.4114 0.0947
94.3000 31.4181 0.0921
94.3200 31.4248 0.0957
94.3400 31.4315 0.0928
94.3600 31.4382 0.0907
94.3800 31.4449 0.0969
94.4000 31.4516 0.0909
94.4200 31.4582 0.0920
94.4400 31.4648 0.0902
94.4600 31.4715 0.0905
94.4800 31.4782 0.0944
94.5000 31.4849 0.0927
94.5200 31.4916 0.0861
94.5400 31.4983 0.0983
94.5600 31.5049 0.0875
94.5800 31.5116 0.0862
94.6000 31.5183 0.0946
94.6200 31.5249 0.0895
94.6400 31.5315 0.0885
94.6600 31.5381 0.0909
94.6800 31.5449 0.0946
94.7000 31.5516 0.0839
94.7200 31.5583 0.0888
94.7400 31.5649 0.0935
94.7600 31.5716 0.0821
94.7800 31.5783 0.0885
94.8000 31.5848 0.0967
94.8200 31.5915 0.0811
94.8400 31.5981 0.0884
94.8600 31.6049 0.0898
94.8800 31.6116 0.0803
94.9000 31.6182 0.0872
94.9200 31.6249 0.0957
94.9400 31.6316 0.0769
94.9600 31.6382 0.0836
94.9800 31.6449 0.0906
95.0000 31.6515 0.0813
95.0200 31.6581 0.0886
95.0400 31.6648 0.0886
95.0600 31.6716 0.0758
95.0800 31.6782 0.0863
95.1000 31.6849 0.0843
95.1200 31.6916 0.0795
95.1400 31.6982 0.0917
95.1600 31.7049 0.0811
95.1800 31.7115 0.0803
95.2000 31.7182 0.0850
95.2200 31.7249 0.0815
95.2400 31.7316 0.0814
95.2600 31.7383 0.0861
95.2800 31.7450 0.0788
95.3000 31.7516 0.0837
95.3200 31.7583 0.0813
95.3400 31.7649 0.0794
95.3600 31.7715 0.0794
95.3800 31.7782 0.0819
95.4000 31.7849 0.0807
95.4200 31.7916 0.0800
95.4400 31.7983 0.0787
95.4600 31.8049 0.0833
95.4800 31.8116 0.0773
95.5000 31.8183 0.0795
95.5200 31.8249 0.0812
95.5400 31.8315 0.0786
95.5600 31.8381 0.0797
95.5800 31.8448 0.0825
95.6000 31.8515 0.0756
95.6200 31.8582 0.0782
95.6400 31.8649 0.0841
95.6600 31.8716 0.0747
95.6800 31.8783 0.0831
95.7000 31.8849 0.0771
95.7200 31.8915 0.0758
95.7400 31.8981 0.0840
95.7600 31.9048 0.0769
95.7800 31.9115 0.0685
95.8000 31.9182 0.0842
95.8200 31.9249 0.0759
95.8400 31.9316 0.0728
95.8600 31.9382 0.0793
95.8800 31.9449 0.0745
95.9000 31.9515 0.0734
95.9200 31.9581 0.0839
95.9400 31.9648 0.0693
95.9600 31.9715 0.0754
95.9800 31.9782 0.0799
96.0000 31.9849 0.0712
96.0200 31.9916 0.0733
96.0400 31.9983 0.0800
96.0600 32.0049 0.0702
96.0800 32.0115 0.0711
96.1000 32.0181 0.0811
96.1200 32.0248 0.0728
96.1400 32.0316 0.0699
96.1600 32.0382 0.0785
96.1800 32.0449 0.0718
96.2000 32.0516 0.0698
96.2200 32.0583 0.0820
96.2400 32.0649 0.0670
96.2600 32.0715 0.0704
96.2800 32.0781 0.0788
96.3000 32.0849 0.0681
96.3200 32.0916 0.0680
96.3400 32.0983 0.0793
96.3600 32.1050 0.0675
96.3800 32.1116 0.0717
96.4000 32.1183 0.0790
96.4200 32.1249 0.0690
96.4400 32.1315 0.0712
96.4600 32.1381 0.0739
96.4800 32.1448 0.0616
96.5000 32.1515 0.0749
96.5200 32.1582 0.0760
96.5400 32.1649 0.0650
96.5600 32.1715 0.0666
96.5800 32.1782 0.0716
96.6000 32.1849 0.0624
96.6200 32.1915 0.0742
96.6400 32.1981 0.0744
96.6600 32.2048 0.0681
96.6800 32.2115 0.0720
96.7000 32.2183 0.0707
96.7200 32.2250 0.0676
96.7400 32.2317 0.0667
96.7600 32.2383 0.0730
96.7800 32.2449 0.0619
96.8000 32.2515 0.0731
96.8200 32.2581 0.0745
96.8400 32.2649 0.0646
96.8600 32.2716 0.0696
96.8800 32.2783 0.0712
96.9000 32.2850 0.0635
96.9200 32.2916 0.0716
96.9400 32.2983 0.0695
96.9600 32.3049 0.0638
96.9800 32.3115 0.0727
97.0000 32.3181 0.0697
97.0200 32.3248 0.0654
97.0400 32.3315 0.0710
97.0600 32.3382 0.0657
97.0800 32.3449 0.0696
97.1000 32.3516 0.0701
97.1200 32.3583 0.0675
97.1400 32.3649 0.0694
97.1600 32.3715 0.0693
97.1800 32.3781 0.0634
97.2000 32.3848 0.0695
97.2200 32.3915 0.0661
97.2400 32.3982 0.0616
97.2600 32.4049 0.0720
97.2800 32.4116 0.0655
97.3000 32.4183 0.0646
97.3200 32.4249 0.0682
97.3400 32.4315 0.0620
97.3600 32.4381 0.0667
97.3800 32.4448 0.0718
97.4000 32.4516 0.0581
97.4200 32.4583 0.0675
97.4400 32.4649 0.0647
97.4600 32.4716 0.0574
97.4800 32.4783 0.0672
97.5000 32.4849 0.0619
97.5200 32.4916 0.0602
97.5400 32.4982 0.0691
97.5600 32.5049 0.0615
97.5800 32.5116 0.0628
97.6000 32.5183 0.0652
97.6200 32.5249 0.0613
97.6400 32.5316 0.0627
97.6600 32.5383 0.0640
97.6800 32.5449 0.0555
97.7000 32.5515 0.0669
97.7200 32.5581 0.0662
97.7400 32.5648 0.0597
97.7600 32.5715 0.0657
97.7800 32.5782 0.0590
97.8000 32.5849 0.0593
97.8200 32.5916 0.0659
97.8400 32.5983 0.0567
97.8600 32.6049 0.0585
97.8800 32.6115 0.0689
97.9000 32.6181 0.0544
97.9200 32.6248 0.0584
97.9400 32.6315 0.0664
97.9600 32.6382 0.0498
97.9800 32.6449 0.0563
98.0000 32.6515 0.0729
98.0200 32.6582 0.0471
98.0400 32.6649 0.0597
98.0600 32.6715 0.0658
98.0800 32.6782 0.0428
98.1000 32.6848 0.0622
98.1200 32.6915 0.0673
98.1400 32.6982 0.0436
98.1600 32.7049 0.0628
98.1800 32.7116 0.0657
98.2000 32.7183 0.0424
98.2200 32.7249 0.0615
98.2400 32.7315 0.0640
98.2600 32.7381 0.0463
98.2800 32.7448 0.0636
98.3000 32.7515 0.0608
98.3200 32.7583 0.0471
98.3400 32.7649 0.0611
98.3600 32.7716 0.0575
98.3800 32.7783 0.0514
98.4000 32.7849 0.0597
98.4200 32.7915 0.0592
98.4400 32.7981 0.0478
98.4600 32.8048 0.0619
98.4800 32.8116 0.0589
98.5000 32.8183 0.0461
98.5200 32.8249 0.0581
98.5400 32.8316 0.0577
98.5600 32.8382 0.0451
98.5800 32.8449 0.0621
98.6000 32.8515 0.0571
98.6200 32.8581 0.0490
98.6400 32.8648 0.0594
98.6600 32.8715 0.0569
98.6800 32.8782 0.0480
98.7000 32.8849 0.0538
98.7200 32.8916 0.0573
98.7400 32.8983 0.0467
98.7600 32.9049 0.0518
98.7800 32.9115 0.0544
98.8000 32.9181 0.0445
98.8200 32.9248 0.0540
98.8400 32.9315 0.0535
98.8600 32.9383 0.0450
98.8800 32.9450 0.0522
98.9000 32.9517 0.0520
98.9200 32.9583 0.0439
98.9400 32.9649 0.0493
98.9600 32.9715 0.0562
98.9800 32.9781 0.0450
99.0000 32.9848 0.0504
99.0200 32.9916 0.0529
99.0400 32.9983 0.0436
99.0600 33.0049 0.0523
99.0800 33.0116 0.0574
99.1000 33.0183 0.0411
99.1200 33.0249 0.0483
99.1400 33.0315 0.0547
99.1600 33.0381 0.0445
99.1800 33.0448 0.0502
99.2000 33.0515 0.0580
99.2200 33.0582 0.0400
99.2400 33.0649 0.0455
99.2600 33.0716 0.0560
99.2800 33.0783 0.0391
99.3000 33.0849 0.0489
99.3200 33.0915 0.0530
99.3400 33.0981 0.0413
99.3600 33.1048 0.0494
99.3800 33.1115 0.0549
99.4000 33.1182 0.0351
99.4200 33.1249 0.0547
99.4400 33.1316 0.0515
99.4600 33.1382 0.0368
99.4800 33.1449 0.0520
99.5000 33.1515 0.0524
99.5200 33.1581 0.0366
99.5400 33.1648 0.0521
99.5600 33.1715 0.0478
99.5800 33.1782 0.0386
99.6000 33.1849 0.0472
99.6200 33.1916 0.0495
99.6400 33.1983 0.0325
99.6600 33.2049 0.0490
99.6800 33.2116 0.0468
99.7000 33.2182 0.0390
99.7200 33.2248 0.0501
99.7400 33.2315 0.0467
99.7600 33.2383 0.0402
99.7800 33.2450 0.0468
99.8000 33.2516 0.0490
99.8200 33.2583 0.0387
99.8400 33.2650 0.0452
99.8600 33.2715 0.0483
99.8800 33.2781 0.0367
99.9000 33.2848 0.0495
99.9200 33.2915 0.0514
99.9400 33.2982 0.0324
99.9600 33.3049 0.0475
99.9800 33.3116 0.0471
100.0000 33.3182 0.0361
100.0200 33.3249 0.0471
100.0400 33.3315 0.0448
100.0600 33.3381 0.0342
100.0800 33.3448 0.0523
100.1000 33.3515 0.0426
100.1200 33.3582 0.0345
100.1400 33.3649 0.0487
100.1600 33.3715 0.0455
100.1800 33.3782 0.0334
100.2000 33.3849 0.0468
100.2200 33.3916 0.0414
100.2400 33.3982 0.0399
100.2600 33.4048 0.0436
100.2800 33.4115 0.0388
100.3000 33.4182 0.0384
100.3200 33.4249 0.0439
100.3400 33.4316 0.0434
100.3600 33.4383 0.0409
100.3800 33.4450 0.0426
100.4000 33.4515 0.0377
100.4200 33.4581 0.0352
100.4400 33.4648 0.0446
100.4600 33.4715 0.0443
100.4800 33.4783 0.0360
100.5000 33.4850 0.0409
100.5200 33.4916 0.0380
100.5400 33.4983 0.0371
100.5600 33.5049 0.0417
100.5800 33.5115 0.0404
100.6000 33.5182 0.0334
100.6200 33.5248 0.0430
100.6400 33.5315 0.0434
100.6600 33.5382 0.0336
100.6800 33.5449 0.0374
100.7000 33.5516 0.0474
100.7200 33.5583 0.0310
100.7400 33.5649 0.0377
100.7600 33.5716 0.0426
100.7800 33.5781 0.0338
100.8000 33.5848 0.0400
100.8200 33.5914 0.0406
100.8400 33.5982 0.0344
100.8600 33.6049 0.0370
100.8800 33.6115 0.0414
100.9000 33.6182 0.0279
100.9200 33.6249 0.0390
100.9400 33.6315 0.0410
100.9600 33.6381 0.0341
100.9800 33.6448 0.0359
101.0000 33.6515 0.0408
101.0200 33.6582 0.0322
101.0400 33.6649 0.0285
101.0600 33.6716 0.0363
101.0800 33.6783 0.0353
101.1000 33.6850 0.0331
101.1200 33.6916 0.0358
101.1400 33.6982 0.0314
101.1600 33.7049 0.0400
101.1800 33.7115 0.0309
101.2000 33.7182 0.0351
101.2200 33.7249 0.0347
101.2400 33.7316 0.0296
101.2600 33.7383 0.0373
101.2800 33.7449 0.0337
101.3000 33.7516 0.0268
101.3200 33.7582 0.0374
101.3400 33.7648 0.0341
101.3600 33.7715 0.0297
101.3800 33.7782 0.0315
101.4000 33.7849 0.0308
101.4200 33.7916 0.0268
101.4400 33.7982 0.0359
101.4600 33.8049 0.0294
101.4800 33.8115 0.0241
101.5000 33.8181 0.0407
101.5200 33.8248 0.0262
101.5400 33.8315 0.0292
101.5600 33.8382 0.0380
101.5800 33.8449 0.0268
101.6000 33.8516 0.0296
101.6200 33.8582 0.0356
101.6400 33.8649 0.0256
101.6600 33.8716 0.0315
101.6800 33.8782 0.0338
101.7000 33.8848 0.0238
101.7200 33.8915 0.0289
101.7400 33.8982 0.0343
101.7600 33.9049 0.0222
101.7800 33.9116 0.0328
101.8000 33.9183 0.0276
101.8200 33.9249 0.0271
101.8400 33.9316 0.0306
101.8600 33.9382 0.0282
101.8800 33.9448 0.0313
101.9000 33.9515 0.0271
101.9200 33.9582 0.0269
101.9400 33.9649 0.0291
101.9600 33.9716 0.0251
101.9800 33.9783 0.0278
102.0000 33.9849 0.0272
102.0200 33.9915 0.0240
102.0400 33.9981 0.0287
102.0600 34.0048 0.0306
102.0800 34.0115 0.0221
102.1000 34.0182 0.0246
102.1200 34.0249 0.0322
102.1400 34.0316 0.0199
102.1600 34.0382 0.0327
102.1800 34.0449 0.0274
102.2000 34.0515 0.0210
102.2200 34.0582 0.0303
102.2400 34.0648 0.0287
102.2600 34.0715 0.0191
102.2800 34.0782 0.0274
102.3000 34.0849 0.0293
102.3200 34.0916 0.0223
102.3400 34.0982 0.0273
102.3600 34.1049 0.0308
102.3800 34.1116 0.0159
102.4000 34.1182 0.0315
102.4200 34.1248 0.0281
102.4400 34.1315 0.0147
102.4600 34.1382 0.0343
102.4800 34.1450 0.0218
102.5000 34.1516 0.0136
102.5200 34.1583 0.0302
102.5400 34.1649 0.0232
102.5600 34.1716 0.0131
102.5800 34.1782 0.0277
102.6000 34.1848 0.0260
102.6200 34.1915 0.0166
102.6400 34.1982 0.0278
102.6600 34.2049 0.0230
102.6800 34.2116 0.0131
102.7000 34.2183 0.0294
102.7200 34.2249 0.0236
102.7400 34.2316 0.0178
102.7600 34.2382 0.0237
102.7800 34.2448 0.0256
102.8000 34.2515 0.0138
102.8200 34.2582 0.0252
102.8400 34.2649 0.0206
102.8600 34.2716 0.0146
102.8800 34.2783 0.0251
102.9000 34.2849 0.0219
102.9200 34.2916 0.0139
102.9400 34.2981 0.0281
102.9600 34.3047 0.0219
102.9800 34.3114 0.0146
103.0000 34.3181 0.0281
103.0200 34.3249 0.0212
103.0400 34.3316 0.0145
103.0600 34.3382 0.0240
103.0800 34.3449 0.0193
103.1000 34.3516 0.0160
103.1200 34.3582 0.0223
103.1400 34.3648 0.0136
103.1600 34.3715 0.0185
103.1800 34.3782 0.0228
103.2000 34.3849 0.0148
103.2200 34.3916 0.0133
103.2400 34.3983 0.0255
103.2600 34.4050 0.0143
103.2800 34.4116 0.0168
103.3000 34.4182 0.0248
103.3200 34.4249 0.0148
103.3400 34.4315 0.0134
103.3600 34.4382 0.0252
103.3800 34.4449 0.0136
103.4000 34.4516 0.0137
103.4200 34.4583 0.0221
103.4400 34.4649 0.0109
103.4600 34.4716 0.0119
103.4800 34.4782 0.0219
103.5000 34.4848 0.0140
103.5200 34.4915 0.0137
103.5400 34.4982 0.0197
103.5600 34.5049 0.0115
103.5800 34.5116 0.0117
103.6000 34.5182 0.0171
103.6200 34.5249 0.0142
103.6400 34.5316 0.0136
103.6600 34.5382 0.0105
103.6800 34.5448 0.0161
103.7000 34.5515 0.0172
103.7200 34.5582 0.0067
103.7400 34.5649 0.0148
103.7600 34.5716 0.0119
103.7800 34.5782 0.0122
103.8000 34.5849 0.0114
103.8200 34.5916 0.0152
103.8400 34.5982 0.0102
103.8600 34.6048 0.0140
103.8800 34.6115 0.0140
103.9000 34.6182 0.0080
103.9200 34.6249 0.0070
103.9400 34.6316 0.0172
103.9600 34.6382 0.0067
103.9800 34.6449 0.0127
104.0000 34.6516 0.0134
104.0200 34.6582 0.0063
104.0400 34.6648 0.0133
104.0600 34.6715 0.0108
104.0800 34.6782 0.0065
104.1000 34.6849 0.0136
104.1200 34.6916 0.0119
104.1400 34.6983 0.0056
104.1600 34.7050 0.0102
104.1800 34.7116 0.0055
104.2000 34.7182 0.0067
104.2200 34.7248 0.0139
104.2400 34.7315 0.0077
104.2600 34.7382 0.0045
104.2800 34.7449 0.0143
104.3000 34.7515 0.0012
104.3200 34.7582 0.0070
104.3400 34.7649 0.0079
104.3600 34.7716 -0.0003
104.3800 34.7782 0.0030
104.4000 34.7848 0.0117
104.4200 34.7914 0.0006
104.4400 34.7981 0.0115
104.4600 34.8048 0.0040
104.4800 34.8116 -0.0018
104.5000 34.8182 0.0098
104.5200 34.8249 0.0048
104.5400 34.8316 0.0018
104.5600 34.8382 0.0069
104.5800 34.8448 0.0018
104.6000 34.8515 0.0041
104.6200 34.8582 0.0069
104.6400 34.8649 -0.0021
104.6600 34.8716 0.0045
104.6800 34.8783 0.0032
104.7000 34.8850 -0.0041
104.7200 34.8916 0.0042
104.7400 34.8982 0.0059
104.7600 34.9048 -0.0033
104.7800 34.9115 0.0058
104.8000 34.9182 0.0018
104.8200 34.9249 0.0010
104.8400 34.9316 0.0019
104.8600 34.9383 -0.0011
104.8800 34.9450 -0.0041
104.9000 34.9516 0.0097
104.9200 34.9582 -0.0007
104.9400 34.9648 -0.0036
104.9600 34.9715 0.0082
104.9800 34.9781 -0.0022
105.0000 34.9849 -0.0089
105.0200 34.9916 0.0073
105.0400 34.9983 0.0001
105.0600 35.0049 -0.0100
105.0800 35.0116 -0.0004
105.1000 35.0182 -0.0036
105.1200 35.0248 -0.0057
105.1400 35.0314 0.0077
105.1600 35.0381 -0.0062
105.1800 35.0449 -0.0098
105.2000 35.0516 0.0065
105.2200 35.0582 -0.0113
105.2400 35.0649 -0.0043
105.2600 35.0716 0.0046
105.2800 35.0782 -0.0130
105.3000 35.0848 -0.0030
105.3200 35.0915 0.0063
105.3400 35.0982 -0.0144
105.3600 35.1049 0.0015
105.3800 35.1116 -0.0010
105.4000 35.1183 -0.0137
105.4200 35.1249 0.0026
105.4400 35.1316 0.0001
105.4600 35.1382 -0.0198
105.4800 35.1448 0.0009
105.5000 35.1515 -0.0041
105.5200 35.1582 -0.0138
105.5400 35.1649 -0.0024
105.5600 35.1716 -0.0049
105.5800 35.1783 -0.0129
105.6000 35.1849 -0.0005
105.6200 35.1916 -0.0089
105.6400 35.1982 -0.0150
105.6600 35.2048 -0.0028
105.6800 35.2114 0.0009
105.7000 35.2182 -0.0148
105.7200 35.2249 -0.0092
105.7400 35.2315 -0.0010
105.7600 35.2382 -0.0146
105.7800 35.2449 -0.0047
105.8000 35.2515 -0.0041
105.8200 35.2582 -0.0201
105.8400 35.2648 -0.0033
105.8600 35.2714 0.0012
105.8800 35.2781 -0.0227
105.9000 35.2849 -0.0007
105.9200 35.2916 -0.0048
105.9400 35.2983 -0.0210
105.9600 35.3049 -0.0030
105.9800 35.3116 -0.0086
106.0000 35.3183 -0.0200
106.0200 35.3249 -0.0020
106.0400 35.3315 -0.0111
106.0600 35.3382 -0.0180
106.0800 35.3449 -0.0009
106.1000 35.3516 -0.0124
106.1200 35.3583 -0.0223
106.1400 35.3650 0.0020
106.1600 35.3716 -0.0147
106.1800 35.3782 -0.0195
106.2000 35.3848 -0.0011
106.2200 35.3915 -0.0206
106.2400 35.3982 -0.0143
106.2600 35.4049 -0.0008
106.2800 35.4116 -0.0203
106.3000 35.4182 -0.0118
106.3200 35.4249 -0.0001
106.3400 35.4316 -0.0225
106.3600 35.4383 -0.0149
106.3800 35.4449 -0.0027
106.4000 35.4515 -0.0198
106.4200 35.4582 -0.0137
106.4400 35.4648 -0.0052
106.4600 35.4715 -0.0198
106.4800 35.4782 -0.0074
106.5000 35.4849 -0.0124
106.5200 35.4916 -0.0173
106.5400 35.4982 -0.0096
106.5600 35.5048 -0.0110
106.5800 35.5114 -0.0179
106.6000 35.5181 -0.0118
106.6200 35.5248 -0.0132
106.6400 35.5316 -0.0200
106.6600 35.5382 -0.0139
106.6800 35.5449 -0.0098
106.7000 35.5516 -0.0173
106.7200 35.5582 -0.0159
106.7400 35.5648 -0.0103
106.7600 35.5715 -0.0142
106.7800 35.5782 -0.0172
106.8000 35.5849 -0.0123
106.8200 35.5916 -0.0149
106.8400 35.5982 -0.0212
106.8600 35.6049 -0.0084
106.8800 35.6116 -0.0175
106.9000 35.6183 -0.0206
106.9200 35.6249 -0.0113
106.9400 35.6315 -0.0163
106.9600 35.6382 -0.0227
106.9800 35.6449 -0.0097
107.0000 35.6516 -0.0188
107.0200 35.6582 -0.0193
107.0400 35.6649 -0.0100
107.0600 35.6716 -0.0194
107.0800 35.6783 -0.0223
107.1000 35.6848 -0.0108
107.1200 35.6915 -0.0192
107.1400 35.6982 -0.0198
107.1600 35.7049 -0.0138
107.1800 35.7116 -0.0212
107.2000 35.7183 -0.0194
107.2200 35.7249 -0.0143
107.2400 35.7316 -0.0236
107.2600 35.7382 -0.0169
107.2800 35.7448 -0.0178
107.3000 35.7515 -0.0242
107.3200 35.7581 -0.0132
107.3400 35.7648 -0.0211
107.3600 35.7715 -0.0221
107.3800 35.7782 -0.0157
107.4000 35.7849 -0.0169
107.4200 35.7916 -0.0232
107.4400 35.7982 -0.0150
107.4600 35.8049 -0.0247
107.4800 35.8115 -0.0232
107.5000 35.8182 -0.0203
107.5200 35.8249 -0.0234
107.5400 35.8316 -0.0304
107.5600 35.8383 -0.0163
107.5800 35.8449 -0.0261
107.6000 35.8516 -0.0226
107.6200 35.8583 -0.0187
107.6400 35.8649 -0.0266
107.6600 35.8715 -0.0197
107.6800 35.8782 -0.0189
107.7000 35.8849 -0.0286
107.7200 35.8916 -0.0200
107.7400 35.8983 -0.0217
107.7600 35.9049 -0.0268
107.7800 35.9116 -0.0211
107.8000 35.9182 -0.0254
107.8200 35.9249 -0.0255
107.8400 35.9315 -0.0240
107.8600 35.9381 -0.0239
107.8800 35.9448 -0.0303
107.9000 35.9515 -0.0257
107.9200 35.9582 -0.0253
107.9400 35.9649 -0.0260
107.9600 35.9716 -0.0265
107.9800 35.9782 -0.0249
108.0000 35.9848 -0.0309
108.0200 35.9914 -0.0291
108.0400 35.9981 -0.0212
108.0600 36.0048 -0.0233
108.0800 36.0116 -0.0331
108.1000 36.0183 -0.0245
108.1200 36.0249 -0.0262
108.1400 36.0316 -0.0312
108.1600 36.0382 -0.0316
108.1800 36.0449 -0.0261
108.2000 36.0515 -0.0260
108.2200 36.0582 -0.0275
108.2400 36.0649 -0.0297
108.2600 36.0716 -0.0306
108.2800 36.0782 -0.0291
108.3000 36.0849 -0.0293
108.3200 36.0916 -0.0348
108.3400 36.0983 -0.0306
108.3600 36.1049 -0.0298
108.3800 36.1115 -0.0350
108.4000 36.1182 -0.0267
108.4200 36.1249 -0.0304
108.4400 36.1316 -0.0347
108.4600 36.1383 -0.0296
108.4800 36.1450 -0.0275
108.5000 36.1516 -0.0346
108.5200 36.1583 -0.0320
108.5400 36.1649 -0.0345
108.5600 36.1715 -0.0307
108.5800 36.1781 -0.0309
108.6000 36.1848 -0.0327
108.6200 36.1916 -0.0361
108.6400 36.1982 -0.0311
108.6600 36.2049 -0.0352
108.6800 36.2116 -0.0338
108.7000 36.2182 -0.0362
108.7200 36.2248 -0.0322
108.7400 36.2314 -0.0393
108.7600 36.2381 -0.0339
108.7800 36.2448 -0.0295
108.8000 36.2515 -0.0396
108.8200 36.2582 -0.0365
108.8400 36.2649 -0.0344
108.8600 36.2716 -0.0383
108.8800 36.2782 -0.0414
108.9000 36.2849 -0.0359
108.9200 36.2915 -0.0385
108.9400 36.2982 -0.0367
108.9600 36.3049 -0.0373
108.9800 36.3116 -0.0410
109.0000 36.3183 -0.0403
109.0200 36.3250 -0.0371
109.0400 36.3316 -0.0454
109.0600 36.3383 -0.0415
109.0800 36.3449 -0.0357
109.1000 36.3515 -0.0461
109.1200 36.3581 -0.0431
109.1400 36.3648 -0.0326
109.1600 36.3716 -0.0480
109.1800 36.3783 -0.0410
109.2000 36.3849 -0.0399
109.2200 36.3916 -0.0484
109.2400 36.3983 -0.0365
109.2600 36.4049 -0.0414
109.2800 36.4115 -0.0451
109.3000 36.4181 -0.0354
109.3200 36.4248 -0.0445
109.3400 36.4316 -0.0517
109.3600 36.4382 -0.0376
109.3800 36.4449 -0.0393
109.4000 36.4516 -0.0503
109.4200 36.4582 -0.0428
109.4400 36.4649 -0.0451
109.4600 36.4715 -0.0464
109.4800 36.4781 -0.0341
109.5000 36.4848 -0.0457
109.5200 36.4915 -0.0488
109.5400 36.4982 -0.0403
109.5600 36.5049 -0.0465
109.5800 36.5116 -0.0443
109.6000 36.5182 -0.0364
109.6200 36.5249 -0.0531
109.6400 36.5315 -0.0424
109.6600 36.5381 -0.0395
109.6800 36.5448 -0.0504
109.7000 36.5516 -0.0437
109.7200 36.5583 -0.0420
109.7400 36.5649 -0.0545
109.7600 36.5716 -0.0439
109.7800 36.5783 -0.0431
109.8000 36.5849 -0.0537
109.8200 36.5915 -0.0435
109.8400 36.5981 -0.0449
109.8600 36.6049 -0.0526
109.8800 36.6116 -0.0394
109.9000 36.6183 -0.0498
109.9200 36.6249 -0.0515
109.9400 36.6316 -0.0470
109.9600 36.6382 -0.0499
109.9800 36.6449 -0.0472
110.0000 36.6515 -0.0451
110.0200 36.6581 -0.0475
110.0400 36.6648 -0.0548
110.0600 36.6715 -0.0469
110.0800 36.6782 -0.0485
110.1000 36.6849 -0.0492
110.1200 36.6916 -0.0504
110.1400 36.6982 -0.0468
110.1600 36.7048 -0.0566
110.1800 36.7115 -0.0500
110.2000 36.7181 -0.0427
110.2200 36.7248 -0.0513
110.2400 36.7315 -0.0540
110.2600 36.7382 -0.0485
110.2800 36.7449 -0.0523
110.3000 36.7516 -0.0512
110.3200 36.7583 -0.0491
110.3400 36.7649 -0.0475
110.3600 36.7715 -0.0554
110.3800 36.7782 -0.0514
110.4000 36.7849 -0.0502
110.4200 36.7916 -0.0530
110.4400 36.7982 -0.0514
110.4600 36.8049 -0.0512
110.4800 36.8116 -0.0510
110.5000 36.8183 -0.0505
110.5200 36.8249 -0.0504
110.5400 36.8315 -0.0577
110.5600 36.8381 -0.0480
110.5800 36.8448 -0.0510
110.6000 36.8515 -0.0610
110.6200 36.8582 -0.0473
110.6400 36.8649 -0.0502
110.6600 36.8716 -0.0577
110.6800 36.8783 -0.0483
110.7000 36.8849 -0.0576
110.7200 36.8915 -0.0534
110.7400 36.8982 -0.0526
110.7600 36.9049 -0.0598
110.7800 36.9116 -0.0587
110.8000 36.9183 -0.0519
110.8200 36.9249 -0.0581
110.8400 36.9316 -0.0554
110.8600 36.9383 -0.0498
110.8800 36.9449 -0.0608
110.9000 36.9515 -0.0557
110.9200 36.9581 -0.0534
110.9400 36.9648 -0.0610
110.9600 36.9715 -0.0492
110.9800 36.9782 -0.0591
111.0000 36.9849 -0.0600
111.0200 36.9915 -0.0476
111.0400 36.9982 -0.0640
111.0600 37.0049 -0.0534
111.0800 37.0115 -0.0535
111.1000 37.0181 -0.0655
111.1200 37.0248 -0.0547
111.1400 37.0315 -0.0535
111.1600 37.0383 -0.0710
111.1800 37.0450 -0.0550
111.2000 37.0517 -0.0525
111.2200 37.0583 -0.0694
111.2400 37.0650 -0.0571
111.2600 37.0715 -0.0523
111.2800 37.0782 -0.0667
111.3000 37.0849 -0.0521
111.3200 37.0916 -0.0638
111.3400 37.0983 -0.0653
111.3600 37.1049 -0.0529
111.3800 37.1116 -0.0594
111.4000 37.1183 -0.0676
111.4200 37.1249 -0.0545
111.4400 37.1315 -0.0578
111.4600 37.1382 -0.0667
111.4800 37.1448 -0.0581
111.5000 37.1515 -0.0587
111.5200 37.1582 -0.0617
111.5400 37.1649 -0.0588
111.5600 37.1716 -0.0606
111.5800 37.1783 -0.0655
111.6000 37.1849 -0.0595
111.6200 37.1915 -0.0615
111.6400 37.1981 -0.0590
111.6600 37.2048 -0.0582
111.6800 37.2115 -0.0604
111.7000 37.2182 -0.0661
111.7200 37.2249 -0.0599
111.7400 37.2315 -0.0622
111.7600 37.2382 -0.0566
111.7800 37.2449 -0.0625
111.8000 37.2515 -0.0623
111.8200 37.2581 -0.0622
111.8400 37.2648 -0.0629
111.8600 37.2716 -0.0623
111.8800 37.2783 -0.0602
111.9000 37.2849 -0.0645
111.9200 37.2916 -0.0609
111.9400 37.2983 -0.0676
111.9600 37.3049 -0.0584
111.9800 37.3115 -0.0629
112.0000 37.3182 -0.0605
112.0200 37.3249 -0.0612
112.0400 37.3316 -0.0667
112.0600 37.3383 -0.0630
112.0800 37.3449 -0.0639
112.1000 37.3516 -0.0627
112.1200 37.3583 -0.0635
112.1400 37.3650 -0.0640
112.1600 37.3715 -0.0659
112.1800 37.3781 -0.0628
112.2000 37.3848 -0.0605
112.2200 37.3915 -0.0661
112.2400 37.3982 -0.0648
112.2600 37.4049 -0.0652
112.2800 37.4116 -0.0646
112.3000 37.4183 -0.0608
112.3200 37.4249 -0.0701
112.3400 37.4315 -0.0628
112.3600 37.4381 -0.0637
112.3800 37.4448 -0.0671
112.4000 37.4515 -0.0669
112.4200 37.4582 -0.0635
112.4400 37.4649 -0.0712
112.4600 37.4715 -0.0603
112.4800 37.4782 -0.0632
112.5000 37.4849 -0.0706
112.5200 37.4915 -0.0607
112.5400 37.4982 -0.0693
112.5600 37.5048 -0.0703
112.5800 37.5115 -0.0549
112.6000 37.5182 -0.0734
112.6200 37.5249 -0.0690
112.6400 37.5316 -0.0548
112.6600 37.5383 -0.0770
112.6800 37.5450 -0.0690
112.7000 37.5515 -0.0551
112.7200 37.5581 -0.0719
112.7400 37.5648 -0.0707
112.7600 37.5715 -0.0559
112.7800 37.5783 -0.0786
112.8000 37.5849 -0.0652
112.8200 37.5916 -0.0555
112.8400 37.5983 -0.0805
112.8600 37.6049 -0.0683
112.8800 37.6115 -0.0575
112.9000 37.6181 -0.0820
112.9200 37.6248 -0.0624
112.9400 37.6315 -0.0606
112.9600 37.6382 -0.0777
112.9800 37.6449 -0.0675
113.0000 37.6516 -0.0591
113.0200 37.6582 -0.0794
113.0400 37.6649 -0.0638
113.0600 37.6715 -0.0657
113.0800 37.6781 -0.0771
113.1000 37.6848 -0.0626
113.1200 37.6914 -0.0670
113.1400 37.6982 -0.0738
113.1600 37.7049 -0.0691
113.1800 37.7116 -0.0684
113.2000 37.7183 -0.0737
113.2200 37.7249 -0.0639
113.2400 37.7315 -0.0719
113.2600 37.7381 -0.0689
113.2800 37.7448 -0.0676
113.3000 37.7515 -0.0737
113.3200 37.7583 -0.0721
113.3400 37.7650 -0.0702
113.3600 37.7716 -0.0744
113.3800 37.7783 -0.0675
113.4000 37.7849 -0.0741
113.4200 37.7915 -0.0705
113.4400 37.7982 -0.0690
113.4600 37.8049 -0.0720
113.4800 37.8116 -0.0766
113.5000 37.8183 -0.0743
113.5200 37.8249 -0.0780
113.5400 37.8316 -0.0711
113.5600 37.8383 -0.0752
113.5800 37.8449 -0.0764
113.6000 37.8515 -0.0723
113.6200 37.8581 -0.0758
113.6400 37.8648 -0.0762
113.6600 37.8715 -0.0715
113.6800 37.8782 -0.0768
113.7000 37.8849 -0.0749
113.7200 37.8916 -0.0722
113.7400 37.8982 -0.0796
113.7600 37.9049 -0.0750
113.7800 37.9115 -0.0808
113.8000 37.9181 -0.0790
113.8200 37.9248 -0.0742
113.8400 37.9315 -0.0800
113.8600 37.9382 -0.0802
113.8800 37.9449 -0.0760
113.9000 37.9516 -0.0823
113.9200 37.9582 -0.0834
113.9400 37.9649 -0.0766
113.9600 37.9715 -0.0797
113.9800 37.9782 -0.0822
114.0000 37.9848 -0.0752
114.0200 37.9915 -0.0841
114.0400 37.9983 -0.0809
114.0600 38.0050 -0.0832
114.0800 38.0116 -0.0791
114.1000 38.0183 -0.0828
114.1200 38.0250 -0.0809
114.1400 38.0316 -0.0844
114.1600 38.0382 -0.0838
114.1800 38.0448 -0.0770
114.2000 38.0515 -0.0810
114.2200 38.0582 -0.0824
114.2400 38.0649 -0.0813
114.2600 38.0716 -0.0845
114.2800 38.0783 -0.0813
114.3000 38.0850 -0.0848
114.3200 38.0916 -0.0889
114.3400 38.0982 -0.0765
114.3600 38.1048 -0.0828
114.3800 38.1115 -0.0881
114.4000 38.1182 -0.0813
114.4200 38.1249 -0.0876
114.4400 38.1315 -0.0904
114.4600 38.1382 -0.0748
114.4800 38.1449 -0.0891
114.5000 38.1515 -0.0925
114.5200 38.1582 -0.0817
114.5400 38.1648 -0.0900
114.5600 38.1715 -0.0887
114.5800 38.1782 -0.0819
114.6000 38.1848 -0.0894
114.6200 38.1915 -0.0890
114.6400 38.1982 -0.0837
114.6600 38.2049 -0.0891
114.6800 38.2116 -0.0894
114.7000 38.2182 -0.0830
114.7200 38.2248 -0.0924
114.7400 38.2315 -0.0910
114.7600 38.2382 -0.0868
114.7800 38.2449 -0.0942
114.8000 38.2516 -0.0906
114.8200 38.2583 -0.0905
114.8400 38.2650 -0.0930
114.8600 38.2716 -0.0926
114.8800 38.2782 -0.0860
114.9000 38.2848 -0.0911
114.9200 38.2915 -0.0952
114.9400 38.2982 -0.0864
114.9600 38.3050 -0.0951
114.9800 38.3116 -0.0984
115.0000 38.3183 -0.0830
115.0200 38.3249 -0.0993
115.0400 38.3316 -0.0971
115.0600 38.3382 -0.0854
115.0800 38.3448 -0.0961
115.1000 38.3515 -0.1001
115.1200 38.3582 -0.0857
115.1400 38.3649 -0.1026
115.1600 38.3715 -0.0974
115.1800 38.3782 -0.0833
115.2000 38.3849 -0.1057
115.2200 38.3915 -0.0996
115.2400 38.3981 -0.0839
115.2600 38.4048 -0.1070
115.2800 38.4115 -0.0968
115.3000 38.4182 -0.0859
115.3200 38.4249 -0.1097
115.3400 38.4316 -0.0990
115.3600 38.4382 -0.0920
115.3800 38.4449 -0.1047
115.4000 38.4515 -0.1019
115.4200 38.4581 -0.0888
115.4400 38.4648 -0.1111
115.4600 38.4715 -0.0980
115.4800 38.4782 -0.0921
115.5000 38.4849 -0.1074
115.5200 38.4916 -0.1034
115.5400 38.4983 -0.0923
115.5600 38.5050 -0.1086
115.5800 38.5116 -0.1005
115.6000 38.5182 -0.0950
115.6200 38.5249 -0.1050
115.6400 38.5315 -0.0992
115.6600 38.5382 -0.0965
115.6800 38.5449 -0.1082
115.7000 38.5516 -0.0995
115.7200 38.5583 -0.1060
115.7400 38.5650 -0.1071
115.7600 38.5716 -0.0989
115.7800 38.5782 -0.1025
115.8000 38.5848 -0.1012
115.8200 38.5915 -0.1028
115.8400 38.5982 -0.1012
115.8600 38.6049 -0.1024
115.8800 38.6116 -0.1051
115.9000 38.6182 -0.1040
115.9200 38.6249 -0.1057
115.9400 38.6315 -0.1062
115.9600 38.6381 -0.1021
115.9800 38.6448 -0.1050
116.0000 38.6514 -0.1074
116.0200 38.6581 -0.1076
116.0400 38.6648 -0.1017
116.0600 38.6715 -0.1102
116.0800 38.6782 -0.0983
116.1000 38.6850 -0.1074
116.1200 38.6916 -0.1154
116.1400 38.6983 -0.1036
116.1600 38.7049 -0.1019
116.1800 38.7115 -0.1138
116.2000 38.7182 -0.0996
116.2200 38.7249 -0.1087
116.2400 38.7316 -0.1159
116.2600 38.7383 -0.0972
116.2800 38.7450 -0.1085
116.3000 38.7516 -0.1195
116.3200 38.7582 -0.1014
116.3400 38.7648 -0.1034
116.3600 38.7715 -0.1166
116.3800 38.7782 -0.1021
116.4000 38.7849 -0.1103
116.4200 38.7916 -0.1172
116.4400 38.7983 -0.1078
116.4600 38.8049 -0.1078
116.4800 38.8116 -0.1154
116.5000 38.8182 -0.1066
116.5200 38.8248 -0.1108
116.5400 38.8315 -0.1131
116.5600 38.8382 -0.1104
116.5800 38.8449 -0.1110
116.6000 38.8515 -0.1142
116.6200 38.8582 -0.1134
116.6400 38.8649 -0.1113
116.6600 38.8716 -0.1137
116.6800 38.8782 -0.1177
116.7000 38.8848 -0.1082
116.7200 38.8915 -0.1209
116.7400 38.8982 -0.1103
116.7600 38.9049 -0.1093
116.7800 38.9115 -0.1214
116.8000 38.9182 -0.1143
116.8200 38.9249 -0.1094
116.8400 38.9316 -0.1239
116.8600 38.9382 -0.1082
116.8800 38.9448 -0.1125
116.9000 38.9515 -0.1286
116.9200 38.9583 -0.1057
116.9400 38.9650 -0.1185
116.9600 38.9717 -0.1262
116.9800 38.9783 -0.1095
117.0000 38.9849 -0.1200
117.0200 38.9916 -0.1297
117.0400 38.9982 -0.1082
117.0600 39.0048 -0.1190
117.0800 39.0115 -0.1248
117.1000 39.0182 -0.1132
117.1200 39.0249 -0.1210
117.1400 39.0316 -0.1256
117.1600 39.0383 -0.1124
117.1800 39.0449 -0.1294
117.2000 39.0516 -0.1232
117.2200 39.0582 -0.1170
117.2400 39.0648 -0.1272
117.2600 39.0715 -0.1183
117.2800 39.0781 -0.1169
117.3000 39.0849 -0.1308
117.3200 39.0916 -0.1194
117.3400 39.0983 -0.1206
117.3600 39.1049 -0.1293
117.3800 39.1116 -0.1244
117.4000 39.1182 -0.1283
117.4200 39.1247 -0.1247
117.4400 39.1314 -0.1186
117.4600 39.1381 -0.1269
117.4800 39.1449 -0.1253
117.5000 39.1516 -0.1232
117.5200 39.1582 -0.1312
117.5400 39.1649 -0.1208
117.5600 39.1716 -0.1310
117.5800 39.1782 -0.1293
117.6000 39.1848 -0.1188
117.6200 39.1915 -0.1278
117.6400 39.1982 -0.1330
117.6600 39.2048 -0.1185
117.6800 39.2115 -0.1319
117.7000 39.2182 -0.1250
117.7200 39.2250 -0.1228
117.7400 39.2317 -0.1343
117.7600 39.2383 -0.1315
117.7800 39.2449 -0.1212
117.8000 39.2515 -0.1361
117.8200 39.2582 -0.1239
117.8400 39.2649 -0.1251
117.8600 39.2716 -0.1393
117.8800 39.2783 -0.1279
117.9000 39.2849 -0.1262
117.9200 39.2916 -0.1364
117.9400 39.2982 -0.1271
117.9600 39.3048 -0.1288
117.9800 39.3114 -0.1370
118.0000 39.3182 -0.1234
118.0200 39.3249 -0.1382
118.0400 39.3316 -0.1358
118.0600 39.3382 -0.1248
118.0800 39.3449 -0.1391
118.1000 39.3516 -0.1355
118.1200 39.3582 -0.1271
118.1400 39.3648 -0.1380
118.1600 39.3715 -0.1284
118.1800 39.3782 -0.1299
118.2000 39.3849 -0.1391
118.2200 39.3916 -0.1321
118.2400 39.3982 -0.1304
118.2600 39.4049 -0.1418
118.2800 39.4116 -0.1271
118.3000 39.4182 -0.1358
118.3200 39.4248 -0.1394
118.3400 39.4315 -0.1303
118.3600 39.4382 -0.1397
118.3800 39.4449 -0.1336
118.4000 39.4516 -0.1307
118.4200 39.4582 -0.1427
118.4400 39.4649 -0.1345
118.4600 39.4716 -0.1297
118.4800 39.4782 -0.1421
118.5000 39.4848 -0.1382
118.5200 39.4915 -0.1277
118.5400 39.4982 -0.1422
118.5600 39.5049 -0.1403
118.5800 39.5116 -0.1295
118.6000 39.5183 -0.1447
118.6200 39.5250 -0.1354
118.6400 39.5316 -0.1362
118.6600 39.5382 -0.1409
118.6800 39.5448 -0.1388
118.7000 39.5515 -0.1306
118.7200 39.5582 -0.1407
118.7400 39.5649 -0.1399
118.7600 39.5715 -0.1352
118.7800 39.5782 -0.1407
118.8000 39.5849 -0.1437
118.8200 39.5916 -0.1344
118.8400 39.5982 -0.1428
118.8600 39.6048 -0.1393
118.8800 39.6114 -0.1353
118.9000 39.6181 -0.1419
118.9200 39.6248 -0.1433
118.9400 39.6315 -0.1343
118.9600 39.6382 -0.1459
118.9800 39.6449 -0.1430
119.0000 39.6516 -0.1316
119.0200 39.6582 -0.1497
119.0400 39.6648 -0.1395
119.0600 39.6715 -0.1338
119.0800 39.6782 -0.1478
119.1000 39.6849 -0.1439
119.1200 39.6916 -0.1360
119.1400 39.6983 -0.1477
119.1600 39.7050 -0.1479
119.1800 39.7116 -0.1368
119.2000 39.7182 -0.1500
119.2200 39.7248 -0.1468
119.2400 39.7314 -0.1334
119.2600 39.7381 -0.1551
119.2800 39.7448 -0.1427
119.3000 39.7515 -0.1381
119.3200 39.7583 -0.1545
119.3400 39.7650 -0.1502
119.3600 39.7717 -0.1419
119.3800 39.7783 -0.1600
119.4000 39.7849 -0.1505
119.4200 39.7915 -0.1406
119.4400 39.7981 -0.1551
119.4600 39.8049 -0.1533
119.4800 39.8116 -0.1448
119.5000 39.8183 -0.1532
119.5200 39.8249 -0.1535
119.5400 39.8316 -0.1491
119.5600 39.8382 -0.1531
119.5800 39.8448 -0.1517
119.6000 39.8514 -0.1476
119.6200 39.8581 -0.1576
119.6400 39.8649 -0.1542
119.6600 39.8716 -0.1479
119.6800 39.8782 -0.1582
119.7000 39.8849 -0.1544
119.7200 39.8916 -0.1501
119.7400 39.8982 -0.1594
119.7600 39.9048 -0.1581
119.7800 39.9115 -0.1460
119.8000 39.9182 -0.1613
119.8200 39.9249 -0.1547
119.8400 39.9316 -0.1526
119.8600 39.9383 -0.1636
119.8800 39.9450 -0.1546
119.9000 39.9516 -0.1494
119.9200 39.9583 -0.1648
119.9400 39.9649 -0.1542
119.9600 39.9715 -0.1528
119.9800 39.9782 -0.1619
120.0000 39.9849 -0.1584
120.0200 39.9916 -0.1521
120.0400 39.9982 -0.1643
120.0460 40.0002 -0.1736
