Raw Data
Time Displacement Force
(s) (mm) (N)
0.0000 0.0000 0.3272
0.0200 0.0001 0.3414
0.0400 0.0021 0.4036
0.0600 0.0098 0.4104
0.0800 0.0217 0.3231
0.1000 0.0343 0.3258
0.1200 0.0469 0.3673
0.1400 0.0603 0.3343
0.1600 0.0742 0.3342
0.1800 0.0884 0.3547
0.2000 0.1024 0.3230
0.2200 0.1160 0.3356
0.2400 0.1293 0.3561
0.2600 0.1426 0.3290
0.2800 0.1559 0.3461
0.3000 0.1693 0.3529
0.3200 0.1827 0.3260
0.3400 0.1960 0.3533
0.3600 0.2094 0.3473
0.3800 0.2227 0.3312
0.4000 0.2360 0.3513
0.4200 0.2494 0.3426
0.4400 0.2627 0.3374
0.4600 0.2760 0.3489
0.4800 0.2893 0.3392
0.5000 0.3027 0.3338
0.5200 0.3160 0.3488
0.5400 0.3293 0.3360
0.5600 0.3426 0.3412
0.5800 0.3560 0.3485
0.6000 0.3694 0.3344
0.6200 0.3827 0.3379
0.6400 0.3960 0.3489
0.6600 0.4094 0.3279
0.6800 0.4228 0.3398
0.7000 0.4361 0.3363
0.7200 0.4494 0.3292
0.7400 0.4627 0.3356
0.7600 0.4761 0.3342
0.7800 0.4894 0.3303
0.8000 0.5027 0.3332
0.8200 0.5160 0.3288
0.8400 0.5294 0.3293
0.8600 0.5427 0.3286
0.8800 0.5560 0.3256
0.9000 0.5693 0.3264
0.9200 0.5826 0.3242
0.9400 0.5960 0.3195
0.9600 0.6093 0.3208
0.9800 0.6227 0.3242
1.0000 0.6360 0.3165
1.0200 0.6494 0.3217
1.0400 0.6627 0.3170
1.0600 0.6761 0.3141
1.0800 0.6894 0.3179
1.1000 0.7027 0.3218
1.1200 0.7161 0.3095
1.1400 0.7294 0.3196
1.1600 0.7427 0.3152
1.1800 0.7560 0.3153
1.2000 0.7693 0.3172
1.2200 0.7827 0.3104
1.2400 0.7960 0.3099
1.2600 0.8093 0.3161
1.2800 0.8226 0.3093
1.3000 0.8360 0.3112
1.3200 0.8493 0.3083
1.3400 0.8627 0.3090
1.3600 0.8760 0.3028
1.3800 0.8893 0.3093
1.4000 0.9027 0.3052
1.4200 0.9160 0.3023
1.4400 0.9294 0.3108
1.4600 0.9427 0.3052
1.4800 0.9561 0.2995
1.5000 0.9694 0.3058
1.5200 0.9827 0.3057
1.5400 0.9960 0.3047
1.5600 1.0093 0.3119
1.5800 1.0227 0.2976
1.6000 1.0360 0.2991
1.6200 1.0493 0.3162
1.6400 1.0626 0.2987
1.6600 1.0760 0.2911
1.6800 1.0893 0.3123
1.7000 1.1027 0.2958
1.7200 1.1160 0.2974
1.7400 1.1294 0.3070
1.7600 1.1428 0.2950
1.7800 1.1561 0.2927
1.8000 1.1694 0.3081
1.8200 1.1827 0.2961
1.8400 1.1961 0.2954
1.8600 1.2094 0.3017
1.8800 1.2227 0.2910
1.9000 1.2360 0.2942
1.9200 1.2493 0.3033
1.9400 1.2627 0.2901
1.9600 1.2760 0.2915
1.9800 1.2893 0.3019
2.0000 1.3026 0.2872
2.0200 1.3160 0.2880
2.0400 1.3293 0.2965
2.0600 1.3426 0.2861
2.0800 1.3560 0.2885
2.1000 1.3694 0.2943
2.1200 1.3828 0.2804
2.1400 1.3961 0.2866
2.1600 1.4094 0.2917
2.1800 1.4227 0.2814
2.2000 1.4361 0.2811
2.2200 1.4494 0.2876
2.2400 1.4627 0.2736
2.2600 1.4760 0.2846
2.2800 1.4893 0.2896
2.3000 1.5027 0.2736
2.3200 1.5160 0.2760
2.3400 1.5293 0.2833
2.3600 1.5427 0.2746
2.3800 1.5560 0.2770
2.4000 1.5694 0.2820
2.4200 1.5827 0.2687
2.4400 1.5960 0.2707
2.4600 1.6094 0.2815
2.4800 1.6227 0.2648
2.5000 1.6360 0.2733
2.5200 1.6493 0.2793
2.5400 1.6626 0.2629
2.5600 1.6760 0.2725
2.5800 1.6894 0.2750
2.6000 1.7027 0.2635
2.6200 1.7161 0.2679
2.6400 1.7294 0.2760
2.6600 1.7427 0.2614
2.6800 1.7561 0.2676
2.7000 1.7693 0.2778
2.7200 1.7827 0.2673
2.7400 1.7960 0.2634
2.7600 1.8093 0.2733
2.7800 1.8227 0.2636
2.8000 1.8360 0.2685
2.8200 1.8493 0.2675
2.8400 1.8627 0.2603
2.8600 1.8761 0.2638
2.8800 1.8894 0.2684
2.9000 1.9027 0.2606
2.9200 1.9161 0.2656
2.9400 1.9294 0.2645
2.9600 1.9427 0.2573
2.9800 1.9560 0.2648
3.0000 1.9694 0.2653
3.0200 1.9827 0.2536
3.0400 1.9960 0.2624
3.0600 2.0093 0.2664
3.0800 2.0226 0.2534
3.1000 2.0360 0.2670
3.1200 2.0493 0.2622
3.1400 2.0626 0.2512
3.1600 2.0760 0.2610
3.1800 2.0894 0.2646
3.2000 2.1028 0.2447
3.2200 2.1161 0.2602
3.2400 2.1294 0.2623
3.2600 2.1428 0.2467
3.2800 2.1561 0.2584
3.3000 2.1694 0.2585
3.3200 2.1827 0.2398
3.3400 2.1960 0.2601
3.3600 2.2093 0.2566
3.3800 2.2227 0.2430
3.4000 2.2360 0.2568
3.4200 2.2493 0.2564
3.4400 2.2627 0.2384
3.4600 2.2760 0.2589
3.4800 2.2894 0.2457
3.5000 2.3027 0.2391
3.5200 2.3160 0.2566
3.5400 2.3294 0.2427
3.5600 2.3427 0.2388
3.5800 2.3561 0.2541
3.6000 2.3694 0.2384
3.6200 2.3827 0.2389
3.6400 2.3961 0.2495
3.6600 2.4095 0.2356
3.6800 2.4228 0.2399
3.7000 2.4361 0.2489
3.7200 2.4494 0.2402
3.7400 2.4627 0.2364
3.7600 2.4760 0.2462
3.7800 2.4893 0.2396
3.8000 2.5026 0.2366
3.8200 2.5159 0.2417
3.8400 2.5293 0.2426
3.8600 2.5426 0.2369
3.8800 2.5560 0.2420
3.9000 2.5693 0.2383
3.9200 2.5827 0.2371
3.9400 2.5961 0.2401
3.9600 2.6094 0.2377
3.9800 2.6227 0.2319
4.0000 2.6361 0.2409
4.0200 2.6494 0.2350
4.0400 2.6627 0.2275
4.0600 2.6760 0.2405
4.0800 2.6893 0.2359
4.1000 2.7027 0.2309
4.1200 2.7160 0.2387
4.1400 2.7293 0.2315
4.1600 2.7426 0.2312
4.1800 2.7560 0.2391
4.2000 2.7693 0.2314
4.2200 2.7826 0.2287
4.2400 2.7960 0.2361
4.2600 2.8093 0.2315
4.2800 2.8227 0.2267
4.3000 2.8361 0.2340
4.3200 2.8494 0.2249
4.3400 2.8627 0.2318
4.3600 2.8761 0.2300
4.3800 2.8894 0.2253
4.4000 2.9027 0.2249
4.4200 2.9160 0.2313
4.4400 2.9293 0.2211
4.4600 2.9427 0.2236
4.4800 2.9560 0.2253
4.5000 2.9693 0.2147
4.5200 2.9826 0.2237
4.5400 2.9960 0.2255
4.5600 3.0094 0.2161
4.5800 3.0227 0.2202
4.6000 3.0360 0.2211
4.6200 3.0493 0.2135
4.6400 3.0627 0.2217
4.6600 3.0760 0.2196
4.6800 3.0894 0.2104
4.7000 3.1027 0.2199
4.7200 3.1160 0.2166
4.7400 3.1294 0.2108
4.7600 3.1427 0.2198
4.7800 3.1561 0.2143
4.8000 3.1694 0.2157
4.8200 3.1827 0.2130
4.8400 3.1961 0.2119
4.8600 3.2094 0.2119
4.8800 3.2227 0.2184
4.9000 3.2360 0.2104
4.9200 3.2493 0.2103
4.9400 3.2626 0.2115
4.9600 3.2760 0.2109
4.9800 3.2893 0.2128
5.0000 3.3027 0.2128
5.0200 3.3161 0.2057
5.0400 3.3295 0.2106
5.0600 3.3428 0.2101
5.0800 3.3561 0.2063
5.1000 3.3694 0.2057
5.1200 3.3827 0.2068
5.1400 3.3960 0.2022
5.1600 3.4093 0.2103
5.1800 3.4227 0.2072
5.2000 3.4360 0.2009
5.2200 3.4493 0.2066
5.2400 3.4626 0.2013
5.2600 3.4760 0.2076
5.2800 3.4893 0.2032
5.3000 3.5027 0.2045
5.3200 3.5160 0.1968
5.3400 3.5293 0.2058
5.3600 3.5427 0.2035
5.3800 3.5561 0.1999
5.4000 3.5694 0.2036
5.4200 3.5827 0.2006
5.4400 3.5961 0.1971
5.4600 3.6094 0.2019
5.4800 3.6228 0.1947
5.5000 3.6360 0.2026
5.5200 3.6493 0.2006
5.5400 3.6627 0.1926
5.5600 3.6760 0.1928
5.5800 3.6893 0.2012
5.6000 3.7026 0.1909
5.6200 3.7160 0.1977
5.6400 3.7293 0.1988
5.6600 3.7427 0.1872
5.6800 3.7560 0.1935
5.7000 3.7694 0.1949
5.7200 3.7827 0.1935
5.7400 3.7961 0.1902
5.7600 3.8094 0.1950
5.7800 3.8227 0.1877
5.8000 3.8361 0.1950
5.8200 3.8494 0.1933
5.8400 3.8628 0.1873
5.8600 3.8761 0.1945
5.8800 3.8894 0.1932
5.9000 3.9027 0.1848
5.9200 3.9161 0.1955
5.9400 3.9294 0.1859
5.9600 3.9426 0.1868
5.9800 3.9559 0.1921
6.0000 3.9693 0.1856
6.0200 3.9827 0.1815
6.0400 3.9960 0.1932
6.0600 4.0094 0.1796
6.0800 4.0227 0.1811
6.1000 4.0361 0.1907
6.1200 4.0494 0.1719
6.1400 4.0627 0.1801
6.1600 4.0761 0.1911
6.1800 4.0894 0.1726
6.2000 4.1027 0.1795
6.2200 4.1160 0.1845
6.2400 4.1293 0.1742
6.2600 4.1427 0.1817
6.2800 4.1560 0.1838
6.3000 4.1694 0.1760
6.3200 4.1826 0.1764
6.3400 4.1960 0.1846
6.3600 4.2093 0.1746
6.3800 4.2227 0.1840
6.4000 4.2360 0.1745
6.4200 4.2493 0.1727
6.4400 4.2627 0.1802
6.4600 4.2761 0.1758
6.4800 4.2894 0.1709
6.5000 4.3027 0.1760
6.5200 4.3160 0.1727
6.5400 4.3294 0.1723
6.5600 4.3428 0.1718
6.5800 4.3561 0.1787
6.6000 4.3694 0.1711
6.6200 4.3827 0.1749
6.6400 4.3960 0.1735
6.6600 4.4094 0.1690
6.6800 4.4227 0.1698
6.7000 4.4360 0.1743
6.7200 4.4493 0.1698
6.7400 4.4627 0.1676
6.7600 4.4760 0.1702
6.7800 4.4893 0.1646
6.8000 4.5027 0.1690
6.8200 4.5161 0.1674
6.8400 4.5294 0.1651
6.8600 4.5427 0.1708
6.8800 4.5560 0.1664
6.9000 4.5694 0.1697
6.9200 4.5827 0.1693
6.9400 4.5960 0.1651
6.9600 4.6093 0.1697
6.9800 4.6227 0.1673
7.0000 4.6360 0.1725
7.0200 4.6494 0.1644
7.0400 4.6626 0.1708
7.0600 4.6759 0.1706
7.0800 4.6893 0.1699
7.1000 4.7026 0.1677
7.1200 4.7160 0.1743
7.1400 4.7293 0.1696
7.1600 4.7427 0.1660
7.1800 4.7561 0.1696
7.2000 4.7695 0.1671
7.2200 4.7828 0.1675
7.2400 4.7961 0.1724
7.2600 4.8094 0.1651
7.2800 4.8228 0.1637
7.3000 4.8361 0.1634
7.3200 4.8493 0.1695
7.3400 4.8626 0.1630
7.3600 4.8760 0.1623
7.3800 4.8893 0.1637
7.4000 4.9026 0.1611
7.4200 4.9160 0.1637
7.4400 4.9293 0.1571
7.4600 4.9427 0.1589
7.4800 4.9561 0.1591
7.5000 4.9694 0.1563
7.5200 4.9827 0.1576
7.5400 4.9961 0.1624
7.5600 5.0094 0.1560
7.5800 5.0227 0.1603
7.6000 5.0361 0.1566
7.6200 5.0494 0.1564
7.6400 5.0627 0.1583
7.6600 5.0760 0.1643
7.6800 5.0893 0.1561
7.7000 5.1026 0.1621
7.7200 5.1160 0.1573
7.7400 5.1293 0.1543
7.7600 5.1427 0.1597
7.7800 5.1560 0.1599
7.8000 5.1693 0.1536
7.8200 5.1827 0.1585
7.8400 5.1960 0.1603
7.8600 5.2093 0.1502
7.8800 5.2227 0.1606
7.9000 5.2361 0.1607
7.9200 5.2494 0.1448
7.9400 5.2627 0.1607
7.9600 5.2760 0.1585
7.9800 5.2894 0.1413
8.0000 5.3028 0.1599
8.0200 5.3161 0.1567
8.0400 5.3294 0.1390
8.0600 5.3427 0.1579
8.0800 5.3560 0.1552
8.1000 5.3694 0.1324
8.1200 5.3827 0.1619
8.1400 5.3960 0.1498
8.1600 5.4093 0.1386
8.1800 5.4227 0.1588
8.2000 5.4360 0.1399
8.2200 5.4493 0.1367
8.2400 5.4627 0.1592
8.2600 5.4761 0.1395
8.2800 5.4894 0.1366
8.3000 5.5027 0.1536
8.3200 5.5161 0.1349
8.3400 5.5294 0.1398
8.3600 5.5427 0.1503
8.3800 5.5560 0.1357
8.4000 5.5693 0.1426
8.4200 5.5827 0.1482
8.4400 5.5960 0.1337
8.4600 5.6094 0.1440
8.4800 5.6227 0.1418
8.5000 5.6360 0.1352
8.5200 5.6493 0.1435
8.5400 5.6627 0.1437
8.5600 5.6760 0.1355
8.5800 5.6893 0.1415
8.6000 5.7027 0.1398
8.6200 5.7161 0.1396
8.6400 5.7294 0.1371
8.6600 5.7427 0.1396
8.6800 5.7560 0.1388
8.7000 5.7694 0.1354
8.7200 5.7828 0.1323
8.7400 5.7961 0.1409
8.7600 5.8094 0.1319
8.7800 5.8227 0.1386
8.8000 5.8360 0.1335
8.8200 5.8493 0.1283
8.8400 5.8627 0.1410
8.8600 5.8760 0.1374
8.8800 5.8893 0.1288
8.9000 5.9027 0.1395
8.9200 5.9160 0.1339
8.9400 5.9294 0.1298
8.9600 5.9427 0.1390
8.9800 5.9561 0.1317
9.0000 5.9694 0.1297
9.0200 5.9827 0.1398
9.0400 5.9960 0.1260
9.0600 6.0094 0.1250
9.0800 6.0227 0.1384
9.1000 6.0361 0.1220
9.1200 6.0494 0.1262
9.1400 6.0626 0.1317
9.1600 6.0760 0.1243
9.1800 6.0893 0.1236
9.2000 6.1026 0.1319
9.2200 6.1160 0.1239
9.2400 6.1293 0.1241
9.2600 6.1426 0.1245
9.2800 6.1560 0.1213
9.3000 6.1693 0.1210
9.3200 6.1827 0.1233
9.3400 6.1961 0.1207
9.3600 6.2094 0.1194
9.3800 6.2228 0.1221
9.4000 6.2361 0.1212
9.4200 6.2494 0.1158
9.4400 6.2628 0.1199
9.4600 6.2761 0.1200
9.4800 6.2893 0.1152
9.5000 6.3026 0.1198
9.5200 6.3160 0.1171
9.5400 6.3293 0.1135
9.5600 6.3426 0.1155
9.5800 6.3560 0.1196
9.6000 6.3693 0.1129
9.6200 6.3827 0.1110
9.6400 6.3961 0.1181
9.6600 6.4094 0.1107
9.6800 6.4227 0.1123
9.7000 6.4361 0.1208
9.7200 6.4494 0.1080
9.7400 6.4627 0.1143
9.7600 6.4760 0.1185
9.7800 6.4894 0.1121
9.8000 6.5027 0.1148
9.8200 6.5161 0.1230
9.8400 6.5294 0.1044
9.8600 6.5427 0.1190
9.8800 6.5561 0.1185
9.9000 6.5694 0.1028
9.9200 6.5827 0.1160
9.9400 6.5960 0.1169
9.9600 6.6093 0.1047
9.9800 6.6227 0.1184
10.0000 6.6360 0.1105
10.0200 6.6493 0.1069
10.0400 6.6627 0.1157
10.0600 6.6760 0.1118
10.0800 6.6894 0.1082
10.1000 6.7027 0.1115
10.1200 6.7160 0.1070
10.1400 6.7294 0.1089
10.1600 6.7427 0.1153
10.1800 6.7561 0.1032
10.2000 6.7694 0.1092
10.2200 6.7827 0.1139
10.2400 6.7960 0.1077
10.2600 6.8094 0.1042
10.2800 6.8227 0.1109
10.3000 6.8360 0.1050
10.3200 6.8493 0.1097
10.3400 6.8626 0.1067
10.3600 6.8760 0.1084
10.3800 6.8893 0.1067
10.4000 6.9027 0.1057
10.4200 6.9160 0.1078
10.4400 6.9294 0.1078
10.4600 6.9427 0.1018
10.4800 6.9561 0.1119
10.5000 6.9694 0.1050
10.5200 6.9827 0.1050
10.5400 6.9961 0.1129
10.5600 7.0094 0.1066
10.5800 7.0227 0.1053
10.6000 7.0360 0.1145
10.6200 7.0494 0.1021
10.6400 7.0627 0.1036
10.6600 7.0760 0.1124
10.6800 7.0893 0.1003
10.7000 7.1027 0.1031
10.7200 7.1160 0.1118
10.7400 7.1293 0.1046
10.7600 7.1427 0.1062
10.7800 7.1560 0.1162
10.8000 7.1694 0.0979
10.8200 7.1827 0.1058
10.8400 7.1961 0.1121
10.8600 7.2094 0.1002
10.8800 7.2228 0.1063
10.9000 7.2361 0.1066
10.9200 7.2494 0.0986
10.9400 7.2627 0.1152
10.9600 7.2760 0.1043
10.9800 7.2894 0.0985
11.0000 7.3027 0.1059
11.0200 7.3160 0.0981
11.0400 7.3293 0.1005
11.0600 7.3426 0.1089
11.0800 7.3560 0.0941
11.1000 7.3693 0.0992
11.1200 7.3827 0.1026
11.1400 7.3961 0.0920
11.1600 7.4094 0.1019
11.1800 7.4228 0.0929
11.2000 7.4361 0.0903
11.2200 7.4494 0.1006
11.2400 7.4627 0.0889
11.2600 7.4761 0.0854
11.2800 7.4894 0.1015
11.3000 7.5027 0.0864
11.3200 7.5160 0.0869
11.3400 7.5294 0.0991
11.3600 7.5427 0.0856
11.3800 7.5560 0.0851
11.4000 7.5693 0.1000
11.4200 7.5827 0.0829
11.4400 7.5960 0.0884
11.4600 7.6093 0.0926
11.4800 7.6227 0.0786
11.5000 7.6360 0.0883
11.5200 7.6494 0.0922
11.5400 7.6628 0.0758
11.5600 7.6761 0.0887
11.5800 7.6894 0.0878
11.6000 7.7028 0.0744
11.6200 7.7161 0.0885
11.6400 7.7294 0.0824
11.6600 7.7427 0.0718
11.6800 7.7560 0.0845
11.7000 7.7693 0.0795
11.7200 7.7827 0.0755
11.7400 7.7960 0.0839
11.7600 7.8093 0.0792
11.7800 7.8226 0.0720
11.8000 7.8360 0.0809
11.8200 7.8493 0.0763
11.8400 7.8627 0.0699
11.8600 7.8760 0.0755
11.8800 7.8894 0.0724
11.9000 7.9027 0.0755
11.9200 7.9160 0.0689
11.9400 7.9294 0.0803
11.9600 7.9427 0.0727
11.9800 7.9561 0.0696
12.0000 7.9694 0.0773
12.0200 7.9827 0.0734
12.0400 7.9960 0.0661
12.0600 8.0094 0.0815
12.0800 8.0227 0.0705
12.1000 8.0360 0.0712
12.1200 8.0493 0.0815
12.1400 8.0626 0.0748
12.1600 8.0759 0.0692
12.1800 8.0893 0.0808
12.2000 8.1026 0.0736
12.2200 8.1160 0.0691
12.2400 8.1294 0.0841
12.2600 8.1428 0.0693
12.2800 8.1561 0.0729
12.3000 8.1694 0.0843
12.3200 8.1828 0.0734
12.3400 8.1961 0.0719
12.3600 8.2094 0.0832
12.3800 8.2227 0.0780
12.4000 8.2360 0.0691
12.4200 8.2493 0.0782
12.4400 8.2627 0.0782
12.4600 8.2760 0.0728
12.4800 8.2893 0.0810
12.5000 8.3026 0.0736
12.5200 8.3160 0.0720
12.5400 8.3293 0.0798
12.5600 8.3427 0.0786
12.5800 8.3560 0.0674
12.6000 8.3694 0.0794
12.6200 8.3828 0.0782
12.6400 8.3961 0.0656
12.6600 8.4094 0.0799
12.6800 8.4228 0.0833
12.7000 8.4361 0.0642
12.7200 8.4494 0.0742
12.7400 8.4627 0.0786
12.7600 8.4760 0.0666
12.7800 8.4893 0.0752
12.8000 8.5027 0.0757
12.8200 8.5160 0.0634
12.8400 8.5293 0.0712
12.8600 8.5426 0.0757
12.8800 8.5560 0.0630
12.9000 8.5694 0.0723
12.9200 8.5827 0.0717
12.9400 8.5960 0.0601
12.9600 8.6094 0.0671
12.9800 8.6228 0.0746
13.0000 8.6361 0.0586
13.0200 8.6494 0.0742
13.0400 8.6627 0.0682
13.0600 8.6761 0.0561
13.0800 8.6894 0.0724
13.1000 8.7027 0.0731
13.1200 8.7160 0.0551
13.1400 8.7294 0.0729
13.1600 8.7427 0.0683
13.1800 8.7560 0.0552
13.2000 8.7693 0.0722
13.2200 8.7826 0.0673
13.2400 8.7960 0.0577
13.2600 8.8094 0.0706
13.2800 8.8227 0.0643
13.3000 8.8360 0.0592
13.3200 8.8494 0.0727
13.3400 8.8628 0.0592
13.3600 8.8761 0.0580
13.3800 8.8894 0.0705
13.4000 8.9027 0.0605
13.4200 8.9161 0.0563
13.4400 8.9294 0.0653
13.4600 8.9427 0.0580
13.4800 8.9560 0.0591
13.5000 8.9693 0.0630
13.5200 8.9827 0.0588
13.5400 8.9960 0.0526
13.5600 9.0093 0.0598
13.5800 9.0226 0.0572
13.6000 9.0360 0.0569
13.6200 9.0493 0.0511
13.6400 9.0626 0.0574
13.6600 9.0760 0.0529
13.6800 9.0894 0.0514
13.7000 9.1028 0.0547
13.7200 9.1161 0.0525
13.7400 9.1294 0.0527
13.7600 9.1427 0.0580
13.7800 9.1561 0.0456
13.8000 9.1694 0.0460
13.8200 9.1827 0.0580
13.8400 9.1960 0.0437
13.8600 9.2093 0.0481
13.8800 9.2227 0.0552
13.9000 9.2360 0.0396
13.9200 9.2493 0.0476
13.9400 9.2626 0.0560
13.9600 9.2760 0.0412
13.9800 9.2893 0.0453
14.0000 9.3027 0.0464
14.0200 9.3160 0.0405
14.0400 9.3294 0.0465
14.0600 9.3427 0.0489
14.0800 9.3561 0.0341
14.1000 9.3694 0.0450
14.1200 9.3827 0.0463
14.1400 9.3961 0.0409
14.1600 9.4094 0.0450
14.1800 9.4227 0.0427
14.2000 9.4360 0.0383
14.2200 9.4494 0.0419
14.2400 9.4627 0.0391
14.2600 9.4760 0.0409
14.2800 9.4893 0.0360
14.3000 9.5026 0.0406
14.3200 9.5160 0.0362
14.3400 9.5293 0.0357
14.3600 9.5426 0.0392
14.3800 9.5560 0.0352
14.4000 9.5694 0.0287
14.4200 9.5827 0.0411
14.4400 9.5961 0.0316
14.4600 9.6094 0.0285
14.4800 9.6228 0.0402
14.5000 9.6361 0.0277
14.5200 9.6494 0.0312
14.5400 9.6627 0.0423
14.5600 9.6760 0.0343
14.5800 9.6893 0.0303
14.6000 9.7026 0.0425
14.6200 9.7160 0.0283
14.6400 9.7293 0.0333
14.6600 9.7427 0.0420
14.6800 9.7560 0.0236
14.7000 9.7694 0.0245
14.7200 9.7827 0.0416
14.7400 9.7960 0.0252
14.7600 9.8094 0.0315
14.7800 9.8228 0.0376
14.8000 9.8361 0.0258
14.8200 9.8494 0.0300
14.8400 9.8627 0.0431
14.8600 9.8761 0.0263
14.8800 9.8894 0.0315
14.9000 9.9027 0.0375
14.9200 9.9160 0.0261
14.9400 9.9293 0.0316
14.9600 9.9427 0.0340
14.9800 9.9560 0.0284
15.0000 9.9693 0.0257
15.0200 9.9826 0.0355
15.0400 9.9960 0.0293
15.0600 10.0094 0.0252
15.0800 10.0227 0.0354
15.1000 10.0360 0.0298
15.1200 10.0494 0.0204
15.1400 10.0628 0.0368
15.1600 10.0761 0.0273
15.1800 10.0894 0.0232
15.2000 10.1027 0.0364
15.2200 10.1161 0.0308
15.2400 10.1294 0.0181
15.2600 10.1427 0.0382
15.2800 10.1560 0.0301
15.3000 10.1694 0.0208
15.3200 10.1827 0.0338
15.3400 10.1960 0.0290
15.3600 10.2093 0.0202
15.3800 10.2226 0.0431
15.4000 10.2360 0.0261
15.4200 10.2493 0.0213
15.4400 10.2627 0.0416
15.4600 10.2760 0.0293
15.4800 10.2894 0.0162
15.5000 10.3028 0.0405
15.5200 10.3161 0.0273
15.5400 10.3294 0.0185
15.5600 10.3428 0.0376
15.5800 10.3561 0.0250
15.6000 10.3694 0.0236
15.6200 10.3827 0.0339
15.6400 10.3960 0.0258
15.6600 10.4093 0.0254
15.6800 10.4227 0.0302
15.7000 10.4360 0.0261
15.7200 10.4493 0.0254
15.7400 10.4627 0.0277
15.7600 10.4760 0.0268
15.7800 10.4893 0.0226
15.8000 10.5027 0.0306
15.8200 10.5160 0.0263
15.8400 10.5293 0.0241
15.8600 10.5427 0.0256
15.8800 10.5560 0.0306
15.9000 10.5694 0.0172
15.9200 10.5827 0.0299
15.9400 10.5961 0.0278
15.9600 10.6094 0.0153
15.9800 10.6228 0.0293
16.0000 10.6360 0.0231
16.0200 10.6493 0.0194
16.0400 10.6627 0.0294
16.0600 10.6760 0.0224
16.0800 10.6893 0.0183
16.1000 10.7026 0.0273
16.1200 10.7160 0.0212
16.1400 10.7293 0.0225
16.1600 10.7427 0.0289
16.1800 10.7560 0.0160
16.2000 10.7694 0.0217
16.2200 10.7828 0.0289
16.2400 10.7961 0.0158
16.2600 10.8094 0.0279
16.2800 10.8227 0.0265
16.3000 10.8361 0.0171
16.3200 10.8494 0.0252
16.3400 10.8627 0.0246
16.3600 10.8760 0.0150
16.3800 10.8894 0.0281
16.4000 10.9027 0.0204
16.4200 10.9160 0.0164
16.4400 10.9293 0.0225
16.4600 10.9426 0.0218
16.4800 10.9560 0.0164
16.5000 10.9693 0.0238
16.5200 10.9826 0.0123
16.5400 10.9960 0.0155
16.5600 11.0094 0.0196
16.5800 11.0227 0.0135
16.6000 11.0361 0.0126
16.6200 11.0494 0.0146
16.6400 11.0627 0.0099
16.6600 11.0761 0.0116
16.6800 11.0894 0.0131
16.7000 11.1027 0.0068
16.7200 11.1160 0.0132
16.7400 11.1293 0.0100
16.7600 11.1426 0.0030
16.7800 11.1560 0.0108
16.8000 11.1693 0.0104
16.8200 11.1826 -0.0018
16.8400 11.1960 0.0129
16.8600 11.2094 0.0024
16.8800 11.2227 0.0017
16.9000 11.2360 0.0120
16.9200 11.2494 0.0018
16.9400 11.2627 0.0020
16.9600 11.2761 0.0115
16.9800 11.2894 -0.0023
17.0000 11.3027 0.0050
17.0200 11.3160 0.0074
17.0400 11.3294 -0.0053
17.0600 11.3427 0.0031
17.0800 11.3560 0.0085
17.1000 11.3694 -0.0015
17.1200 11.3827 0.0024
17.1400 11.3961 0.0045
17.1600 11.4093 -0.0031
17.1800 11.4226 0.0027
17.2000 11.4360 0.0028
17.2200 11.4493 -0.0031
17.2400 11.4627 0.0037
17.2600 11.4760 0.0021
17.2800 11.4893 -0.0017
17.3000 11.5027 0.0034
17.3200 11.5161 -0.0031
17.3400 11.5294 0.0028
17.3600 11.5427 -0.0028
17.3800 11.5560 -0.0048
17.4000 11.5694 0.0049
17.4200 11.5827 -0.0045
17.4400 11.5960 -0.0059
17.4600 11.6094 0.0038
17.4800 11.6227 -0.0131
17.5000 11.6360 -0.0002
17.5200 11.6493 -0.0004
17.5400 11.6626 -0.0100
17.5600 11.6760 0.0010
17.5800 11.6893 -0.0030
17.6000 11.7027 -0.0170
17.6200 11.7160 0.0022
17.6400 11.7293 -0.0074
17.6600 11.7427 -0.0169
17.6800 11.7561 0.0015
17.7000 11.7694 -0.0037
17.7200 11.7827 -0.0165
17.7400 11.7961 -0.0026
17.7600 11.8094 -0.0098
17.7800 11.8227 -0.0138
17.8000 11.8360 -0.0003
17.8200 11.8493 -0.0067
17.8400 11.8627 -0.0169
17.8600 11.8760 -0.0042
17.8800 11.8893 -0.0087
17.9000 11.9026 -0.0147
17.9200 11.9160 -0.0047
17.9400 11.9294 -0.0113
17.9600 11.9427 -0.0165
17.9800 11.9560 -0.0089
18.0000 11.9694 -0.0062
18.0200 11.9827 -0.0167
18.0400 11.9961 -0.0086
18.0600 12.0094 -0.0101
18.0800 12.0227 -0.0158
18.1000 12.0361 -0.0087
18.1200 12.0494 -0.0115
18.1400 12.0628 -0.0142
18.1600 12.0760 -0.0087
18.1800 12.0894 -0.0092
18.2000 12.1027 -0.0106
18.2200 12.1160 -0.0115
18.2400 12.1293 -0.0075
18.2600 12.1426 -0.0152
18.2800 12.1560 -0.0088
18.3000 12.1693 -0.0071
18.3200 12.1827 -0.0133
18.3400 12.1960 -0.0083
18.3600 12.2093 -0.0056
18.3800 12.2227 -0.0138
18.4000 12.2361 -0.0123
18.4200 12.2494 0.0014
18.4400 12.2627 -0.0176
18.4600 12.2761 -0.0066
18.4800 12.2894 -0.0042
18.5000 12.3027 -0.0176
18.5200 12.3160 -0.0053
18.5400 12.3293 -0.0025
18.5600 12.3427 -0.0207
18.5800 12.3560 -0.0077
18.6000 12.3694 -0.0057
18.6200 12.3827 -0.0199
18.6400 12.3960 -0.0086
18.6600 12.4093 -0.0057
18.6800 12.4227 -0.0199
18.7000 12.4360 -0.0057
18.7200 12.4493 -0.0092
18.7400 12.4627 -0.0193
18.7600 12.4761 -0.0124
18.7800 12.4894 -0.0095
18.8000 12.5027 -0.0185
18.8200 12.5160 -0.0120
18.8400 12.5294 -0.0061
18.8600 12.5427 -0.0221
18.8800 12.5560 -0.0135
18.9000 12.5693 -0.0092
18.9200 12.5827 -0.0213
18.9400 12.5960 -0.0152
18.9600 12.6093 -0.0125
18.9800 12.6226 -0.0214
19.0000 12.6360 -0.0162
19.0200 12.6493 -0.0126
19.0400 12.6627 -0.0243
19.0600 12.6760 -0.0198
19.0800 12.6893 -0.0129
19.1000 12.7027 -0.0260
19.1200 12.7160 -0.0159
19.1400 12.7294 -0.0155
19.1600 12.7427 -0.0220
19.1800 12.7560 -0.0233
19.2000 12.7694 -0.0139
19.2200 12.7827 -0.0278
19.2400 12.7961 -0.0255
19.2600 12.8094 -0.0121
19.2800 12.8227 -0.0253
19.3000 12.8361 -0.0261
19.3200 12.8494 -0.0135
19.3400 12.8627 -0.0301
19.3600 12.8760 -0.0332
19.3800 12.8893 -0.0167
19.4000 12.9026 -0.0263
19.4200 12.9160 -0.0358
19.4400 12.9293 -0.0177
19.4600 12.9427 -0.0293
19.4800 12.9561 -0.0382
19.5000 12.9694 -0.0207
19.5200 12.9828 -0.0321
19.5400 12.9961 -0.0373
19.5600 13.0094 -0.0225
19.5800 13.0228 -0.0333
19.6000 13.0361 -0.0440
19.6200 13.0493 -0.0172
19.6400 13.0627 -0.0327
19.6600 13.0760 -0.0432
19.6800 13.0893 -0.0215
19.7000 13.1026 -0.0347
19.7200 13.1159 -0.0407
19.7400 13.1293 -0.0193
19.7600 13.1426 -0.0370
19.7800 13.1560 -0.0428
19.8000 13.1693 -0.0222
19.8200 13.1827 -0.0363
19.8400 13.1961 -0.0433
19.8600 13.2094 -0.0242
19.8800 13.2227 -0.0412
19.9000 13.2361 -0.0415
19.9200 13.2494 -0.0268
19.9400 13.2628 -0.0389
19.9600 13.2761 -0.0387
19.9800 13.2894 -0.0343
20.0000 13.3027 -0.0355
20.0200 13.3160 -0.0407
20.0400 13.3294 -0.0329
20.0600 13.3427 -0.0345
20.0800 13.3560 -0.0407
20.1000 13.3693 -0.0352
20.1200 13.3827 -0.0355
20.1400 13.3960 -0.0449
20.1600 13.4094 -0.0359
20.1800 13.4227 -0.0346
20.2000 13.4361 -0.0471
20.2200 13.4494 -0.0357
20.2400 13.4627 -0.0302
20.2600 13.4760 -0.0495
20.2800 13.4894 -0.0326
20.3000 13.5028 -0.0345
20.3200 13.5161 -0.0476
20.3400 13.5294 -0.0330
20.3600 13.5427 -0.0354
20.3800 13.5560 -0.0489
20.4000 13.5694 -0.0345
20.4200 13.5826 -0.0391
20.4400 13.5959 -0.0463
20.4600 13.6093 -0.0350
20.4800 13.6227 -0.0418
20.5000 13.6360 -0.0500
20.5200 13.6494 -0.0366
20.5400 13.6627 -0.0410
20.5600 13.6761 -0.0463
20.5800 13.6894 -0.0356
20.6000 13.7028 -0.0430
20.6200 13.7161 -0.0493
20.6400 13.7294 -0.0433
20.6600 13.7427 -0.0426
20.6800 13.7560 -0.0492
20.7000 13.7693 -0.0407
20.7200 13.7827 -0.0470
20.7400 13.7960 -0.0471
20.7600 13.8094 -0.0449
20.7800 13.8227 -0.0460
20.8000 13.8360 -0.0500
20.8200 13.8493 -0.0432
20.8400 13.8627 -0.0491
20.8600 13.8760 -0.0518
20.8800 13.8893 -0.0498
20.9000 13.9027 -0.0476
20.9200 13.9161 -0.0541
20.9400 13.9294 -0.0467
20.9600 13.9427 -0.0454
20.9800 13.9561 -0.0566
21.0000 13.9694 -0.0488
21.0200 13.9828 -0.0463
21.0400 13.9961 -0.0578
21.0600 14.0094 -0.0506
21.0800 14.0227 -0.0478
21.1000 14.0360 -0.0591
21.1200 14.0494 -0.0494
21.1400 14.0627 -0.0459
21.1600 14.0760 -0.0557
21.1800 14.0893 -0.0494
21.2000 14.1027 -0.0463
21.2200 14.1160 -0.0584
21.2400 14.1293 -0.0449
21.2600 14.1427 -0.0482
21.2800 14.1561 -0.0581
21.3000 14.1694 -0.0530
21.3200 14.1827 -0.0487
21.3400 14.1961 -0.0580
21.3600 14.2094 -0.0494
21.3800 14.2228 -0.0464
21.4000 14.2361 -0.0609
21.4200 14.2494 -0.0523
21.4400 14.2627 -0.0443
21.4600 14.2760 -0.0628
21.4800 14.2894 -0.0482
21.5000 14.3027 -0.0487
21.5200 14.3160 -0.0598
21.5400 14.3293 -0.0499
21.5600 14.3426 -0.0478
21.5800 14.3559 -0.0597
21.6000 14.3693 -0.0536
21.6200 14.3827 -0.0496
21.6400 14.3961 -0.0603
21.6600 14.4094 -0.0500
21.6800 14.4228 -0.0552
21.7000 14.4361 -0.0596
21.7200 14.4494 -0.0572
21.7400 14.4628 -0.0578
21.7600 14.4761 -0.0603
21.7800 14.4893 -0.0538
21.8000 14.5026 -0.0566
21.8200 14.5160 -0.0606
21.8400 14.5293 -0.0594
21.8600 14.5426 -0.0556
21.8800 14.5560 -0.0611
21.9000 14.5693 -0.0565
21.9200 14.5827 -0.0594
21.9400 14.5960 -0.0624
21.9600 14.6094 -0.0591
21.9800 14.6227 -0.0586
22.0000 14.6361 -0.0596
22.0200 14.6494 -0.0625
22.0400 14.6627 -0.0597
22.0600 14.6760 -0.0574
22.0800 14.6894 -0.0662
22.1000 14.7027 -0.0598
22.1200 14.7160 -0.0576
22.1400 14.7294 -0.0647
22.1600 14.7427 -0.0597
22.1800 14.7560 -0.0600
22.2000 14.7694 -0.0662
22.2200 14.7827 -0.0598
22.2400 14.7960 -0.0602
22.2600 14.8093 -0.0696
22.2800 14.8227 -0.0597
22.3000 14.8360 -0.0686
22.3200 14.8494 -0.0693
22.3400 14.8627 -0.0603
22.3600 14.8761 -0.0663
22.3800 14.8894 -0.0761
22.4000 14.9027 -0.0618
22.4200 14.9161 -0.0625
22.4400 14.9294 -0.0710
22.4600 14.9428 -0.0671
22.4800 14.9561 -0.0702
22.5000 14.9694 -0.0726
22.5200 14.9827 -0.0616
22.5400 14.9960 -0.0724
22.5600 15.0093 -0.0732
22.5800 15.0226 -0.0638
22.6000 15.0359 -0.0757
22.6200 15.0493 -0.0759
22.6400 15.0627 -0.0630
22.6600 15.0760 -0.0733
22.6800 15.0893 -0.0778
22.7000 15.1027 -0.0694
22.7200 15.1161 -0.0700
22.7400 15.1294 -0.0755
22.7600 15.1427 -0.0730
22.7800 15.1561 -0.0739
22.8000 15.1694 -0.0790
22.8200 15.1827 -0.0737
22.8400 15.1960 -0.0780
22.8600 15.2093 -0.0744
22.8800 15.2227 -0.0770
22.9000 15.2360 -0.0772
22.9200 15.2494 -0.0823
22.9400 15.2627 -0.0747
22.9600 15.2760 -0.0770
22.9800 15.2893 -0.0842
23.0000 15.3027 -0.0782
23.0200 15.3160 -0.0756
23.0400 15.3293 -0.0869
23.0600 15.3427 -0.0752
23.0800 15.3560 -0.0751
23.1000 15.3694 -0.0884
23.1200 15.3827 -0.0785
23.1400 15.3960 -0.0735
23.1600 15.4094 -0.0876
23.1800 15.4228 -0.0786
23.2000 15.4361 -0.0770
23.2200 15.4494 -0.0894
23.2400 15.4627 -0.0775
23.2600 15.4760 -0.0761
23.2800 15.4893 -0.0920
23.3000 15.5027 -0.0875
23.3200 15.5159 -0.0759
23.3400 15.5293 -0.0877
23.3600 15.5426 -0.0856
23.3800 15.5560 -0.0815
23.4000 15.5693 -0.0953
23.4200 15.5827 -0.0859
23.4400 15.5961 -0.0820
23.4600 15.6095 -0.0959
23.4800 15.6228 -0.0850
23.5000 15.6361 -0.0882
23.5200 15.6494 -0.0984
23.5400 15.6628 -0.0896
23.5600 15.6761 -0.0832
23.5800 15.6894 -0.0997
23.6000 15.7027 -0.0925
23.6200 15.7160 -0.0845
23.6400 15.7294 -0.1033
23.6600 15.7427 -0.0954
23.6800 15.7560 -0.0852
23.7000 15.7693 -0.1032
23.7200 15.7827 -0.1010
23.7400 15.7960 -0.0879
23.7600 15.8093 -0.1018
23.7800 15.8226 -0.0973
23.8000 15.8360 -0.0894
23.8200 15.8494 -0.1036
23.8400 15.8628 -0.1042
23.8600 15.8761 -0.0868
23.8800 15.8894 -0.1066
23.9000 15.9027 -0.1048
23.9200 15.9160 -0.0883
23.9400 15.9293 -0.1090
23.9600 15.9426 -0.1042
23.9800 15.9560 -0.0848
24.0000 15.9693 -0.1171
24.0200 15.9827 -0.0954
24.0400 15.9960 -0.0888
24.0600 16.0093 -0.1123
24.0800 16.0227 -0.0971
24.1000 16.0360 -0.0923
24.1200 16.0494 -0.1142
24.1400 16.0627 -0.0973
24.1600 16.0760 -0.0970
24.1800 16.0894 -0.1151
24.2000 16.1027 -0.0979
24.2200 16.1160 -0.0952
24.2400 16.1293 -0.1142
24.2600 16.1427 -0.0929
24.2800 16.1561 -0.1023
24.3000 16.1694 -0.1093
24.3200 16.1827 -0.0954
24.3400 16.1960 -0.1043
24.3600 16.2094 -0.1053
24.3800 16.2227 -0.0983
24.4000 16.2360 -0.1062
24.4200 16.2493 -0.1076
24.4400 16.2627 -0.0978
24.4600 16.2760 -0.1004
24.4800 16.2893 -0.1066
24.5000 16.3026 -0.1003
24.5200 16.3160 -0.1030
24.5400 16.3294 -0.1123
24.5600 16.3427 -0.1016
24.5800 16.3561 -0.0976
24.6000 16.3694 -0.1060
24.6200 16.3828 -0.1066
24.6400 16.3961 -0.0959
24.6600 16.4094 -0.1081
24.6800 16.4227 -0.1060
24.7000 16.4361 -0.1006
24.7200 16.4494 -0.1075
24.7400 16.4627 -0.1085
24.7600 16.4760 -0.0968
24.7800 16.4893 -0.1085
24.8000 16.5026 -0.1095
24.8200 16.5160 -0.0971
24.8400 16.5293 -0.1114
24.8600 16.5427 -0.1127
24.8800 16.5560 -0.0973
24.9000 16.5694 -0.1106
24.9200 16.5828 -0.1127
24.9400 16.5961 -0.1029
24.9600 16.6094 -0.1107
24.9800 16.6228 -0.1144
25.0000 16.6361 -0.1071
25.0200 16.6494 -0.1101
25.0400 16.6627 -0.1150
25.0600 16.6760 -0.1021
25.0800 16.6894 -0.1176
25.1000 16.7027 -0.1132
25.1200 16.7160 -0.1053
25.1400 16.7293 -0.1187
25.1600 16.7427 -0.1153
25.1800 16.7560 -0.1078
25.2000 16.7693 -0.1223
25.2200 16.7826 -0.1123
25.2400 16.7960 -0.1108
25.2600 16.8094 -0.1202
25.2800 16.8227 -0.1184
25.3000 16.8361 -0.1135
25.3200 16.8494 -0.1164
25.3400 16.8628 -0.1166
25.3600 16.8761 -0.1187
25.3800 16.8894 -0.1218
25.4000 16.9027 -0.1174
25.4200 16.9160 -0.1180
25.4400 16.9294 -0.1196
25.4600 16.9427 -0.1169
25.4800 16.9560 -0.1219
25.5000 16.9693 -0.1191
25.5200 16.9826 -0.1181
25.5400 16.9960 -0.1227
25.5600 17.0093 -0.1183
25.5800 17.0227 -0.1234
25.6000 17.0360 -0.1211
25.6200 17.0494 -0.1229
25.6400 17.0628 -0.1231
25.6600 17.0761 -0.1198
25.6800 17.0894 -0.1198
25.7000 17.1027 -0.1275
25.7200 17.1161 -0.1180
25.7400 17.1294 -0.1236
25.7600 17.1427 -0.1282
25.7800 17.1560 -0.1194
25.8000 17.1694 -0.1243
25.8200 17.1827 -0.1224
25.8400 17.1960 -0.1234
25.8600 17.2093 -0.1318
25.8800 17.2227 -0.1232
25.9000 17.2360 -0.1271
25.9200 17.2493 -0.1329
25.9400 17.2627 -0.1187
25.9600 17.2760 -0.1283
25.9800 17.2894 -0.1331
26.0000 17.3028 -0.1200
26.0200 17.3161 -0.1270
26.0400 17.3294 -0.1328
26.0600 17.3428 -0.1203
26.0800 17.3561 -0.1374
26.1000 17.3694 -0.1316
26.1200 17.3827 -0.1211
26.1400 17.3960 -0.1289
26.1600 17.4093 -0.1356
26.1800 17.4227 -0.1219
26.2000 17.4360 -0.1304
26.2200 17.4493 -0.1302
26.2400 17.4626 -0.1228
26.2600 17.4760 -0.1327
26.2800 17.4894 -0.1369
26.3000 17.5027 -0.1247
26.3200 17.5160 -0.1348
26.3400 17.5294 -0.1321
26.3600 17.5427 -0.1263
26.3800 17.5560 -0.1361
26.4000 17.5694 -0.1317
26.4200 17.5827 -0.1270
26.4400 17.5961 -0.1363
26.4600 17.6094 -0.1332
26.4800 17.6227 -0.1268
26.5000 17.6360 -0.1354
26.5200 17.6494 -0.1327
26.5400 17.6627 -0.1279
26.5600 17.6760 -0.1359
26.5800 17.6893 -0.1326
26.6000 17.7026 -0.1277
26.6200 17.7160 -0.1421
26.6400 17.7293 -0.1313
26.6600 17.7426 -0.1326
26.6800 17.7560 -0.1388
26.7000 17.7694 -0.1327
26.7200 17.7828 -0.1375
26.7400 17.7961 -0.1429
26.7600 17.8094 -0.1347
26.7800 17.8228 -0.1356
26.8000 17.8361 -0.1444
26.8200 17.8494 -0.1421
26.8400 17.8627 -0.1379
26.8600 17.8760 -0.1501
26.8800 17.8893 -0.1370
26.9000 17.9027 -0.1437
26.9200 17.9160 -0.1478
26.9400 17.9293 -0.1406
26.9600 17.9426 -0.1448
26.9800 17.9560 -0.1507
27.0000 17.9693 -0.1436
27.0200 17.9826 -0.1419
27.0400 17.9960 -0.1520
27.0600 18.0094 -0.1495
27.0800 18.0227 -0.1446
27.1000 18.0361 -0.1504
27.1200 18.0494 -0.1484
27.1400 18.0627 -0.1422
27.1600 18.0761 -0.1542
27.1800 18.0894 -0.1502
27.2000 18.1027 -0.1465
27.2200 18.1160 -0.1509
27.2400 18.1293 -0.1542
27.2600 18.1427 -0.1469
27.2800 18.1560 -0.1595
27.3000 18.1693 -0.1517
27.3200 18.1826 -0.1425
27.3400 18.1960 -0.1633
27.3600 18.2093 -0.1561
27.3800 18.2227 -0.1443
27.4000 18.2360 -0.1650
27.4200 18.2494 -0.1576
27.4400 18.2627 -0.1481
27.4600 18.2761 -0.1653
27.4800 18.2894 -0.1608
27.5000 18.3027 -0.1497
27.5200 18.3161 -0.1687
27.5400 18.3294 -0.1576
27.5600 18.3427 -0.1488
27.5800 18.3561 -0.1700
27.6000 18.3694 -0.1534
27.6200 18.3827 -0.1576
27.6400 18.3960 -0.1679
27.6600 18.4093 -0.1581
27.6800 18.4226 -0.1565
27.7000 18.4360 -0.1719
27.7200 18.4494 -0.1552
27.7400 18.4627 -0.1591
27.7600 18.4760 -0.1713
27.7800 18.4894 -0.1560
27.8000 18.5028 -0.1607
27.8200 18.5161 -0.1762
27.8400 18.5294 -0.1563
27.8600 18.5427 -0.1665
27.8800 18.5561 -0.1706
27.9000 18.5694 -0.1625
27.9200 18.5827 -0.1604
27.9400 18.5960 -0.1735
27.9600 18.6093 -0.1589
27.9800 18.6227 -0.1722
28.0000 18.6360 -0.1742
28.0200 18.6493 -0.1580
28.0400 18.6627 -0.1694
28.0600 18.6760 -0.1780
28.0800 18.6893 -0.1622
28.1000 18.7027 -0.1700
28.1200 18.7160 -0.1776
28.1400 18.7294 -0.1642
28.1600 18.7427 -0.1714
28.1800 18.7561 -0.1822
28.2000 18.7694 -0.1644
28.2200 18.7827 -0.1666
28.2400 18.7961 -0.1831
28.2600 18.8094 -0.1661
28.2800 18.8227 -0.1709
28.3000 18.8360 -0.1733
28.3200 18.8494 -0.1668
28.3400 18.8627 -0.1700
28.3600 18.8760 -0.1779
28.3800 18.8893 -0.1615
28.4000 18.9026 -0.1666
28.4200 18.9160 -0.1699
28.4400 18.9293 -0.1666
28.4600 18.9427 -0.1671
28.4800 18.9560 -0.1734
28.5000 18.9694 -0.1674
28.5200 18.9827 -0.1652
28.5400 18.9961 -0.1712
28.5600 19.0094 -0.1664
28.5800 19.0227 -0.1677
28.6000 19.0361 -0.1717
28.6200 19.0494 -0.1684
28.6400 19.0627 -0.1685
28.6600 19.0760 -0.1695
28.6800 19.0894 -0.1627
28.7000 19.1027 -0.1718
28.7200 19.1160 -0.1692
28.7400 19.1293 -0.1691
28.7600 19.1426 -0.1707
28.7800 19.1560 -0.1706
28.8000 19.1693 -0.1733
28.8200 19.1826 -0.1785
28.8400 19.1960 -0.1722
28.8600 19.2094 -0.1696
28.8800 19.2227 -0.1746
28.9000 19.2361 -0.1778
28.9200 19.2494 -0.1721
28.9400 19.2628 -0.1837
28.9600 19.2761 -0.1783
28.9800 19.2894 -0.1787
29.0000 19.3027 -0.1785
29.0200 19.3160 -0.1768
29.0400 19.3293 -0.1804
29.0600 19.3427 -0.1873
29.0800 19.3560 -0.1788
29.1000 19.3693 -0.1901
29.1200 19.3827 -0.1870
29.1400 19.3960 -0.1824
29.1600 19.4094 -0.1938
29.1800 19.4227 -0.1819
29.2000 19.4360 -0.1845
29.2200 19.4494 -0.1998
29.2400 19.4628 -0.1862
29.2600 19.4761 -0.1878
29.2800 19.4894 -0.1998
29.3000 19.5027 -0.1826
29.3200 19.5160 -0.1902
29.3400 19.5294 -0.2016
29.3600 19.5427 -0.1847
29.3800 19.5560 -0.1919
29.4000 19.5693 -0.2014
29.4200 19.5827 -0.1863
29.4400 19.5960 -0.1988
29.4600 19.6093 -0.1982
29.4800 19.6226 -0.1897
29.5000 19.6360 -0.2003
29.5200 19.6494 -0.2025
29.5400 19.6627 -0.1936
29.5600 19.6760 -0.2052
29.5800 19.6894 -0.2017
29.6000 19.7027 -0.1987
29.6200 19.7161 -0.2057
29.6400 19.7294 -0.2025
29.6600 19.7427 -0.2032
29.6800 19.7560 -0.2021
29.7000 19.7694 -0.2061
29.7200 19.7827 -0.2029
29.7400 19.7960 -0.2039
29.7600 19.8093 -0.2067
29.7800 19.8227 -0.2040
29.8000 19.8360 -0.2074
29.8200 19.8493 -0.2123
29.8400 19.8626 -0.2047
29.8600 19.8760 -0.2075
29.8800 19.8893 -0.2136
29.9000 19.9027 -0.2097
29.9200 19.9160 -0.2051
29.9400 19.9294 -0.2166
29.9600 19.9428 -0.2065
29.9800 19.9561 -0.2110
30.0000 19.9694 -0.2128
30.0200 19.9828 -0.2043
30.0400 19.9961 -0.2053
30.0600 20.0094 -0.2189
30.0800 20.0227 -0.2056
30.1000 20.0360 -0.2101
30.1200 20.0493 -0.2149
30.1400 20.0627 -0.2079
30.1600 20.0760 -0.2179
30.1800 20.0893 -0.2150
30.2000 20.1027 -0.2117
30.2200 20.1160 -0.2185
30.2400 20.1293 -0.2187
30.2600 20.1427 -0.2176
30.2800 20.1560 -0.2208
30.3000 20.1693 -0.2253
30.3200 20.1827 -0.2220
30.3400 20.1961 -0.2215
30.3600 20.2094 -0.2294
30.3800 20.2227 -0.2230
30.4000 20.2361 -0.2251
30.4200 20.2494 -0.2321
30.4400 20.2628 -0.2357
30.4600 20.2760 -0.2213
30.4800 20.2894 -0.2346
30.5000 20.3027 -0.2371
30.5200 20.3160 -0.2207
30.5400 20.3293 -0.2328
30.5600 20.3426 -0.2174
30.5800 20.3560 -0.1275
30.6000 20.3693 -0.0679
30.6200 20.3827 -0.0188
30.6400 20.3960 0.0214
30.6600 20.4094 0.0323
30.6800 20.4228 0.0826
30.7000 20.4361 0.1502
30.7200 20.4494 0.1919
30.7400 20.4627 0.2524
30.7600 20.4760 0.3188
30.7800 20.4894 0.3548
30.8000 20.5027 0.4179
30.8200 20.5160 0.4789
30.8400 20.5293 0.5180
30.8600 20.5427 0.5755
30.8800 20.5560 0.6418
30.9000 20.5693 0.6822
30.9200 20.5826 0.7445
30.9400 20.5960 0.8063
30.9600 20.6093 0.8418
30.9800 20.6227 0.8952
31.0000 20.6360 0.9301
31.0200 20.6493 0.8916
31.0400 20.6627 0.8838
31.0600 20.6761 0.8821
31.0800 20.6894 0.8654
31.1000 20.7027 0.8700
31.1200 20.7161 0.8910
31.1400 20.7294 0.8710
31.1600 20.7427 0.8752
31.1800 20.7560 0.8865
31.2000 20.7693 0.8679
31.2200 20.7827 0.8701
31.2400 20.7960 0.8761
31.2600 20.8093 0.8601
31.2800 20.8226 0.8627
31.3000 20.8360 0.8755
31.3200 20.8494 0.8565
31.3400 20.8627 0.8554
31.3600 20.8760 0.8745
31.3800 20.8894 0.8486
31.4000 20.9027 0.8479
31.4200 20.9161 0.8691
31.4400 20.9294 0.8432
31.4600 20.9427 0.8463
31.4800 20.9560 0.8528
31.5000 20.9694 0.8374
31.5200 20.9827 0.8400
31.5400 20.9960 0.8538
31.5600 21.0094 0.8347
31.5800 21.0227 0.8369
31.6000 21.0361 0.8459
31.6200 21.0494 0.8297
31.6400 21.0627 0.8379
31.6600 21.0760 0.8458
31.6800 21.0893 0.8244
31.7000 21.1027 0.8292
31.7200 21.1160 0.8356
31.7400 21.1293 0.8314
31.7600 21.1427 0.8188
31.7800 21.1561 0.8308
31.8000 21.1694 0.8241
31.8200 21.1827 0.8143
31.8400 21.1960 0.8311
31.8600 21.2094 0.8175
31.8800 21.2227 0.8110
31.9000 21.2360 0.8236
31.9200 21.2494 0.8133
31.9400 21.2627 0.8011
31.9600 21.2760 0.8223
31.9800 21.2893 0.8080
32.0000 21.3026 0.8019
32.0200 21.3160 0.8199
32.0400 21.3293 0.8062
32.0600 21.3427 0.7925
32.0800 21.3560 0.8163
32.1000 21.3693 0.8016
32.1200 21.3827 0.7934
32.1400 21.3961 0.8078
32.1600 21.4094 0.7899
32.1800 21.4227 0.7877
32.2000 21.4361 0.8026
32.2200 21.4494 0.7882
32.2400 21.4627 0.7897
32.2600 21.4760 0.7939
32.2800 21.4893 0.7835
32.3000 21.5027 0.7874
32.3200 21.5160 0.7884
32.3400 21.5293 0.7841
32.3600 21.5426 0.7856
32.3800 21.5560 0.7815
32.4000 21.5693 0.7795
32.4200 21.5827 0.7731
32.4400 21.5960 0.7756
32.4600 21.6093 0.7802
32.4800 21.6227 0.7645
32.5000 21.6360 0.7742
32.5200 21.6494 0.7725
32.5400 21.6627 0.7653
32.5600 21.6761 0.7723
32.5800 21.6894 0.7747
32.6000 21.7028 0.7575
32.6200 21.7161 0.7683
32.6400 21.7294 0.7687
32.6600 21.7427 0.7549
32.6800 21.7560 0.7628
32.7000 21.7693 0.7619
32.7200 21.7826 0.7477
32.7400 21.7960 0.7664
32.7600 21.8093 0.7551
32.7800 21.8226 0.7416
32.8000 21.8360 0.7595
32.8200 21.8493 0.7530
32.8400 21.8627 0.7429
32.8600 21.8761 0.7573
32.8800 21.8894 0.7458
32.9000 21.9027 0.7360
32.9200 21.9161 0.7558
32.9400 21.9294 0.7424
32.9600 21.9428 0.7358
32.9800 21.9561 0.7530
33.0000 21.9694 0.7344
33.0200 21.9827 0.7313
33.0400 21.9961 0.7527
33.0600 22.0094 0.7334
33.0800 22.0227 0.7282
33.1000 22.0360 0.7374
33.1200 22.0493 0.7343
33.1400 22.0627 0.7241
33.1600 22.0760 0.7356
33.1800 22.0893 0.7247
33.2000 22.1027 0.7209
33.2200 22.1161 0.7291
33.2400 22.1294 0.7250
33.2600 22.1427 0.7181
33.2800 22.1560 0.7205
33.3000 22.1694 0.7221
33.3200 22.1827 0.7145
33.3400 22.1960 0.7169
33.3600 22.2093 0.7204
33.3800 22.2226 0.7066
33.4000 22.2360 0.7116
33.4200 22.2493 0.7218
33.4400 22.2626 0.7006
33.4600 22.2760 0.7099
33.4800 22.2893 0.7121
33.5000 22.3027 0.6979
33.5200 22.3160 0.7054
33.5400 22.3293 0.7112
33.5600 22.3427 0.6944
33.5800 22.3561 0.7025
33.6000 22.3694 0.7030
33.6200 22.3827 0.6966
33.6400 22.3960 0.7004
33.6600 22.4094 0.7013
33.6800 22.4227 0.6874
33.7000 22.4360 0.6993
33.7200 22.4494 0.6984
33.7400 22.4627 0.6879
33.7600 22.4761 0.6923
33.7800 22.4894 0.6900
33.8000 22.5027 0.6797
33.8200 22.5160 0.6889
33.8400 22.5293 0.6865
33.8600 22.5426 0.6824
33.8800 22.5560 0.6819
33.9000 22.5693 0.6835
33.9200 22.5827 0.6746
33.9400 22.5961 0.6803
33.9600 22.6094 0.6832
33.9800 22.6228 0.6715
34.0000 22.6361 0.6751
34.0200 22.6494 0.6722
34.0400 22.6628 0.6714
34.0600 22.6761 0.6658
34.0800 22.6894 0.6789
34.1000 22.7027 0.6683
34.1200 22.7160 0.6610
34.1400 22.7293 0.6664
34.1600 22.7426 0.6712
34.1800 22.7559 0.6648
34.2000 22.7693 0.6620
34.2200 22.7827 0.6597
34.2400 22.7960 0.6618
34.2600 22.8093 0.6606
34.2800 22.8227 0.6670
34.3000 22.8361 0.6535
34.3200 22.8494 0.6533
34.3400 22.8628 0.6613
34.3600 22.8761 0.6507
34.3800 22.8894 0.6574
34.4000 22.9028 0.6599
34.4200 22.9161 0.6450
34.4400 22.9294 0.6516
34.4600 22.9427 0.6589
34.4800 22.9560 0.6444
34.5000 22.9694 0.6485
34.5200 22.9827 0.6524
34.5400 22.9960 0.6390
34.5600 23.0093 0.6478
34.5800 23.0227 0.6507
34.6000 23.0360 0.6361
34.6200 23.0493 0.6429
34.6400 23.0627 0.6440
34.6600 23.0760 0.6380
34.6800 23.0894 0.6378
34.7000 23.1027 0.6394
34.7200 23.1160 0.6314
34.7400 23.1294 0.6388
34.7600 23.1427 0.6367
34.7800 23.1561 0.6236
34.8000 23.1694 0.6350
34.8200 23.1827 0.6297
34.8400 23.1961 0.6186
34.8600 23.2094 0.6284
34.8800 23.2227 0.6302
34.9000 23.2360 0.6138
34.9200 23.2493 0.6190
34.9400 23.2627 0.6226
34.9600 23.2760 0.6089
34.9800 23.2893 0.6253
35.0000 23.3027 0.6198
35.0200 23.3161 0.5979
35.0400 23.3294 0.6183
35.0600 23.3427 0.6151
35.0800 23.3561 0.6028
35.1000 23.3694 0.6115
35.1200 23.3827 0.6067
35.1400 23.3960 0.5967
35.1600 23.4093 0.6125
35.1800 23.4227 0.6070
35.2000 23.4360 0.5928
35.2200 23.4494 0.6023
35.2400 23.4627 0.6101
35.2600 23.4760 0.5865
35.2800 23.4893 0.5993
35.3000 23.5027 0.6061
35.3200 23.5160 0.5899
35.3400 23.5293 0.5891
35.3600 23.5427 0.6024
35.3800 23.5561 0.5900
35.4000 23.5694 0.5992
35.4200 23.5827 0.5989
35.4400 23.5961 0.5704
35.4600 23.6094 0.5951
35.4800 23.6228 0.6083
35.5000 23.6361 0.5830
35.5200 23.6494 0.5898
35.5400 23.6627 0.5864
35.5600 23.6760 0.5673
35.5800 23.6894 0.6028
35.6000 23.7027 0.5990
35.6200 23.7160 0.5707
35.6400 23.7293 0.5848
35.6600 23.7427 0.5774
35.6800 23.7560 0.5689
35.7000 23.7693 0.6029
35.7200 23.7827 0.5869
35.7400 23.7961 0.5543
35.7600 23.8094 0.5722
35.7800 23.8227 0.5848
35.8000 23.8360 0.5842
35.8200 23.8494 0.5829
35.8400 23.8627 0.5515
35.8600 23.8761 0.5688
35.8800 23.8894 0.5884
35.9000 23.9027 0.5722
35.9200 23.9160 0.5656
35.9400 23.9294 0.5644
35.9600 23.9427 0.5608
35.9800 23.9559 0.5702
36.0000 23.9693 0.5681
36.0200 23.9826 0.5619
36.0400 23.9960 0.5551
36.0600 24.0093 0.5479
36.0800 24.0227 0.5708
36.1000 24.0361 0.5716
36.1200 24.0495 0.5438
36.1400 24.0628 0.5505
36.1600 24.0761 0.5611
36.1800 24.0894 0.5558
36.2000 24.1028 0.5655
36.2200 24.1161 0.5461
36.2400 24.1294 0.5397
36.2600 24.1427 0.5607
36.2800 24.1560 0.5501
36.3000 24.1693 0.5418
36.3200 24.1826 0.5576
36.3400 24.1960 0.5392
36.3600 24.2093 0.5412
36.3800 24.2227 0.5558
36.4000 24.2360 0.5350
36.4200 24.2494 0.5394
36.4400 24.2627 0.5460
36.4600 24.2761 0.5315
36.4800 24.2894 0.5389
36.5000 24.3027 0.5427
36.5200 24.3161 0.5331
36.5400 24.3294 0.5299
36.5600 24.3427 0.5360
36.5800 24.3561 0.5303
36.6000 24.3694 0.5271
36.6200 24.3827 0.5302
36.6400 24.3960 0.5302
36.6600 24.4094 0.5293
36.6800 24.4227 0.5258
36.7000 24.4360 0.5264
36.7200 24.4493 0.5216
36.7400 24.4627 0.5223
36.7600 24.4760 0.5222
36.7800 24.4893 0.5182
36.8000 24.5027 0.5213
36.8200 24.5160 0.5195
36.8400 24.5294 0.5077
36.8600 24.5427 0.5174
36.8800 24.5561 0.5231
36.9000 24.5694 0.5124
36.9200 24.5828 0.5064
36.9400 24.5961 0.5150
36.9600 24.6094 0.5087
36.9800 24.6227 0.5122
37.0000 24.6360 0.5113
37.0200 24.6494 0.5034
37.0400 24.6627 0.5066
37.0600 24.6760 0.5093
37.0800 24.6893 0.5017
37.1000 24.7026 0.5072
37.1200 24.7160 0.5040
37.1400 24.7293 0.4975
37.1600 24.7427 0.5039
37.1800 24.7560 0.4984
37.2000 24.7694 0.4986
37.2200 24.7828 0.4973
37.2400 24.7961 0.4981
37.2600 24.8094 0.4997
37.2800 24.8227 0.4936
37.3000 24.8361 0.4910
37.3200 24.8494 0.5053
37.3400 24.8627 0.4914
37.3600 24.8760 0.4883
37.3800 24.8894 0.4980
37.4000 24.9027 0.4947
37.4200 24.9160 0.4880
37.4400 24.9293 0.4947
37.4600 24.9427 0.4932
37.4800 24.9560 0.4875
37.5000 24.9693 0.4900
37.5200 24.9827 0.4954
37.5400 24.9960 0.4914
37.5600 25.0094 0.4797
37.5800 25.0227 0.4850
37.6000 25.0360 0.4921
37.6200 25.0494 0.4795
37.6400 25.0627 0.4906
37.6600 25.0761 0.4844
37.6800 25.0894 0.4671
37.7000 25.1027 0.4905
37.7200 25.1160 0.4824
37.7400 25.1294 0.4706
37.7600 25.1427 0.4827
37.7800 25.1560 0.4754
37.8000 25.1693 0.4693
37.8200 25.1826 0.4801
37.8400 25.1960 0.4715
37.8600 25.2093 0.4667
37.8800 25.2227 0.4735
37.9000 25.2361 0.4700
37.9200 25.2494 0.4610
37.9400 25.2628 0.4703
37.9600 25.2761 0.4704
37.9800 25.2894 0.4539
38.0000 25.3028 0.4658
38.0200 25.3161 0.4767
38.0400 25.3294 0.4471
38.0600 25.3427 0.4550
38.0800 25.3560 0.4751
38.1000 25.3694 0.4496
38.1200 25.3827 0.4498
38.1400 25.3960 0.4662
38.1600 25.4093 0.4465
38.1800 25.4226 0.4509
38.2000 25.4360 0.4606
38.2200 25.4493 0.4438
38.2400 25.4626 0.4540
38.2600 25.4760 0.4485
38.2800 25.4894 0.4356
38.3000 25.5028 0.4535
38.3200 25.5161 0.4512
38.3400 25.5294 0.4357
38.3600 25.5428 0.4437
38.3800 25.5561 0.4417
38.4000 25.5694 0.4466
38.4200 25.5827 0.4439
38.4400 25.5960 0.4303
38.4600 25.6093 0.4303
38.4800 25.6227 0.4458
38.5000 25.6360 0.4327
38.5200 25.6493 0.4389
38.5400 25.6627 0.4331
38.5600 25.6760 0.4171
38.5800 25.6894 0.4292
38.6000 25.7027 0.4423
38.6200 25.7160 0.4309
38.6400 25.7294 0.4248
38.6600 25.7427 0.4152
38.6800 25.7560 0.4267
38.7000 25.7694 0.4421
38.7200 25.7827 0.4274
38.7400 25.7961 0.4156
38.7600 25.8094 0.4227
38.7800 25.8227 0.4186
38.8000 25.8360 0.4234
38.8200 25.8494 0.4340
38.8400 25.8627 0.4175
38.8600 25.8760 0.4093
38.8800 25.8893 0.4125
38.9000 25.9027 0.4268
38.9200 25.9160 0.4125
38.9400 25.9293 0.4211
38.9600 25.9426 0.4143
38.9800 25.9560 0.3997
39.0000 25.9694 0.4189
39.0200 25.9827 0.4192
39.0400 25.9960 0.3941
39.0600 26.0094 0.4177
39.0800 26.0227 0.4084
39.1000 26.0361 0.3941
39.1200 26.0494 0.4098
39.1400 26.0627 0.4036
39.1600 26.0760 0.3893
39.1800 26.0894 0.4157
39.2000 26.1027 0.3971
39.2200 26.1160 0.3792
39.2400 26.1293 0.4115
39.2600 26.1426 0.4016
39.2800 26.1560 0.3823
39.3000 26.1693 0.4025
39.3200 26.1827 0.3959
39.3400 26.1960 0.3736
39.3600 26.2094 0.3970
39.3800 26.2228 0.3959
39.4000 26.2361 0.3799
39.4200 26.2494 0.3910
39.4400 26.2628 0.3810
39.4600 26.2761 0.3784
39.4800 26.2894 0.3908
39.5000 26.3027 0.3900
39.5200 26.3160 0.3713
39.5400 26.3294 0.3780
39.5600 26.3427 0.3847
39.5800 26.3560 0.3695
39.6000 26.3693 0.3881
39.6200 26.3827 0.3797
39.6400 26.3960 0.3719
39.6600 26.4094 0.3817
39.6800 26.4227 0.3751
39.7000 26.4360 0.3622
39.7200 26.4494 0.3807
39.7400 26.4627 0.3848
39.7600 26.4761 0.3607
39.7800 26.4894 0.3768
39.8000 26.5027 0.3709
39.8200 26.5161 0.3652
39.8400 26.5294 0.3765
39.8600 26.5427 0.3746
39.8800 26.5560 0.3705
39.9000 26.5693 0.3688
39.9200 26.5827 0.3604
39.9400 26.5960 0.3707
39.9600 26.6093 0.3805
39.9800 26.6226 0.3694
40.0000 26.6360 0.3570
40.0200 26.6493 0.3641
40.0400 26.6627 0.3660
40.0600 26.6760 0.3664
40.0800 26.6894 0.3636
40.1000 26.7028 0.3644
40.1200 26.7161 0.3581
40.1400 26.7294 0.3536
40.1600 26.7427 0.3661
40.1800 26.7561 0.3592
40.2000 26.7694 0.3515
40.2200 26.7827 0.3588
40.2400 26.7960 0.3526
40.2600 26.8094 0.3517
40.2800 26.8227 0.3581
40.3000 26.8360 0.3447
40.3200 26.8493 0.3463
40.3400 26.8626 0.3584
40.3600 26.8760 0.3395
40.3800 26.8893 0.3429
40.4000 26.9027 0.3508
40.4200 26.9160 0.3327
40.4400 26.9294 0.3468
40.4600 26.9427 0.3483
40.4800 26.9560 0.3247
40.5000 26.9694 0.3403
40.5200 26.9827 0.3463
40.5400 26.9961 0.3188
40.5600 27.0094 0.3439
40.5800 27.0227 0.3364
40.6000 27.0360 0.3171
40.6200 27.0493 0.3430
40.6400 27.0627 0.3355
40.6600 27.0760 0.3154
40.6800 27.0893 0.3419
40.7000 27.1026 0.3292
40.7200 27.1160 0.3140
40.7400 27.1294 0.3371
40.7600 27.1427 0.3266
40.7800 27.1560 0.3174
40.8000 27.1694 0.3365
40.8200 27.1827 0.3177
40.8400 27.1960 0.3147
40.8600 27.2093 0.3336
40.8800 27.2227 0.3149
40.9000 27.2361 0.3142
40.9200 27.2494 0.3274
40.9400 27.2627 0.3220
40.9600 27.2761 0.3104
40.9800 27.2894 0.3234
41.0000 27.3028 0.3139
41.0200 27.3161 0.3149
41.0400 27.3293 0.3227
41.0600 27.3427 0.3124
41.0800 27.3560 0.3151
41.1000 27.3693 0.3173
41.1200 27.3826 0.3039
41.1400 27.3960 0.3177
41.1600 27.4094 0.3111
41.1800 27.4228 0.3055
41.2000 27.4361 0.3090
41.2200 27.4494 0.3146
41.2400 27.4628 0.3050
41.2600 27.4761 0.3072
41.2800 27.4894 0.3082
41.3000 27.5027 0.3059
41.3200 27.5160 0.3061
41.3400 27.5293 0.3048
41.3600 27.5427 0.3002
41.3800 27.5560 0.3019
41.4000 27.5693 0.3072
41.4200 27.5826 0.3046
41.4400 27.5960 0.2914
41.4600 27.6093 0.2981
41.4800 27.6227 0.3027
41.5000 27.6360 0.2923
41.5200 27.6494 0.3021
41.5400 27.6628 0.2960
41.5600 27.6761 0.2882
41.5800 27.6894 0.2982
41.6000 27.7027 0.2954
41.6200 27.7161 0.2795
41.6400 27.7294 0.3028
41.6600 27.7427 0.2876
41.6800 27.7560 0.2697
41.7000 27.7693 0.2978
41.7200 27.7827 0.2911
41.7400 27.7960 0.2715
41.7600 27.8093 0.2934
41.7800 27.8226 0.2852
41.8000 27.8360 0.2734
41.8200 27.8494 0.2856
41.8400 27.8627 0.2852
41.8600 27.8760 0.2760
41.8800 27.8894 0.2828
41.9000 27.9027 0.2744
41.9200 27.9161 0.2677
41.9400 27.9294 0.2864
41.9600 27.9427 0.2757
41.9800 27.9561 0.2728
42.0000 27.9694 0.2760
42.0200 27.9827 0.2798
42.0400 27.9960 0.2704
42.0600 28.0094 0.2772
42.0800 28.0227 0.2706
42.1000 28.0360 0.2660
42.1200 28.0493 0.2750
42.1400 28.0626 0.2685
42.1600 28.0760 0.2629
42.1800 28.0893 0.2771
42.2000 28.1027 0.2645
42.2200 28.1160 0.2651
42.2400 28.1294 0.2694
42.2600 28.1428 0.2634
42.2800 28.1561 0.2559
42.3000 28.1694 0.2713
42.3200 28.1827 0.2570
42.3400 28.1961 0.2570
42.3600 28.2094 0.2687
42.3800 28.2227 0.2533
42.4000 28.2360 0.2544
42.4200 28.2493 0.2682
42.4400 28.2627 0.2508
42.4600 28.2760 0.2501
42.4800 28.2893 0.2651
42.5000 28.3027 0.2510
42.5200 28.3160 0.2512
42.5400 28.3293 0.2604
42.5600 28.3427 0.2517
42.5800 28.3560 0.2506
42.6000 28.3694 0.2599
42.6200 28.3827 0.2475
42.6400 28.3961 0.2537
42.6600 28.4094 0.2541
42.6800 28.4227 0.2501
42.7000 28.4361 0.2516
42.7200 28.4494 0.2505
42.7400 28.4627 0.2504
42.7600 28.4760 0.2558
42.7800 28.4893 0.2438
42.8000 28.5027 0.2477
42.8200 28.5160 0.2561
42.8400 28.5293 0.2430
42.8600 28.5426 0.2446
42.8800 28.5560 0.2540
42.9000 28.5693 0.2395
42.9200 28.5827 0.2386
42.9400 28.5960 0.2527
42.9600 28.6094 0.2387
42.9800 28.6227 0.2371
43.0000 28.6361 0.2443
43.0200 28.6494 0.2360
43.0400 28.6627 0.2371
43.0600 28.6761 0.2397
43.0800 28.6894 0.2337
43.1000 28.7027 0.2308
43.1200 28.7160 0.2340
43.1400 28.7293 0.2331
43.1600 28.7427 0.2270
43.1800 28.7560 0.2377
43.2000 28.7693 0.2261
43.2200 28.7826 0.2231
43.2400 28.7959 0.2306
43.2600 28.8093 0.2289
43.2800 28.8226 0.2241
43.3000 28.8360 0.2247
43.3200 28.8493 0.2213
43.3400 28.8628 0.2260
43.3600 28.8761 0.2232
43.3800 28.8895 0.2185
43.4000 28.9028 0.2167
43.4200 28.9161 0.2227
43.4400 28.9295 0.2163
43.4600 28.9427 0.2146
43.4800 28.9560 0.2208
43.5000 28.9693 0.2108
43.5200 28.9826 0.2148
43.5400 28.9960 0.2202
43.5600 29.0093 0.2026
43.5800 29.0226 0.2064
43.6000 29.0360 0.2208
43.6200 29.0494 0.1994
43.6400 29.0627 0.2087
43.6600 29.0760 0.2099
43.6800 29.0894 0.1894
43.7000 29.1028 0.2140
43.7200 29.1161 0.2239
43.7400 29.1294 0.1707
43.7600 29.1427 0.1926
43.7800 29.1561 0.2231
43.8000 29.1694 0.1941
43.8200 29.1827 0.1866
43.8400 29.1960 0.2059
43.8600 29.2093 0.1831
43.8800 29.2227 0.1923
43.9000 29.2360 0.2175
43.9200 29.2493 0.1785
43.9400 29.2626 0.1840
43.9600 29.2760 0.2059
43.9800 29.2893 0.1780
44.0000 29.3027 0.1891
44.0200 29.3160 0.2028
44.0400 29.3294 0.1759
44.0600 29.3427 0.1856
44.0800 29.3561 0.2028
44.1000 29.3694 0.1701
44.1200 29.3827 0.1865
44.1400 29.3961 0.1957
44.1600 29.4094 0.1823
44.1800 29.4227 0.1924
44.2000 29.4360 0.1790
44.2200 29.4493 0.1678
44.2400 29.4627 0.1932
44.2600 29.4760 0.2054
44.2800 29.4893 0.1531
44.3000 29.5026 0.1662
44.3200 29.5160 0.2143
44.3400 29.5293 0.1781
44.3600 29.5427 0.1488
44.3800 29.5560 0.1977
44.4000 29.5693 0.1595
44.4200 29.5827 0.1692
44.4400 29.5961 0.2186
44.4600 29.6094 0.1363
44.4800 29.6227 0.1565
44.5000 29.6361 0.2151
44.5200 29.6494 0.1385
44.5400 29.6627 0.1764
44.5600 29.6760 0.2009
44.5800 29.6893 0.1238
44.6000 29.7027 0.1882
44.6200 29.7160 0.1867
44.6400 29.7294 0.1236
44.6600 29.7427 0.1975
44.6800 29.7560 0.1720
44.7000 29.7693 0.1168
44.7200 29.7827 0.2045
44.7400 29.7960 0.1628
44.7600 29.8093 0.1295
44.7800 29.8227 0.1916
44.8000 29.8361 0.1564
44.8200 29.8494 0.1405
44.8400 29.8627 0.1839
44.8600 29.8761 0.1476
44.8800 29.8894 0.1529
44.9000 29.9028 0.1711
44.9200 29.9161 0.1464
44.9400 29.9294 0.1558
44.9600 29.9427 0.1609
44.9800 29.9560 0.1452
45.0000 29.9693 0.1572
45.0200 29.9826 0.1550
45.0400 29.9960 0.1499
45.0600 30.0093 0.1542
45.0800 30.0227 0.1387
45.1000 30.0360 0.1536
45.1200 30.0494 0.1581
45.1400 30.0628 0.1316
45.1600 30.0761 0.1470
45.1800 30.0894 0.1493
45.2000 30.1027 0.1301
45.2200 30.1160 0.1619
45.2400 30.1294 0.1412
45.2600 30.1427 0.1286
45.2800 30.1560 0.1548
45.3000 30.1693 0.1382
45.3200 30.1827 0.1256
45.3400 30.1960 0.1530
45.3600 30.2093 0.1335
45.3800 30.2226 0.1326
45.4000 30.2360 0.1476
45.4200 30.2493 0.1166
45.4400 30.2627 0.1340
45.4600 30.2760 0.1514
45.4800 30.2893 0.1223
45.5000 30.3027 0.1326
45.5200 30.3161 0.1346
45.5400 30.3294 0.1146
45.5600 30.3427 0.1382
45.5800 30.3561 0.1374
45.6000 30.3694 0.1129
45.6200 30.3827 0.1346
45.6400 30.3960 0.1316
45.6600 30.4093 0.1126
45.6800 30.4226 0.1434
45.7000 30.4360 0.1239
45.7200 30.4493 0.1135
45.7400 30.4626 0.1359
45.7600 30.4760 0.1160
45.7800 30.4894 0.1108
45.8000 30.5027 0.1400
45.8200 30.5160 0.1110
45.8400 30.5294 0.1093
45.8600 30.5427 0.1299
45.8800 30.5561 0.1167
45.9000 30.5694 0.1045
45.9200 30.5827 0.1219
45.9400 30.5960 0.1096
45.9600 30.6094 0.1060
45.9800 30.6227 0.1170
46.0000 30.6361 0.1041
46.0200 30.6494 0.1073
46.0400 30.6627 0.1165
46.0600 30.6761 0.1026
46.0800 30.6894 0.1079
46.1000 30.7027 0.1164
46.1200 30.7160 0.1001
46.1400 30.7293 0.0998
46.1600 30.7427 0.1130
46.1800 30.7560 0.0974
46.2000 30.7693 0.0960
46.2200 30.7827 0.1138
46.2400 30.7961 0.0936
46.2600 30.8094 0.0932
46.2800 30.8227 0.1089
46.3000 30.8360 0.0996
46.3200 30.8494 0.0925
46.3400 30.8628 0.1072
46.3600 30.8761 0.0911
46.3800 30.8894 0.0950
46.4000 30.9027 0.1098
46.4200 30.9161 0.0890
46.4400 30.9294 0.0924
46.4600 30.9427 0.1064
46.4800 30.9560 0.0873
46.5000 30.9693 0.0926
46.5200 30.9826 0.0983
46.5400 30.9960 0.0829
46.5600 31.0093 0.0919
46.5800 31.0227 0.0987
46.6000 31.0361 0.0788
46.6200 31.0494 0.0818
46.6400 31.0627 0.0965
46.6600 31.0760 0.0852
46.6800 31.0894 0.0877
46.7000 31.1027 0.0876
46.7200 31.1160 0.0875
46.7400 31.1294 0.0869
46.7600 31.1427 0.0819
46.7800 31.1560 0.0828
46.8000 31.1694 0.0858
46.8200 31.1827 0.0759
46.8400 31.1960 0.0870
46.8600 31.2094 0.0756
46.8800 31.2227 0.0746
46.9000 31.2360 0.0811
46.9200 31.2493 0.0797
46.9400 31.2627 0.0763
46.9600 31.2760 0.0778
46.9800 31.2894 0.0693
47.0000 31.3027 0.0787
47.0200 31.3161 0.0777
47.0400 31.3294 0.0668
47.0600 31.3428 0.0778
47.0800 31.3561 0.0710
47.1000 31.3694 0.0625
47.1200 31.3827 0.0770
47.1400 31.3960 0.0710
47.1600 31.4093 0.0683
47.1800 31.4226 0.0644
47.2000 31.4359 0.0522
47.2200 31.4493 0.0699
47.2400 31.4626 0.0738
47.2600 31.4760 0.0570
47.2800 31.4893 0.0555
47.3000 31.5027 0.0664
47.3200 31.5161 0.0556
47.3400 31.5294 0.0559
47.3600 31.5427 0.0641
47.3800 31.5560 0.0603
47.4000 31.5694 0.0471
47.4200 31.5828 0.0550
47.4400 31.5961 0.0527
47.4600 31.6094 0.0561
47.4800 31.6227 0.0559
47.5000 31.6360 0.0439
47.5200 31.6494 0.0475
47.5400 31.6627 0.0540
47.5600 31.6760 0.0488
47.5800 31.6893 0.0473
47.6000 31.7027 0.0476
47.6200 31.7160 0.0577
47.6400 31.7293 0.0432
47.6600 31.7427 0.0402
47.6800 31.7561 0.0526
47.7000 31.7694 0.0456
47.7200 31.7827 0.0500
47.7400 31.7961 0.0436
47.7600 31.8094 0.0357
47.7800 31.8228 0.0489
47.8000 31.8361 0.0571
47.8200 31.8493 0.0329
47.8400 31.8627 0.0460
47.8600 31.8760 0.0479
47.8800 31.8893 0.0384
47.9000 31.9027 0.0447
47.9200 31.9160 0.0405
47.9400 31.9293 0.0385
47.9600 31.9427 0.0554
47.9800 31.9560 0.0238
48.0000 31.9693 0.0349
48.0200 31.9827 0.0551
48.0400 31.9960 0.0278
48.0600 32.0094 0.0261
48.0800 32.0227 0.0510
48.1000 32.0360 0.0312
48.1200 32.0494 0.0244
48.1400 32.0627 0.0337
48.1600 32.0760 0.0292
48.1800 32.0894 0.0401
48.2000 32.1027 0.0346
48.2200 32.1161 0.0202
48.2400 32.1294 0.0229
48.2600 32.1427 0.0343
48.2800 32.1560 0.0307
48.3000 32.1693 0.0239
48.3200 32.1826 0.0189
48.3400 32.1960 0.0246
48.3600 32.2093 0.0250
48.3800 32.2227 0.0207
48.4000 32.2361 0.0275
48.4200 32.2494 0.0274
48.4400 32.2628 0.0097
48.4600 32.2761 0.0153
48.4800 32.2894 0.0230
48.5000 32.3028 0.0207
48.5200 32.3161 0.0154
48.5400 32.3294 0.0157
48.5600 32.3427 0.0188
48.5800 32.3560 0.0133
48.6000 32.3693 0.0161
48.6200 32.3826 0.0167
48.6400 32.3959 0.0087
48.6600 32.4093 0.0163
48.6800 32.4227 0.0099
48.7000 32.4360 0.0057
48.7200 32.4493 0.0176
48.7400 32.4627 0.0040
48.7600 32.4761 -0.0034
48.7800 32.4894 0.0204
48.8000 32.5028 0.0179
48.8200 32.5161 -0.0158
48.8400 32.5294 -0.0012
48.8600 32.5428 0.0190
48.8800 32.5561 -0.0027
48.9000 32.5693 0.0022
48.9200 32.5827 0.0089
48.9400 32.5960 -0.0198
48.9600 32.6094 -0.0027
48.9800 32.6227 0.0082
49.0000 32.6360 -0.0088
49.0200 32.6493 0.0029
49.0400 32.6627 -0.0067
49.0600 32.6760 -0.0285
49.0800 32.6893 0.0160
49.1000 32.7027 -0.0012
49.1200 32.7161 -0.0244
49.1400 32.7294 0.0044
49.1600 32.7427 -0.0166
49.1800 32.7560 -0.0208
49.2000 32.7694 0.0086
49.2200 32.7827 -0.0134
49.2400 32.7961 -0.0209
49.2600 32.8094 0.0028
49.2800 32.8227 -0.0183
49.3000 32.8360 -0.0140
49.3200 32.8494 -0.0020
49.3400 32.8627 -0.0175
49.3600 32.8759 -0.0158
49.3800 32.8893 -0.0110
49.4000 32.9027 -0.0193
49.4200 32.9160 -0.0044
49.4400 32.9293 -0.0134
49.4600 32.9427 -0.0274
49.4800 32.9561 -0.0075
49.5000 32.9694 -0.0176
49.5200 32.9827 -0.0222
49.5400 32.9961 -0.0037
49.5600 33.0094 -0.0237
49.5800 33.0227 -0.0263
49.6000 33.0360 -0.0100
49.6200 33.0493 -0.0225
49.6400 33.0626 -0.0262
49.6600 33.0760 -0.0176
49.6800 33.0894 -0.0255
49.7000 33.1027 -0.0258
49.7200 33.1160 -0.0173
49.7400 33.1293 -0.0271
49.7600 33.1427 -0.0295
49.7800 33.1560 -0.0292
49.8000 33.1693 -0.0288
49.8200 33.1827 -0.0283
49.8400 33.1960 -0.0265
49.8600 33.2094 -0.0396
49.8800 33.2227 -0.0333
49.9000 33.2361 -0.0294
49.9200 33.2494 -0.0349
49.9400 33.2628 -0.0364
49.9600 33.2761 -0.0352
49.9800 33.2894 -0.0416
50.0000 33.3027 -0.0329
50.0200 33.3160 -0.0389
50.0400 33.3294 -0.0413
50.0600 33.3427 -0.0393
50.0800 33.3560 -0.0411
50.1000 33.3693 -0.0437
50.1200 33.3827 -0.0433
50.1400 33.3960 -0.0479
50.1600 33.4094 -0.0424
50.1800 33.4227 -0.0461
50.2000 33.4361 -0.0497
50.2200 33.4494 -0.0444
50.2400 33.4627 -0.0559
50.2600 33.4760 -0.0457
50.2800 33.4894 -0.0437
50.3000 33.5028 -0.0583
50.3200 33.5161 -0.0532
50.3400 33.5294 -0.0450
50.3600 33.5427 -0.0593
50.3800 33.5560 -0.0471
50.4000 33.5694 -0.0514
50.4200 33.5827 -0.0601
50.4400 33.5960 -0.0485
50.4600 33.6093 -0.0563
50.4800 33.6226 -0.0653
50.5000 33.6360 -0.0499
50.5200 33.6493 -0.0624
50.5400 33.6626 -0.0601
50.5600 33.6760 -0.0565
50.5800 33.6894 -0.0623
50.6000 33.7028 -0.0606
50.6200 33.7161 -0.0584
50.6400 33.7294 -0.0612
50.6600 33.7428 -0.0656
50.6800 33.7561 -0.0665
50.7000 33.7694 -0.0647
50.7200 33.7827 -0.0653
50.7400 33.7960 -0.0721
50.7600 33.8093 -0.0662
50.7800 33.8227 -0.0719
50.8000 33.8360 -0.0742
50.8200 33.8493 -0.0638
50.8400 33.8627 -0.0770
50.8600 33.8760 -0.0764
50.8800 33.8894 -0.0673
50.9000 33.9027 -0.0810
50.9200 33.9161 -0.0773
50.9400 33.9294 -0.0718
50.9600 33.9427 -0.0802
50.9800 33.9560 -0.0781
51.0000 33.9694 -0.0671
51.0200 33.9827 -0.0874
51.0400 33.9961 -0.0792
51.0600 34.0093 -0.0743
51.0800 34.0227 -0.0858
51.1000 34.0360 -0.0775
51.1200 34.0494 -0.0773
51.1400 34.0627 -0.0903
51.1600 34.0760 -0.0785
51.1800 34.0893 -0.0823
51.2000 34.1027 -0.0874
51.2200 34.1160 -0.0836
51.2400 34.1294 -0.0891
51.2600 34.1427 -0.0835
51.2800 34.1561 -0.0863
51.3000 34.1694 -0.0905
51.3200 34.1827 -0.0912
51.3400 34.1960 -0.0858
51.3600 34.2094 -0.0944
51.3800 34.2228 -0.0872
51.4000 34.2361 -0.0889
51.4200 34.2494 -0.1003
51.4400 34.2627 -0.0910
51.4600 34.2760 -0.0881
51.4800 34.2894 -0.1027
51.5000 34.3027 -0.0920
51.5200 34.3160 -0.0963
51.5400 34.3293 -0.1019
51.5600 34.3426 -0.0963
51.5800 34.3560 -0.0980
51.6000 34.3693 -0.1103
51.6200 34.3827 -0.0949
51.6400 34.3960 -0.1011
51.6600 34.4094 -0.1124
51.6800 34.4228 -0.0978
51.7000 34.4361 -0.1047
51.7200 34.4494 -0.1133
51.7400 34.4628 -0.0997
51.7600 34.4761 -0.1062
51.7800 34.4894 -0.1124
51.8000 34.5026 -0.0973
51.8200 34.5160 -0.1106
51.8400 34.5294 -0.1109
51.8600 34.5427 -0.1042
51.8800 34.5560 -0.1168
51.9000 34.5693 -0.1117
51.9200 34.5827 -0.1060
51.9400 34.5960 -0.1239
51.9600 34.6093 -0.1070
51.9800 34.6226 -0.1104
52.0000 34.6360 -0.1218
52.0200 34.6493 -0.1186
52.0400 34.6627 -0.1135
52.0600 34.6760 -0.1231
52.0800 34.6894 -0.1168
52.1000 34.7028 -0.1186
52.1200 34.7161 -0.1225
52.1400 34.7294 -0.1190
52.1600 34.7427 -0.1221
52.1800 34.7560 -0.1274
52.2000 34.7693 -0.1164
52.2200 34.7827 -0.1247
52.2400 34.7960 -0.1320
52.2600 34.8093 -0.1260
52.2800 34.8226 -0.1208
52.3000 34.8360 -0.1309
52.3200 34.8493 -0.1302
52.3400 34.8627 -0.1262
52.3600 34.8760 -0.1336
52.3800 34.8894 -0.1298
52.4000 34.9028 -0.1279
52.4200 34.9161 -0.1337
52.4400 34.9294 -0.1350
52.4600 34.9427 -0.1278
52.4800 34.9561 -0.1415
52.5000 34.9694 -0.1319
52.5200 34.9827 -0.1314
52.5400 34.9960 -0.1423
52.5600 35.0094 -0.1374
52.5800 35.0227 -0.1329
52.6000 35.0360 -0.1475
52.6200 35.0493 -0.1345
52.6400 35.0626 -0.1353
52.6600 35.0760 -0.1504
52.6800 35.0893 -0.1394
52.7000 35.1027 -0.1401
52.7200 35.1160 -0.1504
52.7400 35.1294 -0.1398
52.7600 35.1428 -0.1406
52.7800 35.1561 -0.1533
52.8000 35.1694 -0.1455
52.8200 35.1828 -0.1451
52.8400 35.1961 -0.1563
52.8600 35.2094 -0.1466
52.8800 35.2226 -0.1433
52.9000 35.2360 -0.1575
52.9200 35.2493 -0.1458
52.9400 35.2627 -0.1526
52.9600 35.2760 -0.1603
52.9800 35.2893 -0.1448
53.0000 35.3027 -0.1494
53.0200 35.3161 -0.1668
53.0400 35.3294 -0.1454
53.0600 35.3427 -0.1545
53.0800 35.3561 -0.1664
53.1000 35.3694 -0.1541
53.1200 35.3828 -0.1565
53.1400 35.3961 -0.1697
53.1600 35.4094 -0.1503
53.1800 35.4227 -0.1603
53.2000 35.4361 -0.1670
53.2200 35.4494 -0.1563
53.2400 35.4627 -0.1669
53.2600 35.4760 -0.1716
53.2800 35.4894 -0.1554
53.3000 35.5027 -0.1679
53.3200 35.5160 -0.1768
53.3400 35.5293 -0.1608
53.3600 35.5426 -0.1670
53.3800 35.5560 -0.1738
53.4000 35.5693 -0.1665
53.4200 35.5826 -0.1698
53.4400 35.5960 -0.1756
53.4600 35.6094 -0.1696
53.4800 35.6227 -0.1772
53.5000 35.6361 -0.1711
53.5200 35.6494 -0.1723
53.5400 35.6627 -0.1770
53.5600 35.6761 -0.1771
53.5800 35.6894 -0.1784
53.6000 35.7027 -0.1828
53.6200 35.7160 -0.1730
53.6400 35.7294 -0.1866
53.6600 35.7427 -0.1837
53.6800 35.7560 -0.1796
53.7000 35.7693 -0.1867
53.7200 35.7826 -0.1816
53.7400 35.7960 -0.1836
53.7600 35.8093 -0.1920
53.7800 35.8227 -0.1842
53.8000 35.8360 -0.1875
53.8200 35.8494 -0.1987
53.8400 35.8627 -0.1812
53.8600 35.8761 -0.1867
53.8800 35.8894 -0.2019
53.9000 35.9028 -0.1857
53.9200 35.9161 -0.1903
53.9400 35.9294 -0.2013
53.9600 35.9427 -0.1792
53.9800 35.9560 -0.1969
54.0000 35.9693 -0.1988
54.0200 35.9827 -0.1870
54.0400 35.9960 -0.1969
54.0600 36.0093 -0.2030
54.0800 36.0227 -0.1889
54.1000 36.0360 -0.2012
54.1200 36.0494 -0.2042
54.1400 36.0627 -0.1952
54.1600 36.0760 -0.2000
54.1800 36.0894 -0.2055
54.2000 36.1027 -0.1987
54.2200 36.1160 -0.2038
54.2400 36.1294 -0.2064
54.2600 36.1427 -0.2003
54.2800 36.1561 -0.2063
54.3000 36.1694 -0.2088
54.3200 36.1827 -0.1992
54.3400 36.1960 -0.2083
54.3600 36.2094 -0.2161
54.3800 36.2227 -0.2000
54.4000 36.2360 -0.2085
54.4200 36.2493 -0.2188
54.4400 36.2626 -0.2070
54.4600 36.2760 -0.2092
54.4800 36.2893 -0.2264
54.5000 36.3027 -0.2114
54.5200 36.3160 -0.2114
54.5400 36.3294 -0.2258
54.5600 36.3428 -0.2197
54.5800 36.3561 -0.2161
54.6000 36.3694 -0.2290
54.6200 36.3827 -0.2176
54.6400 36.3961 -0.2241
54.6600 36.4094 -0.2275
54.6800 36.4227 -0.2214
54.7000 36.4360 -0.2259
54.7200 36.4493 -0.2328
54.7400 36.4627 -0.2228
54.7600 36.4760 -0.2325
54.7800 36.4893 -0.2359
54.8000 36.5026 -0.2245
54.8200 36.5160 -0.2368
54.8400 36.5293 -0.2351
54.8600 36.5427 -0.2303
54.8800 36.5560 -0.2404
54.9000 36.5694 -0.2352
54.9200 36.5827 -0.2314
54.9400 36.5961 -0.2432
54.9600 36.6094 -0.2374
54.9800 36.6227 -0.2366
55.0000 36.6361 -0.2458
55.0200 36.6494 -0.2384
55.0400 36.6627 -0.2355
55.0600 36.6760 -0.2494
55.0800 36.6893 -0.2368
55.1000 36.7027 -0.2445
55.1200 36.7160 -0.2483
55.1400 36.7293 -0.2399
55.1600 36.7426 -0.2498
55.1800 36.7560 -0.2501
55.2000 36.7693 -0.2414
55.2200 36.7827 -0.2535
55.2400 36.7960 -0.2518
55.2600 36.8094 -0.2473
55.2800 36.8227 -0.2524
55.3000 36.8360 -0.2477
55.3200 36.8493 -0.2562
55.3400 36.8627 -0.2560
55.3600 36.8761 -0.2509
55.3800 36.8894 -0.2590
55.4000 36.9027 -0.2605
55.4200 36.9161 -0.2501
55.4400 36.9294 -0.2607
55.4600 36.9428 -0.2642
55.4800 36.9561 -0.2553
55.5000 36.9693 -0.2592
55.5200 36.9826 -0.2667
55.5400 36.9960 -0.2557
55.5600 37.0093 -0.2683
55.5800 37.0226 -0.2653
55.6000 37.0360 -0.2542
55.6200 37.0494 -0.2683
55.6400 37.0628 -0.2698
55.6600 37.0761 -0.2568
55.6800 37.0894 -0.2703
55.7000 37.1028 -0.2719
55.7200 37.1161 -0.2606
55.7400 37.1294 -0.2750
55.7600 37.1427 -0.2653
55.7800 37.1560 -0.2591
55.8000 37.1693 -0.2738
55.8200 37.1827 -0.2698
55.8400 37.1960 -0.2690
55.8600 37.2093 -0.2763
55.8800 37.2226 -0.2661
55.9000 37.2360 -0.2734
55.9200 37.2493 -0.2791
55.9400 37.2627 -0.2673
55.9600 37.2760 -0.2739
55.9800 37.2894 -0.2762
56.0000 37.3027 -0.2688
56.0200 37.3161 -0.2830
56.0400 37.3294 -0.2813
56.0600 37.3427 -0.2741
56.0800 37.3561 -0.2821
56.1000 37.3694 -0.2797
56.1200 37.3827 -0.2736
56.1400 37.3960 -0.2907
56.1600 37.4094 -0.2773
56.1800 37.4227 -0.2756
56.2000 37.4360 -0.2869
56.2200 37.4493 -0.2769
56.2400 37.4626 -0.2829
56.2600 37.4760 -0.2907
56.2800 37.4894 -0.2774
56.3000 37.5027 -0.2882
56.3200 37.5160 -0.2957
56.3400 37.5293 -0.2790
56.3600 37.5427 -0.2981
56.3800 37.5561 -0.2859
56.4000 37.5694 -0.2106
56.4200 37.5827 -0.1838
56.4400 37.5961 -0.1620
56.4600 37.6094 -0.1485
56.4800 37.6227 -0.1730
56.5000 37.6360 -0.1505
56.5200 37.6494 -0.1536
56.5400 37.6627 -0.1688
56.5600 37.6760 -0.1509
56.5800 37.6893 -0.1477
56.6000 37.7026 -0.1736
56.6200 37.7160 -0.1438
56.6400 37.7293 -0.1565
56.6600 37.7427 -0.1725
56.6800 37.7560 -0.1400
56.7000 37.7694 -0.1522
56.7200 37.7828 -0.1684
56.7400 37.7961 -0.1444
56.7600 37.8094 -0.1551
56.7800 37.8227 -0.1641
56.8000 37.8361 -0.1446
56.8200 37.8494 -0.1580
56.8400 37.8627 -0.1647
56.8600 37.8760 -0.1445
56.8800 37.8893 -0.1593
56.9000 37.9027 -0.1634
56.9200 37.9160 -0.1454
56.9400 37.9293 -0.1644
56.9600 37.9426 -0.1626
56.9800 37.9560 -0.1512
57.0000 37.9693 -0.1614
57.0200 37.9827 -0.1629
57.0400 37.9960 -0.1513
57.0600 38.0094 -0.1678
57.0800 38.0228 -0.1617
57.1000 38.0361 -0.1560
57.1200 38.0494 -0.1635
57.1400 38.0627 -0.1582
57.1600 38.0761 -0.1568
57.1800 38.0894 -0.1664
57.2000 38.1027 -0.1583
57.2200 38.1160 -0.1624
57.2400 38.1293 -0.1599
57.2600 38.1427 -0.1603
57.2800 38.1560 -0.1625
57.3000 38.1693 -0.1614
57.3200 38.1827 -0.1594
57.3400 38.1960 -0.1591
57.3600 38.2093 -0.1602
57.3800 38.2227 -0.1613
57.4000 38.2360 -0.1572
57.4200 38.2493 -0.1580
57.4400 38.2627 -0.1664
57.4600 38.2761 -0.1546
57.4800 38.2894 -0.1629
57.5000 38.3027 -0.1670
57.5200 38.3161 -0.1546
57.5400 38.3294 -0.1587
57.5600 38.3427 -0.1681
57.5800 38.3560 -0.1534
57.6000 38.3694 -0.1636
57.6200 38.3827 -0.1661
57.6400 38.3960 -0.1582
57.6600 38.4093 -0.1627
57.6800 38.4226 -0.1706
57.7000 38.4359 -0.1548
57.7200 38.4493 -0.1705
57.7400 38.4626 -0.1702
57.7600 38.4760 -0.1598
57.7800 38.4893 -0.1701
57.8000 38.5027 -0.1698
57.8200 38.5161 -0.1649
57.8400 38.5294 -0.1735
57.8600 38.5428 -0.1670
57.8800 38.5561 -0.1663
57.9000 38.5694 -0.1775
57.9200 38.5827 -0.1716
57.9400 38.5960 -0.1707
57.9600 38.6093 -0.1744
57.9800 38.6227 -0.1714
58.0000 38.6360 -0.1762
58.0200 38.6493 -0.1760
58.0400 38.6626 -0.1705
58.0600 38.6760 -0.1789
58.0800 38.6894 -0.1752
58.1000 38.7027 -0.1750
58.1200 38.7160 -0.1818
58.1400 38.7294 -0.1768
58.1600 38.7428 -0.1791
58.1800 38.7561 -0.1824
58.2000 38.7694 -0.1732
58.2200 38.7827 -0.1846
58.2400 38.7960 -0.1809
58.2600 38.8094 -0.1739
58.2800 38.8227 -0.1860
58.3000 38.8360 -0.1833
58.3200 38.8493 -0.1703
58.3400 38.8627 -0.1926
58.3600 38.8760 -0.1853
58.3800 38.8893 -0.1746
58.4000 38.9026 -0.1892
58.4200 38.9160 -0.1817
58.4400 38.9294 -0.1829
58.4600 38.9427 -0.1882
58.4800 38.9560 -0.1784
58.5000 38.9694 -0.1806
58.5200 38.9828 -0.1876
58.5400 38.9961 -0.1825
58.5600 39.0094 -0.1853
58.5800 39.0227 -0.1864
58.6000 39.0361 -0.1876
58.6200 39.0494 -0.1830
58.6400 39.0627 -0.1883
58.6600 39.0760 -0.1839
58.6800 39.0893 -0.1903
58.7000 39.1027 -0.1852
58.7200 39.1160 -0.1845
58.7400 39.1293 -0.1919
58.7600 39.1426 -0.1860
58.7800 39.1560 -0.1862
58.8000 39.1693 -0.1939
58.8200 39.1827 -0.1838
58.8400 39.1960 -0.1886
58.8600 39.2093 -0.1950
58.8800 39.2227 -0.1828
58.9000 39.2361 -0.1915
58.9200 39.2494 -0.1950
58.9400 39.2627 -0.1822
58.9600 39.2761 -0.1950
58.9800 39.2894 -0.1985
59.0000 39.3027 -0.1844
59.0200 39.3160 -0.1987
59.0400 39.3293 -0.1952
59.0600 39.3427 -0.1854
59.0800 39.3560 -0.2030
59.1000 39.3693 -0.1999
59.1200 39.3826 -0.1842
59.1400 39.3960 -0.2073
59.1600 39.4093 -0.1954
59.1800 39.4227 -0.1939
59.2000 39.4360 -0.2078
59.2200 39.4493 -0.1946
59.2400 39.4627 -0.1948
59.2600 39.4761 -0.2139
59.2800 39.4894 -0.1966
59.3000 39.5027 -0.1962
59.3200 39.5161 -0.2111
59.3400 39.5294 -0.1996
59.3600 39.5428 -0.1981
59.3800 39.5560 -0.2064
59.4000 39.5693 -0.1971
59.4200 39.5827 -0.1965
59.4400 39.5960 -0.2097
59.4600 39.6093 -0.1979
59.4800 39.6226 -0.1923
59.5000 39.6360 -0.2065
59.5200 39.6493 -0.1957
59.5400 39.6627 -0.1915
59.5600 39.6760 -0.2079
59.5800 39.6893 -0.1974
59.6000 39.7027 -0.1920
59.6200 39.7161 -0.2012
59.6400 39.7294 -0.2057
59.6600 39.7427 -0.1882
59.6800 39.7561 -0.2040
59.7000 39.7694 -0.2036
59.7200 39.7828 -0.1911
59.7400 39.7961 -0.2081
59.7600 39.8093 -0.2010
59.7800 39.8227 -0.1892
59.8000 39.8360 -0.2138
59.8200 39.8494 -0.2045
59.8400 39.8627 -0.1919
59.8600 39.8760 -0.2157
59.8800 39.8893 -0.2074
59.9000 39.9027 -0.1972
59.9200 39.9160 -0.2207
59.9400 39.9293 -0.2054
59.9600 39.9427 -0.2000
59.9800 39.9561 -0.2233
60.0000 39.9694 -0.2062
60.0200 39.9827 -0.2067
60.0400 39.9960 -0.2295
60.0470 40.0006 -0.2417
