Raw Data
Time Displacement Force
(s) (mm) (N)
0.0000 0.0000 0.3453
0.0200 0.0000 0.3612
0.0400 0.0010 0.3898
0.0600 0.0046 0.3852
0.0800 0.0103 0.3470
0.1000 0.0161 0.3449
0.1200 0.0221 0.3771
0.1400 0.0289 0.3598
0.1600 0.0362 0.3526
0.1800 0.0436 0.3634
0.2000 0.0508 0.3461
0.2200 0.0576 0.3488
0.2400 0.0643 0.3675
0.2600 0.0708 0.3535
0.2800 0.0775 0.3629
0.3000 0.0843 0.3623
0.3200 0.0910 0.3494
0.3400 0.0977 0.3637
0.3600 0.1044 0.3640
0.3800 0.1111 0.3504
0.4000 0.1178 0.3731
0.4200 0.1244 0.3576
0.4400 0.1310 0.3582
0.4600 0.1377 0.3753
0.4800 0.1444 0.3566
0.5000 0.1511 0.3581
0.5200 0.1578 0.3738
0.5400 0.1644 0.3547
0.5600 0.1711 0.3584
0.5800 0.1778 0.3703
0.6000 0.1844 0.3534
0.6200 0.1910 0.3634
0.6400 0.1976 0.3720
0.6600 0.2044 0.3518
0.6800 0.2111 0.3666
0.7000 0.2178 0.3705
0.7200 0.2244 0.3475
0.7400 0.2311 0.3716
0.7600 0.2377 0.3728
0.7800 0.2443 0.3525
0.8000 0.2510 0.3653
0.8200 0.2576 0.3747
0.8400 0.2643 0.3519
0.8600 0.2710 0.3653
0.8800 0.2777 0.3721
0.9000 0.2844 0.3527
0.9200 0.2911 0.3669
0.9400 0.2977 0.3621
0.9600 0.3044 0.3489
0.9800 0.3110 0.3689
1.0000 0.3176 0.3659
1.0200 0.3243 0.3491
1.0400 0.3310 0.3658
1.0600 0.3377 0.3686
1.0800 0.3444 0.3498
1.1000 0.3511 0.3604
1.1200 0.3578 0.3623
1.1400 0.3644 0.3464
1.1600 0.3710 0.3656
1.1800 0.3776 0.3581
1.2000 0.3843 0.3483
1.2200 0.3911 0.3595
1.2400 0.3978 0.3617
1.2600 0.4045 0.3490
1.2800 0.4111 0.3587
1.3000 0.4178 0.3549
1.3200 0.4244 0.3470
1.3400 0.4310 0.3532
1.3600 0.4377 0.3594
1.3800 0.4444 0.3507
1.4000 0.4511 0.3516
1.4200 0.4578 0.3540
1.4400 0.4644 0.3469
1.4600 0.4711 0.3508
1.4800 0.4778 0.3552
1.5000 0.4844 0.3411
1.5200 0.4910 0.3505
1.5400 0.4976 0.3521
1.5600 0.5043 0.3432
1.5800 0.5110 0.3488
1.6000 0.5177 0.3515
1.6200 0.5244 0.3404
1.6400 0.5311 0.3475
1.6600 0.5377 0.3510
1.6800 0.5443 0.3344
1.7000 0.5509 0.3497
1.7200 0.5576 0.3520
1.7400 0.5643 0.3354
1.7600 0.5710 0.3494
1.7800 0.5777 0.3515
1.8000 0.5844 0.3324
1.8200 0.5910 0.3462
1.8400 0.5977 0.3484
1.8600 0.6044 0.3364
1.8800 0.6110 0.3472
1.9000 0.6176 0.3504
1.9200 0.6243 0.3318
1.9400 0.6310 0.3463
1.9600 0.6377 0.3396
1.9800 0.6444 0.3377
2.0000 0.6511 0.3464
2.0200 0.6578 0.3417
2.0400 0.6644 0.3317
2.0600 0.6710 0.3410
2.0800 0.6777 0.3412
2.1000 0.6843 0.3419
2.1200 0.6910 0.3370
2.1400 0.6977 0.3357
2.1600 0.7044 0.3413
2.1800 0.7111 0.3378
2.2000 0.7178 0.3337
2.2200 0.7244 0.3381
2.2400 0.7310 0.3392
2.2600 0.7376 0.3310
2.2800 0.7443 0.3395
2.3000 0.7510 0.3324
2.3200 0.7577 0.3375
2.3400 0.7644 0.3413
2.3600 0.7711 0.3276
2.3800 0.7778 0.3359
2.4000 0.7844 0.3380
2.4200 0.7910 0.3269
2.4400 0.7976 0.3344
2.4600 0.8043 0.3294
2.4800 0.8110 0.3274
2.5000 0.8177 0.3323
2.5200 0.8244 0.3330
2.5400 0.8310 0.3226
2.5600 0.8377 0.3358
2.5800 0.8444 0.3243
2.6000 0.8510 0.3275
2.6200 0.8577 0.3347
2.6400 0.8643 0.3240
2.6600 0.8710 0.3314
2.6800 0.8777 0.3266
2.7000 0.8844 0.3244
2.7200 0.8911 0.3284
2.7400 0.8978 0.3262
2.7600 0.9044 0.3244
2.7800 0.9110 0.3274
2.8000 0.9176 0.3266
2.8200 0.9243 0.3243
2.8400 0.9311 0.3268
2.8600 0.9378 0.3228
2.8800 0.9445 0.3228
2.9000 0.9511 0.3299
2.9200 0.9578 0.3163
2.9400 0.9644 0.3264
2.9600 0.9710 0.3262
2.9800 0.9776 0.3211
3.0000 0.9843 0.3251
3.0200 0.9910 0.3273
3.0400 0.9977 0.3160
3.0600 1.0044 0.3233
3.0800 1.0111 0.3246
3.1000 1.0177 0.3161
3.1200 1.0244 0.3229
3.1400 1.0310 0.3267
3.1600 1.0376 0.3115
3.1800 1.0443 0.3273
3.2000 1.0510 0.3199
3.2200 1.0577 0.3115
3.2400 1.0644 0.3275
3.2600 1.0711 0.3207
3.2800 1.0777 0.3133
3.3000 1.0844 0.3193
3.3200 1.0910 0.3221
3.3400 1.0976 0.3141
3.3600 1.1043 0.3177
3.3800 1.1111 0.3167
3.4000 1.1178 0.3172
3.4200 1.1245 0.3176
3.4400 1.1311 0.3139
3.4600 1.1378 0.3129
3.4800 1.1444 0.3232
3.5000 1.1510 0.3092
3.5200 1.1577 0.3130
3.5400 1.1643 0.3208
3.5600 1.1710 0.3126
3.5800 1.1777 0.3085
3.6000 1.1844 0.3227
3.6200 1.1911 0.3072
3.6400 1.1978 0.3026
3.6600 1.2044 0.3207
3.6800 1.2110 0.3114
3.7000 1.2176 0.2973
3.7200 1.2243 0.3260
3.7400 1.2310 0.3108
3.7600 1.2377 0.2935
3.7800 1.2444 0.3166
3.8000 1.2511 0.3110
3.8200 1.2578 0.2861
3.8400 1.2644 0.3212
3.8600 1.2710 0.3141
3.8800 1.2776 0.2838
3.9000 1.2843 0.3220
3.9200 1.2910 0.3090
3.9400 1.2977 0.2883
3.9600 1.3044 0.3208
3.9800 1.3110 0.3069
4.0000 1.3177 0.2862
4.0200 1.3244 0.3127
4.0400 1.3310 0.3074
4.0600 1.3377 0.2911
4.0800 1.3443 0.3116
4.1000 1.3510 0.3001
4.1200 1.3577 0.2909
4.1400 1.3644 0.3154
4.1600 1.3711 0.2986
4.1800 1.3778 0.2966
4.2000 1.3845 0.3122
4.2200 1.3911 0.2989
4.2400 1.3977 0.2935
4.2600 1.4043 0.3130
4.2800 1.4110 0.3033
4.3000 1.4178 0.2952
4.3200 1.4244 0.3067
4.3400 1.4311 0.2996
4.3600 1.4378 0.2964
4.3800 1.4444 0.3083
4.4000 1.4510 0.3003
4.4200 1.4576 0.2962
4.4400 1.4643 0.3065
4.4600 1.4710 0.2993
4.4800 1.4777 0.2939
4.5000 1.4844 0.3041
4.5200 1.4910 0.3012
4.5400 1.4977 0.2925
4.5600 1.5044 0.3034
4.5800 1.5110 0.2946
4.6000 1.5176 0.2950
4.6200 1.5243 0.3025
4.6400 1.5310 0.3003
4.6600 1.5377 0.2916
4.6800 1.5444 0.3017
4.7000 1.5511 0.3010
4.7200 1.5578 0.2906
4.7400 1.5645 0.2966
4.7600 1.5711 0.3003
4.7800 1.5777 0.2854
4.8000 1.5843 0.2992
4.8200 1.5910 0.2973
4.8400 1.5977 0.2848
4.8600 1.6044 0.2954
4.8800 1.6111 0.2974
4.9000 1.6178 0.2817
4.9200 1.6244 0.2960
4.9400 1.6310 0.2982
4.9600 1.6376 0.2788
4.9800 1.6443 0.2960
5.0000 1.6510 0.2952
5.0200 1.6577 0.2790
5.0400 1.6644 0.2972
5.0600 1.6711 0.2976
5.0800 1.6778 0.2713
5.1000 1.6845 0.2939
5.1200 1.6911 0.2962
5.1400 1.6977 0.2767
5.1600 1.7043 0.2949
5.1800 1.7110 0.2917
5.2000 1.7177 0.2736
5.2200 1.7244 0.2992
5.2400 1.7311 0.2867
5.2600 1.7378 0.2738
5.2800 1.7444 0.2940
5.3000 1.7510 0.2869
5.3200 1.7576 0.2763
5.3400 1.7643 0.3006
5.3600 1.7710 0.2844
5.3800 1.7777 0.2722
5.4000 1.7844 0.2935
5.4200 1.7911 0.2809
5.4400 1.7977 0.2749
5.4600 1.8044 0.2950
5.4800 1.8110 0.2830
5.5000 1.8177 0.2770
5.5200 1.8243 0.2883
5.5400 1.8310 0.2796
5.5600 1.8377 0.2763
5.5800 1.8444 0.2876
5.6000 1.8511 0.2831
5.6200 1.8578 0.2744
5.6400 1.8644 0.2870
5.6600 1.8711 0.2813
5.6800 1.8777 0.2767
5.7000 1.8843 0.2861
5.7200 1.8910 0.2861
5.7400 1.8977 0.2731
5.7600 1.9044 0.2816
5.7800 1.9111 0.2799
5.8000 1.9178 0.2773
5.8200 1.9245 0.2750
5.8400 1.9311 0.2783
5.8600 1.9376 0.2799
5.8800 1.9443 0.2806
5.9000 1.9510 0.2787
5.9200 1.9577 0.2750
5.9400 1.9644 0.2775
5.9600 1.9711 0.2784
5.9800 1.9778 0.2761
6.0000 1.9844 0.2751
6.0200 1.9910 0.2768
6.0400 1.9976 0.2758
6.0600 2.0043 0.2757
6.0800 2.0110 0.2751
6.1000 2.0177 0.2715
6.1200 2.0244 0.2722
6.1400 2.0310 0.2761
6.1600 2.0377 0.2678
6.1800 2.0444 0.2689
6.2000 2.0511 0.2747
6.2200 2.0577 0.2681
6.2400 2.0643 0.2702
6.2600 2.0710 0.2767
6.2800 2.0777 0.2664
6.3000 2.0844 0.2688
6.3200 2.0911 0.2733
6.3400 2.0978 0.2707
6.3600 2.1045 0.2643
6.3800 2.1111 0.2708
6.4000 2.1177 0.2686
6.4200 2.1243 0.2671
6.4400 2.1310 0.2705
6.4600 2.1378 0.2681
6.4800 2.1445 0.2624
6.5000 2.1511 0.2703
6.5200 2.1578 0.2648
6.5400 2.1644 0.2636
6.5600 2.1710 0.2707
6.5800 2.1777 0.2655
6.6000 2.1843 0.2595
6.6200 2.1910 0.2710
6.6400 2.1977 0.2628
6.6600 2.2044 0.2634
6.6800 2.2111 0.2740
6.7000 2.2178 0.2606
6.7200 2.2245 0.2579
6.7400 2.2311 0.2701
6.7600 2.2376 0.2637
6.7800 2.2443 0.2610
6.8000 2.2509 0.2687
6.8200 2.2577 0.2585
6.8400 2.2644 0.2634
6.8600 2.2711 0.2662
6.8800 2.2778 0.2616
6.9000 2.2844 0.2568
6.9200 2.2911 0.2627
6.9400 2.2977 0.2592
6.9600 2.3043 0.2586
6.9800 2.3110 0.2591
7.0000 2.3177 0.2626
7.0200 2.3244 0.2549
7.0400 2.3311 0.2566
7.0600 2.3378 0.2627
7.0800 2.3445 0.2586
7.1000 2.3511 0.2546
7.1200 2.3577 0.2605
7.1400 2.3643 0.2591
7.1600 2.3710 0.2583
7.1800 2.3777 0.2595
7.2000 2.3844 0.2536
7.2200 2.3911 0.2594
7.2400 2.3978 0.2596
7.2600 2.4045 0.2475
7.2800 2.4111 0.2558
7.3000 2.4177 0.2633
7.3200 2.4243 0.2503
7.3400 2.4310 0.2585
7.3600 2.4377 0.2601
7.3800 2.4444 0.2517
7.4000 2.4511 0.2531
7.4200 2.4578 0.2586
7.4400 2.4644 0.2498
7.4600 2.4710 0.2577
7.4800 2.4776 0.2567
7.5000 2.4843 0.2464
7.5200 2.4909 0.2555
7.5400 2.4977 0.2609
7.5600 2.5044 0.2444
7.5800 2.5110 0.2537
7.6000 2.5177 0.2600
7.6200 2.5244 0.2460
7.6400 2.5310 0.2492
7.6600 2.5377 0.2629
7.6800 2.5443 0.2478
7.7000 2.5510 0.2502
7.7200 2.5577 0.2613
7.7400 2.5644 0.2436
7.7600 2.5711 0.2546
7.7800 2.5778 0.2599
7.8000 2.5845 0.2378
7.8200 2.5911 0.2530
7.8400 2.5977 0.2617
7.8600 2.6043 0.2440
7.8800 2.6110 0.2563
7.9000 2.6177 0.2567
7.9200 2.6244 0.2418
7.9400 2.6311 0.2564
7.9600 2.6378 0.2588
7.9800 2.6445 0.2412
8.0000 2.6511 0.2557
8.0200 2.6577 0.2555
8.0400 2.6643 0.2492
8.0600 2.6710 0.2511
8.0800 2.6777 0.2520
8.1000 2.6844 0.2461
8.1200 2.6911 0.2528
8.1400 2.6977 0.2510
8.1600 2.7044 0.2509
8.1800 2.7111 0.2518
8.2000 2.7177 0.2526
8.2200 2.7243 0.2507
8.2400 2.7310 0.2506
8.2600 2.7377 0.2517
8.2800 2.7444 0.2499
8.3000 2.7510 0.2490
8.3200 2.7577 0.2603
8.3400 2.7644 0.2474
8.3600 2.7710 0.2411
8.3800 2.7777 0.2565
8.4000 2.7843 0.2511
8.4200 2.7910 0.2425
8.4400 2.7977 0.2523
8.4600 2.8044 0.2471
8.4800 2.8111 0.2397
8.5000 2.8178 0.2582
8.5200 2.8245 0.2447
8.5400 2.8311 0.2373
8.5600 2.8377 0.2584
8.5800 2.8443 0.2421
8.6000 2.8510 0.2351
8.6200 2.8577 0.2579
8.6400 2.8645 0.2367
8.6600 2.8711 0.2394
8.6800 2.8778 0.2547
8.7000 2.8844 0.2367
8.7200 2.8911 0.2372
8.7400 2.8977 0.2527
8.7600 2.9043 0.2319
8.7800 2.9110 0.2381
8.8000 2.9177 0.2537
8.8200 2.9244 0.2300
8.8400 2.9311 0.2395
8.8600 2.9377 0.2512
8.8800 2.9444 0.2293
8.9000 2.9511 0.2418
8.9200 2.9577 0.2464
8.9400 2.9643 0.2297
8.9600 2.9709 0.2427
8.9800 2.9777 0.2426
9.0000 2.9844 0.2295
9.0200 2.9911 0.2422
9.0400 2.9977 0.2445
9.0600 3.0044 0.2241
9.0800 3.0111 0.2377
9.1000 3.0177 0.2403
9.1200 3.0243 0.2288
9.1400 3.0310 0.2397
9.1600 3.0377 0.2400
9.1800 3.0444 0.2307
9.2000 3.0511 0.2406
9.2200 3.0577 0.2342
9.2400 3.0644 0.2299
9.2600 3.0711 0.2367
9.2800 3.0777 0.2316
9.3000 3.0843 0.2292
9.3200 3.0910 0.2390
9.3400 3.0977 0.2325
9.3600 3.1044 0.2322
9.3800 3.1111 0.2384
9.4000 3.1178 0.2290
9.4200 3.1245 0.2306
9.4400 3.1311 0.2340
9.4600 3.1377 0.2291
9.4800 3.1443 0.2358
9.5000 3.1510 0.2313
9.5200 3.1577 0.2253
9.5400 3.1644 0.2313
9.5600 3.1711 0.2308
9.5800 3.1778 0.2296
9.6000 3.1844 0.2290
9.6200 3.1911 0.2304
9.6400 3.1977 0.2219
9.6600 3.2043 0.2338
9.6800 3.2109 0.2261
9.7000 3.2176 0.2276
9.7200 3.2243 0.2295
9.7400 3.2310 0.2257
9.7600 3.2377 0.2247
9.7800 3.2444 0.2295
9.8000 3.2511 0.2234
9.8200 3.2577 0.2225
9.8400 3.2643 0.2287
9.8600 3.2710 0.2233
9.8800 3.2777 0.2167
9.9000 3.2844 0.2316
9.9200 3.2911 0.2171
9.9400 3.2978 0.2170
9.9600 3.3045 0.2306
9.9800 3.3112 0.2153
10.0000 3.3177 0.2154
10.0200 3.3243 0.2298
10.0400 3.3310 0.2137
10.0600 3.3377 0.2171
10.0800 3.3444 0.2303
10.1000 3.3511 0.2087
10.1200 3.3578 0.2149
10.1400 3.3644 0.2283
10.1600 3.3711 0.2092
10.1800 3.3777 0.2175
10.2000 3.3843 0.2276
10.2200 3.3910 0.2064
10.2400 3.3977 0.2191
10.2600 3.4044 0.2224
10.2800 3.4110 0.2104
10.3000 3.4177 0.2166
10.3200 3.4244 0.2152
10.3400 3.4311 0.2059
10.3600 3.4377 0.2174
10.3800 3.4443 0.2161
10.4000 3.4509 0.2095
10.4200 3.4576 0.2211
10.4400 3.4643 0.2128
10.4600 3.4710 0.2054
10.4800 3.4777 0.2228
10.5000 3.4844 0.2103
10.5200 3.4911 0.2054
10.5400 3.4977 0.2203
10.5600 3.5043 0.2126
10.5800 3.5110 0.2085
10.6000 3.5177 0.2188
10.6200 3.5244 0.2087
10.6400 3.5311 0.2064
10.6600 3.5378 0.2180
10.6800 3.5444 0.2073
10.7000 3.5511 0.2100
10.7200 3.5578 0.2153
10.7400 3.5644 0.2030
10.7600 3.5710 0.2114
10.7800 3.5777 0.2180
10.8000 3.5844 0.2017
10.8200 3.5911 0.2141
10.8400 3.5978 0.2112
10.8600 3.6045 0.2071
10.8800 3.6111 0.2109
10.9000 3.6177 0.2099
10.9200 3.6243 0.2069
10.9400 3.6309 0.2161
10.9600 3.6376 0.2123
10.9800 3.6444 0.2039
11.0000 3.6511 0.2118
11.0200 3.6578 0.2103
11.0400 3.6644 0.2065
11.0600 3.6711 0.2123
11.0800 3.6777 0.2060
11.1000 3.6843 0.2086
11.1200 3.6909 0.2128
11.1400 3.6976 0.2050
11.1600 3.7044 0.2114
11.1800 3.7110 0.2125
11.2000 3.7177 0.2050
11.2200 3.7244 0.2062
11.2400 3.7311 0.2116
11.2600 3.7377 0.2033
11.2800 3.7444 0.2092
11.3000 3.7510 0.2092
11.3200 3.7577 0.2025
11.3400 3.7644 0.2066
11.3600 3.7711 0.2107
11.3800 3.7777 0.1994
11.4000 3.7845 0.2060
11.4200 3.7911 0.2101
11.4400 3.7978 0.2001
11.4600 3.8044 0.1976
11.4800 3.8110 0.2131
11.5000 3.8177 0.1948
11.5200 3.8244 0.2002
11.5400 3.8311 0.2106
11.5600 3.8378 0.1942
11.5800 3.8445 0.2016
11.6000 3.8511 0.2090
11.6200 3.8577 0.1865
11.6400 3.8644 0.2048
11.6600 3.8710 0.2122
11.6800 3.8777 0.1867
11.7000 3.8844 0.2032
11.7200 3.8911 0.2088
11.7400 3.8977 0.1849
11.7600 3.9044 0.2063
11.7800 3.9111 0.2059
11.8000 3.9177 0.1838
11.8200 3.9243 0.2102
11.8400 3.9309 0.2017
11.8600 3.9376 0.1830
11.8800 3.9443 0.2144
11.9000 3.9510 0.2030
11.9200 3.9577 0.1807
11.9400 3.9644 0.2123
11.9600 3.9711 0.1907
11.9800 3.9777 0.1815
12.0000 3.9843 0.2117
12.0200 3.9910 0.1934
12.0400 3.9977 0.1816
12.0600 4.0044 0.2131
12.0800 4.0111 0.1879
12.1000 4.0178 0.1867
12.1200 4.0245 0.2088
12.1400 4.0311 0.1865
12.1600 4.0378 0.1857
12.1800 4.0444 0.2101
12.2000 4.0510 0.1893
12.2200 4.0577 0.1870
12.2400 4.0644 0.2027
12.2600 4.0711 0.1847
12.2800 4.0778 0.1894
12.3000 4.0844 0.2031
12.3200 4.0911 0.1838
12.3400 4.0978 0.1912
12.3600 4.1044 0.1951
12.3800 4.1110 0.1861
12.4000 4.1176 0.1971
12.4200 4.1243 0.1917
12.4400 4.1310 0.1884
12.4600 4.1377 0.1938
12.4800 4.1444 0.1869
12.5000 4.1511 0.1912
12.5200 4.1577 0.1974
12.5400 4.1643 0.1858
12.5600 4.1709 0.1906
12.5800 4.1776 0.1904
12.6000 4.1843 0.1890
12.6200 4.1910 0.1942
12.6400 4.1977 0.1885
12.6600 4.2044 0.1818
12.6800 4.2111 0.1963
12.7000 4.2177 0.1857
12.7200 4.2243 0.1854
12.7400 4.2310 0.1965
12.7600 4.2377 0.1835
12.7800 4.2444 0.1860
12.8000 4.2511 0.1924
12.8200 4.2578 0.1846
12.8400 4.2644 0.1876
12.8600 4.2711 0.1901
12.8800 4.2778 0.1845
12.9000 4.2844 0.1834
12.9200 4.2910 0.1915
12.9400 4.2977 0.1853
12.9600 4.3044 0.1809
12.9800 4.3111 0.1865
13.0000 4.3178 0.1826
13.0200 4.3245 0.1842
13.0400 4.3312 0.1796
13.0600 4.3378 0.1841
13.0800 4.3444 0.1841
13.1000 4.3510 0.1849
13.1200 4.3576 0.1799
13.1400 4.3643 0.1829
13.1600 4.3710 0.1837
13.1800 4.3777 0.1824
13.2000 4.3844 0.1834
13.2200 4.3911 0.1813
13.2400 4.3977 0.1782
13.2600 4.4044 0.1852
13.2800 4.4110 0.1793
13.3000 4.4176 0.1823
13.3200 4.4243 0.1831
13.3400 4.4310 0.1801
13.3600 4.4377 0.1815
13.3800 4.4443 0.1807
13.4000 4.4510 0.1846
13.4200 4.4577 0.1806
13.4400 4.4644 0.1781
13.4600 4.4710 0.1824
13.4800 4.4777 0.1785
13.5000 4.4844 0.1772
13.5200 4.4911 0.1813
13.5400 4.4977 0.1802
13.5600 4.5044 0.1806
13.5800 4.5111 0.1773
13.6000 4.5178 0.1823
13.6200 4.5244 0.1769
13.6400 4.5310 0.1813
13.6600 4.5376 0.1801
13.6800 4.5444 0.1802
13.7000 4.5511 0.1755
13.7200 4.5578 0.1869
13.7400 4.5644 0.1807
13.7600 4.5711 0.1763
13.7800 4.5778 0.1826
13.8000 4.5844 0.1803
13.8200 4.5910 0.1781
13.8400 4.5977 0.1869
13.8600 4.6044 0.1740
13.8800 4.6110 0.1769
13.9000 4.6177 0.1860
13.9200 4.6244 0.1783
13.9400 4.6311 0.1792
13.9600 4.6377 0.1896
13.9800 4.6444 0.1736
14.0000 4.6509 0.1767
14.0200 4.6576 0.1895
14.0400 4.6643 0.1776
14.0600 4.6710 0.1844
14.0800 4.6777 0.1809
14.1000 4.6844 0.1765
14.1200 4.6911 0.1767
14.1400 4.6977 0.1814
14.1600 4.7043 0.1783
14.1800 4.7110 0.1806
14.2000 4.7176 0.1813
14.2200 4.7244 0.1762
14.2400 4.7311 0.1781
14.2600 4.7378 0.1817
14.2800 4.7445 0.1744
14.3000 4.7511 0.1780
14.3200 4.7578 0.1773
14.3400 4.7644 0.1762
14.3600 4.7710 0.1756
14.3800 4.7777 0.1797
14.4000 4.7844 0.1691
14.4200 4.7911 0.1755
14.4400 4.7978 0.1783
14.4600 4.8044 0.1676
14.4800 4.8111 0.1774
14.5000 4.8178 0.1769
14.5200 4.8244 0.1658
14.5400 4.8310 0.1804
14.5600 4.8376 0.1755
14.5800 4.8443 0.1649
14.6000 4.8510 0.1772
14.6200 4.8577 0.1718
14.6400 4.8644 0.1658
14.6600 4.8711 0.1786
14.6800 4.8777 0.1704
14.7000 4.8843 0.1612
14.7200 4.8910 0.1802
14.7400 4.8976 0.1675
14.7600 4.9043 0.1680
14.7800 4.9111 0.1714
14.8000 4.9178 0.1666
14.8200 4.9244 0.1681
14.8400 4.9311 0.1753
14.8600 4.9377 0.1670
14.8800 4.9444 0.1673
14.9000 4.9510 0.1705
14.9200 4.9577 0.1724
14.9400 4.9644 0.1687
14.9600 4.9711 0.1656
14.9800 4.9778 0.1738
15.0000 4.9844 0.1716
15.0200 4.9911 0.1622
15.0400 4.9978 0.1729
15.0600 5.0044 0.1715
15.0800 5.0110 0.1633
15.1000 5.0176 0.1719
15.1200 5.0243 0.1723
15.1400 5.0311 0.1645
15.1600 5.0378 0.1730
15.1800 5.0444 0.1665
15.2000 5.0511 0.1654
15.2200 5.0578 0.1760
15.2400 5.0644 0.1641
15.2600 5.0710 0.1683
15.2800 5.0776 0.1763
15.3000 5.0843 0.1667
15.3200 5.0910 0.1633
15.3400 5.0977 0.1753
15.3600 5.1044 0.1651
15.3800 5.1111 0.1679
15.4000 5.1177 0.1739
15.4200 5.1244 0.1599
15.4400 5.1310 0.1676
15.4600 5.1376 0.1747
15.4800 5.1443 0.1568
15.5000 5.1510 0.1694
15.5200 5.1577 0.1695
15.5400 5.1644 0.1600
15.5600 5.1711 0.1661
15.5800 5.1778 0.1681
15.6000 5.1844 0.1576
15.6200 5.1910 0.1718
15.6400 5.1976 0.1708
15.6600 5.2043 0.1562
15.6800 5.2111 0.1698
15.7000 5.2178 0.1654
15.7200 5.2244 0.1547
15.7400 5.2311 0.1675
15.7600 5.2378 0.1693
15.7800 5.2444 0.1531
15.8000 5.2510 0.1685
15.8200 5.2576 0.1663
15.8400 5.2643 0.1532
15.8600 5.2711 0.1677
15.8800 5.2778 0.1699
15.9000 5.2844 0.1498
15.9200 5.2911 0.1696
15.9400 5.2978 0.1657
15.9600 5.3044 0.1537
15.9800 5.3110 0.1667
16.0000 5.3176 0.1677
16.0200 5.3243 0.1549
16.0400 5.3310 0.1600
16.0600 5.3377 0.1660
16.0800 5.3444 0.1585
16.1000 5.3511 0.1555
16.1200 5.3578 0.1663
16.1400 5.3644 0.1551
16.1600 5.3710 0.1653
16.1800 5.3776 0.1645
16.2000 5.3843 0.1530
16.2200 5.3910 0.1619
16.2400 5.3977 0.1622
16.2600 5.4044 0.1545
16.2800 5.4110 0.1584
16.3000 5.4177 0.1662
16.3200 5.4244 0.1481
16.3400 5.4310 0.1587
16.3600 5.4376 0.1615
16.3800 5.4443 0.1538
16.4000 5.4511 0.1603
16.4200 5.4577 0.1587
16.4400 5.4644 0.1516
16.4600 5.4711 0.1609
16.4800 5.4778 0.1524
16.5000 5.4845 0.1474
16.5200 5.4911 0.1614
16.5400 5.4977 0.1620
16.5600 5.5043 0.1426
16.5800 5.5110 0.1656
16.6000 5.5177 0.1471
16.6200 5.5244 0.1477
16.6400 5.5311 0.1653
16.6600 5.5378 0.1433
16.6800 5.5444 0.1493
16.7000 5.5510 0.1634
16.7200 5.5576 0.1443
16.7400 5.5643 0.1458
16.7600 5.5710 0.1650
16.7800 5.5777 0.1452
16.8000 5.5844 0.1439
16.8200 5.5911 0.1652
16.8400 5.5977 0.1405
16.8600 5.6044 0.1482
16.8800 5.6110 0.1609
16.9000 5.6176 0.1427
16.9200 5.6243 0.1570
16.9400 5.6310 0.1568
16.9600 5.6377 0.1392
16.9800 5.6444 0.1516
17.0000 5.6510 0.1646
17.0200 5.6577 0.1368
17.0400 5.6644 0.1540
17.0600 5.6710 0.1600
17.0800 5.6777 0.1392
17.1000 5.6843 0.1592
17.1200 5.6910 0.1534
17.1400 5.6977 0.1420
17.1600 5.7044 0.1634
17.1800 5.7111 0.1490
17.2000 5.7178 0.1387
17.2200 5.7244 0.1587
17.2400 5.7310 0.1521
17.2600 5.7376 0.1424
17.2800 5.7443 0.1626
17.3000 5.7510 0.1469
17.3200 5.7578 0.1414
17.3400 5.7645 0.1627
17.3600 5.7711 0.1430
17.3800 5.7778 0.1470
17.4000 5.7844 0.1610
17.4200 5.7910 0.1430
17.4400 5.7977 0.1470
17.4600 5.8043 0.1610
17.4800 5.8110 0.1411
17.5000 5.8177 0.1493
17.5200 5.8244 0.1586
17.5400 5.8310 0.1447
17.5600 5.8377 0.1453
17.5800 5.8444 0.1567
17.6000 5.8510 0.1431
17.6200 5.8576 0.1502
17.6400 5.8643 0.1490
17.6600 5.8710 0.1422
17.6800 5.8777 0.1503
17.7000 5.8844 0.1521
17.7200 5.8911 0.1403
17.7400 5.8978 0.1517
17.7600 5.9044 0.1456
17.7800 5.9110 0.1423
17.8000 5.9177 0.1485
17.8200 5.9243 0.1459
17.8400 5.9311 0.1412
17.8600 5.9378 0.1458
17.8800 5.9445 0.1466
17.9000 5.9511 0.1452
17.9200 5.9578 0.1428
17.9400 5.9644 0.1425
17.9600 5.9710 0.1443
17.9800 5.9777 0.1428
18.0000 5.9843 0.1439
18.0200 5.9910 0.1419
18.0400 5.9977 0.1402
18.0600 6.0044 0.1448
18.0800 6.0111 0.1443
18.1000 6.0178 0.1352
18.1200 6.0245 0.1442
18.1400 6.0311 0.1424
18.1600 6.0376 0.1365
18.1800 6.0443 0.1407
18.2000 6.0510 0.1442
18.2200 6.0577 0.1341
18.2400 6.0644 0.1417
18.2600 6.0711 0.1372
18.2800 6.0778 0.1403
18.3000 6.0844 0.1395
18.3200 6.0910 0.1291
18.3400 6.0976 0.1379
18.3600 6.1043 0.1373
18.3800 6.1110 0.1325
18.4000 6.1177 0.1382
18.4200 6.1244 0.1333
18.4400 6.1310 0.1331
18.4600 6.1377 0.1340
18.4800 6.1444 0.1318
18.5000 6.1510 0.1347
18.5200 6.1576 0.1405
18.5400 6.1643 0.1254
18.5600 6.1710 0.1324
18.5800 6.1777 0.1356
18.6000 6.1844 0.1262
18.6200 6.1911 0.1366
18.6400 6.1978 0.1280
18.6600 6.2045 0.1276
18.6800 6.2111 0.1338
18.7000 6.2177 0.1270
18.7200 6.2243 0.1241
18.7400 6.2310 0.1383
18.7600 6.2377 0.1213
18.7800 6.2444 0.1270
18.8000 6.2511 0.1342
18.8200 6.2578 0.1232
18.8400 6.2644 0.1360
18.8600 6.2710 0.1314
18.8800 6.2776 0.1183
18.9000 6.2843 0.1385
18.9200 6.2910 0.1256
18.9400 6.2977 0.1174
18.9600 6.3044 0.1375
18.9800 6.3110 0.1301
19.0000 6.3177 0.1187
19.0200 6.3244 0.1329
19.0400 6.3310 0.1233
19.0600 6.3376 0.1210
19.0800 6.3443 0.1365
19.1000 6.3510 0.1216
19.1200 6.3577 0.1214
19.1400 6.3644 0.1331
19.1600 6.3711 0.1235
19.1800 6.3778 0.1195
19.2000 6.3844 0.1357
19.2200 6.3911 0.1174
19.2400 6.3977 0.1215
19.2600 6.4043 0.1348
19.2800 6.4110 0.1199
19.3000 6.4177 0.1239
19.3200 6.4244 0.1324
19.3400 6.4311 0.1140
19.3600 6.4378 0.1286
19.3800 6.4444 0.1279
19.4000 6.4510 0.1201
19.4200 6.4577 0.1263
19.4400 6.4643 0.1256
19.4600 6.4710 0.1201
19.4800 6.4777 0.1282
19.5000 6.4844 0.1254
19.5200 6.4911 0.1166
19.5400 6.4978 0.1268
19.5600 6.5045 0.1263
19.5800 6.5111 0.1199
19.6000 6.5177 0.1290
19.6200 6.5243 0.1233
19.6400 6.5310 0.1182
19.6600 6.5377 0.1243
19.6800 6.5444 0.1230
19.7000 6.5511 0.1270
19.7200 6.5578 0.1185
19.7400 6.5645 0.1203
19.7600 6.5711 0.1244
19.7800 6.5776 0.1265
19.8000 6.5843 0.1231
19.8200 6.5910 0.1231
19.8400 6.5977 0.1166
19.8600 6.6044 0.1202
19.8800 6.6111 0.1220
19.9000 6.6177 0.1192
19.9200 6.6244 0.1233
19.9400 6.6310 0.1206
19.9600 6.6376 0.1122
19.9800 6.6443 0.1269
20.0000 6.6510 0.1173
20.0200 6.6577 0.1197
20.0400 6.6644 0.1219
20.0600 6.6711 0.1159
20.0800 6.6778 0.1185
20.1000 6.6844 0.1208
20.1200 6.6911 0.1145
20.1400 6.6977 0.1188
20.1600 6.7043 0.1195
20.1800 6.7110 0.1097
20.2000 6.7177 0.1253
20.2200 6.7244 0.1176
20.2400 6.7311 0.1088
20.2600 6.7378 0.1218
20.2800 6.7445 0.1054
20.3000 6.7511 0.1159
20.3200 6.7577 0.1275
20.3400 6.7643 0.1061
20.3600 6.7710 0.1116
20.3800 6.7777 0.1224
20.4000 6.7844 0.1096
20.4200 6.7911 0.1139
20.4400 6.7977 0.1244
20.4600 6.8044 0.1045
20.4800 6.8111 0.1122
20.5000 6.8177 0.1205
20.5200 6.8243 0.1053
20.5400 6.8310 0.1134
20.5600 6.8377 0.1185
20.5800 6.8444 0.1018
20.6000 6.8510 0.1199
20.6200 6.8577 0.1194
20.6400 6.8644 0.0987
20.6600 6.8711 0.1175
20.6800 6.8777 0.1184
20.7000 6.8843 0.1017
20.7200 6.8910 0.1260
20.7400 6.8977 0.1149
20.7600 6.9044 0.1009
20.7800 6.9111 0.1214
20.8000 6.9178 0.1099
20.8200 6.9245 0.1095
20.8400 6.9311 0.1184
20.8600 6.9377 0.1095
20.8800 6.9443 0.1085
20.9000 6.9510 0.1188
20.9200 6.9577 0.1117
20.9400 6.9644 0.1130
20.9600 6.9711 0.1112
20.9800 6.9778 0.1141
21.0000 6.9844 0.1114
21.0200 6.9911 0.1101
21.0400 6.9977 0.1145
21.0600 7.0043 0.1164
21.0800 7.0110 0.1096
21.1000 7.0177 0.1160
21.1200 7.0244 0.1159
21.1400 7.0310 0.1100
21.1600 7.0377 0.1154
21.1800 7.0444 0.1156
21.2000 7.0511 0.1112
21.2200 7.0577 0.1150
21.2400 7.0643 0.1137
21.2600 7.0710 0.1097
21.2800 7.0777 0.1174
21.3000 7.0844 0.1093
21.3200 7.0911 0.1134
21.3400 7.0978 0.1185
21.3600 7.1044 0.1080
21.3800 7.1111 0.1127
21.4000 7.1177 0.1215
21.4200 7.1243 0.1103
21.4400 7.1310 0.1171
21.4600 7.1377 0.1125
21.4800 7.1444 0.1046
21.5000 7.1511 0.1192
21.5200 7.1578 0.1183
21.5400 7.1645 0.1007
21.5600 7.1711 0.1182
21.5800 7.1777 0.1138
21.6000 7.1844 0.1102
21.6200 7.1910 0.1167
21.6400 7.1977 0.1142
21.6600 7.2044 0.1068
21.6800 7.2111 0.1149
21.7000 7.2178 0.1103
21.7200 7.2245 0.1075
21.7400 7.2311 0.1135
21.7600 7.2377 0.1096
21.7800 7.2443 0.1086
21.8000 7.2510 0.1137
21.8200 7.2577 0.1074
21.8400 7.2644 0.1100
21.8600 7.2711 0.1123
21.8800 7.2778 0.1075
21.9000 7.2844 0.1122
21.9200 7.2911 0.1102
21.9400 7.2977 0.1064
21.9600 7.3043 0.1068
21.9800 7.3109 0.1077
22.0000 7.3176 0.1102
22.0200 7.3244 0.1090
22.0400 7.3310 0.1030
22.0600 7.3377 0.1146
22.0800 7.3444 0.1016
22.1000 7.3511 0.1048
22.1200 7.3577 0.1138
22.1400 7.3643 0.1044
22.1600 7.3710 0.1068
22.1800 7.3777 0.1083
22.2000 7.3844 0.0997
22.2200 7.3911 0.1092
22.2400 7.3978 0.1081
22.2600 7.4045 0.0999
22.2800 7.4111 0.1028
22.3000 7.4177 0.1083
22.3200 7.4243 0.0974
22.3400 7.4310 0.1068
22.3600 7.4377 0.1074
22.3800 7.4444 0.0991
22.4000 7.4511 0.1042
22.4200 7.4578 0.1030
22.4400 7.4645 0.1007
22.4600 7.4711 0.1026
22.4800 7.4777 0.1009
22.5000 7.4843 0.0956
22.5200 7.4910 0.1073
22.5400 7.4977 0.1017
22.5600 7.5044 0.0912
22.5800 7.5111 0.1035
22.6000 7.5177 0.1035
22.6200 7.5244 0.0930
22.6400 7.5311 0.1044
22.6600 7.5377 0.0964
22.6800 7.5443 0.0956
22.7000 7.5510 0.1048
22.7200 7.5577 0.0963
22.7400 7.5644 0.0914
22.7600 7.5710 0.1045
22.7800 7.5777 0.0906
22.8000 7.5844 0.0916
22.8200 7.5911 0.1028
22.8400 7.5977 0.0924
22.8600 7.6043 0.0936
22.8800 7.6110 0.0989
22.9000 7.6177 0.0868
22.9200 7.6244 0.1003
22.9400 7.6311 0.1007
22.9600 7.6378 0.0829
22.9800 7.6445 0.0924
23.0000 7.6511 0.0994
23.0200 7.6577 0.0890
23.0400 7.6644 0.0946
23.0600 7.6710 0.0928
23.0800 7.6777 0.0898
23.1000 7.6844 0.0968
23.1200 7.6911 0.0872
23.1400 7.6978 0.0957
23.1600 7.7044 0.0964
23.1800 7.7111 0.0830
23.2000 7.7177 0.0869
23.2200 7.7243 0.0957
23.2400 7.7310 0.0860
23.2600 7.7377 0.0931
23.2800 7.7444 0.0895
23.3000 7.7510 0.0850
23.3200 7.7577 0.0919
23.3400 7.7644 0.0906
23.3600 7.7711 0.0791
23.3800 7.7777 0.0937
23.4000 7.7843 0.0903
23.4200 7.7909 0.0855
23.4400 7.7976 0.0902
23.4600 7.8044 0.0821
23.4800 7.8111 0.0846
23.5000 7.8177 0.0892
23.5200 7.8244 0.0801
23.5400 7.8311 0.0905
23.5600 7.8377 0.0878
23.5800 7.8443 0.0787
23.6000 7.8510 0.0918
23.6200 7.8577 0.0868
23.6400 7.8644 0.0830
23.6600 7.8711 0.0867
23.6800 7.8777 0.0845
23.7000 7.8844 0.0813
23.7200 7.8911 0.0875
23.7400 7.8977 0.0823
23.7600 7.9043 0.0862
23.7800 7.9110 0.0849
23.8000 7.9177 0.0839
23.8200 7.9244 0.0864
23.8400 7.9311 0.0874
23.8600 7.9378 0.0784
23.8800 7.9445 0.0847
23.9000 7.9511 0.0852
23.9200 7.9577 0.0769
23.9400 7.9643 0.0878
23.9600 7.9710 0.0877
23.9800 7.9777 0.0743
24.0000 7.9844 0.0885
24.0200 7.9911 0.0841
24.0400 7.9978 0.0751
24.0600 8.0044 0.0907
24.0800 8.0111 0.0833
24.1000 8.0177 0.0698
24.1200 8.0243 0.0930
24.1400 8.0310 0.0833
24.1600 8.0377 0.0738
24.1800 8.0444 0.0902
24.2000 8.0510 0.0780
24.2200 8.0577 0.0767
24.2400 8.0644 0.0928
24.2600 8.0710 0.0772
24.2800 8.0777 0.0721
24.3000 8.0843 0.0915
24.3200 8.0910 0.0777
24.3400 8.0977 0.0762
24.3600 8.1044 0.0906
24.3800 8.1111 0.0775
24.4000 8.1178 0.0750
24.4200 8.1245 0.0921
24.4400 8.1312 0.0762
24.4600 8.1378 0.0782
24.4800 8.1444 0.0869
24.5000 8.1510 0.0791
24.5200 8.1577 0.0801
24.5400 8.1644 0.0837
24.5600 8.1711 0.0755
24.5800 8.1778 0.0851
24.6000 8.1845 0.0881
24.6200 8.1911 0.0754
24.6400 8.1977 0.0831
24.6600 8.2043 0.0862
24.6800 8.2110 0.0737
24.7000 8.2177 0.0843
24.7200 8.2244 0.0894
24.7400 8.2310 0.0687
24.7600 8.2377 0.0858
24.7800 8.2444 0.0852
24.8000 8.2511 0.0723
24.8200 8.2577 0.0820
24.8400 8.2643 0.0888
24.8600 8.2709 0.0753
24.8800 8.2776 0.0807
24.9000 8.2843 0.0848
24.9200 8.2910 0.0756
24.9400 8.2977 0.0821
24.9600 8.3044 0.0851
24.9800 8.3111 0.0758
25.0000 8.3177 0.0844
25.0200 8.3243 0.0794
25.0400 8.3310 0.0785
25.0600 8.3377 0.0836
25.0800 8.3444 0.0821
25.1000 8.3511 0.0724
25.1200 8.3578 0.0841
25.1400 8.3645 0.0823
25.1600 8.3711 0.0710
25.1800 8.3778 0.0828
25.2000 8.3844 0.0853
25.2200 8.3910 0.0777
25.2400 8.3977 0.0821
25.2600 8.4044 0.0844
25.2800 8.4111 0.0782
25.3000 8.4178 0.0812
25.3200 8.4244 0.0820
25.3400 8.4311 0.0805
25.3600 8.4378 0.0779
25.3800 8.4443 0.0830
25.4000 8.4509 0.0761
25.4200 8.4576 0.0851
25.4400 8.4644 0.0814
25.4600 8.4711 0.0821
25.4800 8.4777 0.0800
25.5000 8.4844 0.0823
25.5200 8.4911 0.0755
25.5400 8.4977 0.0799
25.5600 8.5043 0.0791
25.5800 8.5109 0.0799
25.6000 8.5176 0.0836
25.6200 8.5243 0.0846
25.6400 8.5310 0.0752
25.6600 8.5377 0.0835
25.6800 8.5444 0.0811
25.7000 8.5511 0.0774
25.7200 8.5578 0.0781
25.7400 8.5644 0.0822
25.7600 8.5710 0.0806
25.7800 8.5777 0.0783
25.8000 8.5844 0.0872
25.8200 8.5911 0.0772
25.8400 8.5978 0.0791
25.8600 8.6045 0.0837
25.8800 8.6112 0.0802
25.9000 8.6178 0.0727
25.9200 8.6244 0.0847
25.9400 8.6310 0.0786
25.9600 8.6377 0.0755
25.9800 8.6444 0.0853
26.0000 8.6511 0.0752
26.0200 8.6578 0.0753
26.0400 8.6644 0.0871
26.0600 8.6711 0.0687
26.0800 8.6778 0.0780
26.1000 8.6844 0.0858
26.1200 8.6910 0.0736
26.1400 8.6977 0.0706
26.1600 8.7044 0.0882
26.1800 8.7111 0.0713
26.2000 8.7177 0.0701
26.2200 8.7244 0.0864
26.2400 8.7311 0.0713
26.2600 8.7377 0.0733
26.2800 8.7443 0.0819
26.3000 8.7509 0.0685
26.3200 8.7576 0.0775
26.3400 8.7643 0.0829
26.3600 8.7710 0.0678
26.3800 8.7777 0.0796
26.4000 8.7844 0.0806
26.4200 8.7911 0.0667
26.4400 8.7978 0.0811
26.4600 8.8044 0.0764
26.4800 8.8110 0.0659
26.5000 8.8177 0.0838
26.5200 8.8244 0.0727
26.5400 8.8311 0.0658
26.5600 8.8378 0.0796
26.5800 8.8445 0.0732
26.6000 8.8511 0.0637
26.6200 8.8578 0.0796
26.6400 8.8644 0.0751
26.6600 8.8710 0.0687
26.6800 8.8777 0.0742
26.7000 8.8844 0.0696
26.7200 8.8911 0.0643
26.7400 8.8978 0.0757
26.7600 8.9044 0.0653
26.7800 8.9111 0.0666
26.8000 8.9177 0.0755
26.8200 8.9244 0.0655
26.8400 8.9310 0.0646
26.8600 8.9376 0.0746
26.8800 8.9443 0.0719
26.9000 8.9510 0.0611
26.9200 8.9577 0.0730
26.9400 8.9644 0.0680
26.9600 8.9711 0.0648
26.9800 8.9778 0.0733
27.0000 8.9844 0.0683
27.0200 8.9910 0.0586
27.0400 8.9976 0.0760
27.0600 9.0043 0.0653
27.0800 9.0110 0.0593
27.1000 9.0177 0.0723
27.1200 9.0244 0.0683
27.1400 9.0311 0.0533
27.1600 9.0377 0.0709
27.1800 9.0443 0.0652
27.2000 9.0510 0.0569
27.2200 9.0576 0.0725
27.2400 9.0644 0.0632
27.2600 9.0711 0.0560
27.2800 9.0778 0.0702
27.3000 9.0844 0.0619
27.3200 9.0911 0.0602
27.3400 9.0978 0.0662
27.3600 9.1044 0.0593
27.3800 9.1110 0.0626
27.4000 9.1177 0.0681
27.4200 9.1244 0.0548
27.4400 9.1311 0.0610
27.4600 9.1378 0.0646
27.4800 9.1445 0.0555
27.5000 9.1511 0.0623
27.5200 9.1578 0.0632
27.5400 9.1644 0.0499
27.5600 9.1710 0.0622
27.5800 9.1776 0.0610
27.6000 9.1843 0.0537
27.6200 9.1910 0.0620
27.6400 9.1977 0.0523
27.6600 9.2044 0.0565
27.6800 9.2111 0.0598
27.7000 9.2177 0.0534
27.7200 9.2244 0.0539
27.7400 9.2310 0.0579
27.7600 9.2376 0.0548
27.7800 9.2443 0.0610
27.8000 9.2510 0.0529
27.8200 9.2577 0.0525
27.8400 9.2644 0.0578
27.8600 9.2711 0.0515
27.8800 9.2777 0.0479
27.9000 9.2844 0.0586
27.9200 9.2910 0.0497
27.9400 9.2977 0.0486
27.9600 9.3043 0.0534
27.9800 9.3110 0.0463
28.0000 9.3177 0.0540
28.0200 9.3244 0.0543
28.0400 9.3311 0.0460
28.0600 9.3378 0.0483
28.0800 9.3444 0.0528
28.1000 9.3510 0.0504
28.1200 9.3576 0.0488
28.1400 9.3644 0.0483
28.1600 9.3711 0.0506
28.1800 9.3778 0.0513
28.2000 9.3844 0.0423
28.2200 9.3911 0.0505
28.2400 9.3977 0.0512
28.2600 9.4044 0.0418
28.2800 9.4110 0.0536
28.3000 9.4177 0.0457
28.3200 9.4244 0.0465
28.3400 9.4311 0.0498
28.3600 9.4377 0.0465
28.3800 9.4444 0.0434
28.4000 9.4511 0.0558
28.4200 9.4578 0.0431
28.4400 9.4644 0.0403
28.4600 9.4710 0.0556
28.4800 9.4776 0.0442
28.5000 9.4843 0.0440
28.5200 9.4910 0.0528
28.5400 9.4977 0.0362
28.5600 9.5044 0.0467
28.5800 9.5111 0.0500
28.6000 9.5177 0.0370
28.6200 9.5243 0.0452
28.6400 9.5310 0.0524
28.6600 9.5376 0.0371
28.6800 9.5444 0.0424
28.7000 9.5511 0.0574
28.7200 9.5578 0.0340
28.7400 9.5644 0.0387
28.7600 9.5711 0.0530
28.7800 9.5778 0.0360
28.8000 9.5844 0.0379
28.8200 9.5910 0.0502
28.8400 9.5977 0.0355
28.8600 9.6044 0.0409
28.8800 9.6111 0.0482
28.9000 9.6178 0.0382
28.9200 9.6244 0.0362
28.9400 9.6311 0.0506
28.9600 9.6378 0.0331
28.9800 9.6444 0.0357
29.0000 9.6510 0.0522
29.0200 9.6576 0.0392
29.0400 9.6643 0.0366
29.0600 9.6710 0.0529
29.0800 9.6777 0.0318
29.1000 9.6844 0.0322
29.1200 9.6910 0.0553
29.1400 9.6977 0.0327
29.1600 9.7043 0.0338
29.1800 9.7109 0.0579
29.2000 9.7176 0.0299
29.2200 9.7243 0.0340
29.2400 9.7311 0.0549
29.2600 9.7378 0.0230
29.2800 9.7444 0.0399
29.3000 9.7511 0.0497
29.3200 9.7577 0.0216
29.3400 9.7644 0.0361
29.3600 9.7710 0.0516
29.3800 9.7777 0.0220
29.4000 9.7844 0.0404
29.4200 9.7911 0.0500
29.4400 9.7978 0.0179
29.4600 9.8044 0.0447
29.4800 9.8111 0.0474
29.5000 9.8178 0.0178
29.5200 9.8244 0.0499
29.5400 9.8310 0.0366
29.5600 9.8376 0.0239
29.5800 9.8443 0.0473
29.6000 9.8511 0.0375
29.6200 9.8578 0.0274
29.6400 9.8644 0.0490
29.6600 9.8711 0.0334
29.6800 9.8778 0.0292
29.7000 9.8844 0.0467
29.7200 9.8910 0.0331
29.7400 9.8976 0.0320
29.7600 9.9043 0.0481
29.7800 9.9110 0.0294
29.8000 9.9177 0.0306
29.8200 9.9244 0.0470
29.8400 9.9311 0.0295
29.8600 9.9377 0.0317
29.8800 9.9444 0.0389
29.9000 9.9510 0.0360
29.9200 9.9576 0.0348
29.9400 9.9643 0.0388
29.9600 9.9710 0.0327
29.9800 9.9777 0.0384
30.0000 9.9844 0.0370
30.0200 9.9911 0.0337
30.0400 9.9978 0.0381
30.0600 10.0044 0.0374
30.0800 10.0110 0.0345
30.1000 10.0176 0.0353
30.1200 10.0243 0.0344
30.1400 10.0311 0.0394
30.1600 10.0378 0.0287
30.1800 10.0445 0.0335
30.2000 10.0511 0.0353
30.2200 10.0578 0.0367
30.2400 10.0644 0.0310
30.2600 10.0710 0.0393
30.2800 10.0777 0.0384
30.3000 10.0843 0.0338
30.3200 10.0911 0.0416
30.3400 10.0978 0.0285
30.3600 10.1044 0.0375
30.3800 10.1111 0.0399
30.4000 10.1178 0.0281
30.4200 10.1244 0.0362
30.4400 10.1310 0.0399
30.4600 10.1376 0.0331
30.4800 10.1443 0.0356
30.5000 10.1510 0.0339
30.5200 10.1577 0.0351
30.5400 10.1644 0.0337
30.5600 10.1711 0.0351
30.5800 10.1778 0.0292
30.6000 10.1844 0.0317
30.6200 10.1910 0.0368
30.6400 10.1976 0.0309
30.6600 10.2042 0.0328
30.6800 10.2110 0.0361
30.7000 10.2177 0.0254
30.7200 10.2244 0.0325
30.7400 10.2311 0.0337
30.7600 10.2377 0.0308
30.7800 10.2444 0.0291
30.8000 10.2510 0.0342
30.8200 10.2577 0.0304
30.8400 10.2643 0.0310
30.8600 10.2711 0.0293
30.8800 10.2778 0.0275
30.9000 10.2844 0.0339
30.9200 10.2911 0.0272
30.9400 10.2978 0.0274
30.9600 10.3045 0.0269
30.9800 10.3111 0.0254
31.0000 10.3177 0.0314
31.0200 10.3243 0.0324
31.0400 10.3311 0.0231
31.0600 10.3378 0.0317
31.0800 10.3445 0.0287
31.1000 10.3511 0.0247
31.1200 10.3578 0.0287
31.1400 10.3644 0.0335
31.1600 10.3710 0.0185
31.1800 10.3776 0.0336
31.2000 10.3843 0.0304
31.2200 10.3910 0.0221
31.2400 10.3977 0.0341
31.2600 10.4044 0.0232
31.2800 10.4111 0.0239
31.3000 10.4177 0.0330
31.3200 10.4244 0.0237
31.3400 10.4310 0.0275
31.3600 10.4376 0.0334
31.3800 10.4443 0.0270
31.4000 10.4510 0.0206
31.4200 10.4577 0.0310
31.4400 10.4644 0.0222
31.4600 10.4710 0.0262
31.4800 10.4777 0.0269
31.5000 10.4844 0.0207
31.5200 10.4910 0.0302
31.5400 10.4977 0.0266
31.5600 10.5043 0.0283
31.5800 10.5110 0.0295
31.6000 10.5177 0.0272
31.6200 10.5244 0.0276
31.6400 10.5311 0.0306
31.6600 10.5378 0.0230
31.6800 10.5444 0.0310
31.7000 10.5510 0.0260
31.7200 10.5576 0.0279
31.7400 10.5643 0.0339
31.7600 10.5710 0.0245
31.7800 10.5778 0.0241
31.8000 10.5844 0.0341
31.8200 10.5911 0.0240
31.8400 10.5978 0.0268
31.8600 10.6044 0.0306
31.8800 10.6111 0.0229
31.9000 10.6177 0.0236
31.9200 10.6243 0.0330
31.9400 10.6310 0.0222
31.9600 10.6377 0.0246
31.9800 10.6444 0.0309
32.0000 10.6510 0.0235
32.0200 10.6577 0.0297
32.0400 10.6644 0.0309
32.0600 10.6710 0.0235
32.0800 10.6776 0.0301
32.1000 10.6843 0.0309
32.1200 10.6910 0.0247
32.1400 10.6977 0.0307
32.1600 10.7044 0.0260
32.1800 10.7111 0.0250
32.2000 10.7177 0.0275
32.2200 10.7244 0.0249
32.2400 10.7310 0.0276
32.2600 10.7376 0.0315
32.2800 10.7443 0.0254
32.3000 10.7510 0.0268
32.3200 10.7578 0.0231
32.3400 10.7645 0.0286
32.3600 10.7711 0.0276
32.3800 10.7778 0.0258
32.4000 10.7844 0.0233
32.4200 10.7911 0.0268
32.4400 10.7977 0.0244
32.4600 10.8043 0.0285
32.4800 10.8110 0.0277
32.5000 10.8177 0.0220
32.5200 10.8244 0.0293
32.5400 10.8311 0.0272
32.5600 10.8378 0.0179
32.5800 10.8445 0.0280
32.6000 10.8511 0.0231
32.6200 10.8577 0.0213
32.6400 10.8643 0.0296
32.6600 10.8710 0.0218
32.6800 10.8777 0.0212
32.7000 10.8844 0.0276
32.7200 10.8911 0.0196
32.7400 10.8978 0.0234
32.7600 10.9044 0.0290
32.7800 10.9110 0.0170
32.8000 10.9176 0.0300
32.8200 10.9243 0.0248
32.8400 10.9310 0.0210
32.8600 10.9377 0.0245
32.8800 10.9444 0.0211
32.9000 10.9510 0.0141
32.9200 10.9577 0.0315
32.9400 10.9644 0.0238
32.9600 10.9710 0.0135
32.9800 10.9777 0.0283
33.0000 10.9843 0.0226
33.0200 10.9910 0.0135
33.0400 10.9977 0.0325
33.0600 11.0044 0.0186
33.0800 11.0111 0.0139
33.1000 11.0178 0.0260
33.1200 11.0245 0.0172
33.1400 11.0311 0.0102
33.1600 11.0377 0.0246
33.1800 11.0443 0.0181
33.2000 11.0510 0.0142
33.2200 11.0577 0.0201
33.2400 11.0644 0.0148
33.2600 11.0711 0.0170
33.2800 11.0778 0.0260
33.3000 11.0844 0.0129
33.3200 11.0910 0.0092
33.3400 11.0976 0.0250
33.3600 11.1043 0.0161
33.3800 11.1110 0.0121
33.4000 11.1177 0.0179
33.4200 11.1244 0.0132
33.4400 11.1310 0.0105
33.4600 11.1377 0.0202
33.4800 11.1444 0.0056
33.5000 11.1510 0.0123
33.5200 11.1576 0.0206
33.5400 11.1643 0.0119
33.5600 11.1710 0.0102
33.5800 11.1777 0.0194
33.6000 11.1844 0.0110
33.6200 11.1911 0.0126
33.6400 11.1978 0.0172
33.6600 11.2045 0.0079
33.6800 11.2111 0.0107
33.7000 11.2177 0.0139
33.7200 11.2243 0.0101
33.7400 11.2310 0.0117
33.7600 11.2377 0.0127
33.7800 11.2444 0.0106
33.8000 11.2511 0.0105
33.8200 11.2578 0.0138
33.8400 11.2644 0.0103
33.8600 11.2711 0.0083
33.8800 11.2777 0.0133
33.9000 11.2843 0.0117
33.9200 11.2910 0.0087
33.9400 11.2977 0.0096
33.9600 11.3044 0.0103
33.9800 11.3111 0.0049
34.0000 11.3178 0.0142
34.0200 11.3245 0.0075
34.0400 11.3311 0.0050
34.0600 11.3377 0.0132
34.0800 11.3443 0.0151
34.1000 11.3510 0.0082
34.1200 11.3577 0.0095
34.1400 11.3644 0.0105
34.1600 11.3711 0.0098
34.1800 11.3778 0.0076
34.2000 11.3844 0.0117
34.2200 11.3911 0.0083
34.2400 11.3977 0.0102
34.2600 11.4043 0.0073
34.2800 11.4110 0.0033
34.3000 11.4177 0.0084
34.3200 11.4244 0.0073
34.3400 11.4311 0.0067
34.3600 11.4377 0.0072
34.3800 11.4444 0.0077
34.4000 11.4510 0.0037
34.4200 11.4577 0.0086
34.4400 11.4643 0.0112
34.4600 11.4710 0.0061
34.4800 11.4777 0.0002
34.5000 11.4844 0.0092
34.5200 11.4911 0.0017
34.5400 11.4978 0.0052
34.5600 11.5044 0.0057
34.5800 11.5111 0.0031
34.6000 11.5177 0.0018
34.6200 11.5243 0.0085
34.6400 11.5310 0.0054
34.6600 11.5377 0.0079
34.6800 11.5444 0.0051
34.7000 11.5511 0.0013
34.7200 11.5578 0.0018
34.7400 11.5645 0.0086
34.7600 11.5711 0.0008
34.7800 11.5777 0.0072
34.8000 11.5843 0.0071
34.8200 11.5910 0.0002
34.8400 11.5977 0.0061
34.8600 11.6044 0.0063
34.8800 11.6111 0.0003
34.9000 11.6178 0.0054
34.9200 11.6244 0.0026
34.9400 11.6311 0.0009
34.9600 11.6377 0.0052
34.9800 11.6443 0.0059
35.0000 11.6510 -0.0010
35.0200 11.6577 0.0023
35.0400 11.6644 0.0061
35.0600 11.6710 -0.0013
35.0800 11.6777 0.0076
35.1000 11.6844 0.0010
35.1200 11.6910 0.0032
35.1400 11.6977 0.0051
35.1600 11.7043 0.0030
35.1800 11.7110 0.0022
35.2000 11.7177 0.0060
35.2200 11.7244 -0.0026
35.2400 11.7311 0.0025
35.2600 11.7378 0.0018
35.2800 11.7445 -0.0014
35.3000 11.7511 -0.0026
35.3200 11.7577 0.0078
35.3400 11.7643 -0.0007
35.3600 11.7710 -0.0003
35.3800 11.7777 0.0048
35.4000 11.7844 -0.0040
35.4200 11.7911 0.0023
35.4400 11.7978 0.0052
35.4600 11.8044 -0.0038
35.4800 11.8111 0.0022
35.5000 11.8177 0.0058
35.5200 11.8243 -0.0033
35.5400 11.8310 0.0027
35.5600 11.8377 0.0022
35.5800 11.8444 -0.0038
35.6000 11.8511 0.0024
35.6200 11.8577 0.0066
35.6400 11.8644 -0.0050
35.6600 11.8711 0.0018
35.6800 11.8777 0.0004
35.7000 11.8843 -0.0055
35.7200 11.8909 0.0009
35.7400 11.8977 0.0020
35.7600 11.9044 -0.0082
35.7800 11.9111 0.0006
35.8000 11.9178 -0.0052
35.8200 11.9244 -0.0030
35.8400 11.9311 0.0020
35.8600 11.9377 0.0008
35.8800 11.9443 -0.0058
35.9000 11.9510 0.0031
35.9200 11.9577 -0.0043
35.9400 11.9644 -0.0034
35.9600 11.9711 -0.0036
35.9800 11.9777 -0.0012
36.0000 11.9844 -0.0035
36.0200 11.9911 -0.0037
36.0400 11.9977 -0.0035
36.0600 12.0044 -0.0024
36.0800 12.0110 0.0039
36.1000 12.0177 -0.0061
36.1200 12.0244 -0.0035
36.1400 12.0311 0.0017
36.1600 12.0378 -0.0045
36.1800 12.0445 -0.0057
36.2000 12.0511 0.0004
36.2200 12.0577 -0.0069
36.2400 12.0643 -0.0039
36.2600 12.0710 0.0021
36.2800 12.0777 -0.0045
36.3000 12.0844 -0.0072
36.3200 12.0911 0.0029
36.3400 12.0978 -0.0075
36.3600 12.1044 -0.0054
36.3800 12.1111 -0.0014
36.4000 12.1177 -0.0061
36.4200 12.1243 -0.0058
36.4400 12.1310 0.0027
36.4600 12.1377 -0.0086
36.4800 12.1444 -0.0064
36.5000 12.1510 -0.0006
36.5200 12.1577 -0.0094
36.5400 12.1644 -0.0046
36.5600 12.1711 0.0028
36.5800 12.1777 -0.0119
36.6000 12.1843 -0.0028
36.6200 12.1910 0.0047
36.6400 12.1977 -0.0132
36.6600 12.2044 -0.0047
36.6800 12.2111 0.0026
36.7000 12.2178 -0.0157
36.7200 12.2245 -0.0047
36.7400 12.2311 0.0025
36.7600 12.2377 -0.0195
36.7800 12.2443 -0.0021
36.8000 12.2510 0.0020
36.8200 12.2577 -0.0143
36.8400 12.2644 -0.0050
36.8600 12.2711 0.0028
36.8800 12.2778 -0.0186
36.9000 12.2844 -0.0004
36.9200 12.2911 -0.0019
36.9400 12.2977 -0.0175
36.9600 12.3043 0.0056
36.9800 12.3110 -0.0044
37.0000 12.3177 -0.0188
37.0200 12.3244 0.0035
37.0400 12.3311 -0.0088
37.0600 12.3377 -0.0166
37.0800 12.3444 0.0015
37.1000 12.3511 -0.0043
37.1200 12.3577 -0.0151
37.1400 12.3643 0.0016
37.1600 12.3710 -0.0087
37.1800 12.3776 -0.0080
37.2000 12.3844 0.0010
37.2200 12.3910 -0.0091
37.2400 12.3977 -0.0049
37.2600 12.4044 -0.0063
37.2800 12.4111 -0.0100
37.3000 12.4177 -0.0050
37.3200 12.4243 -0.0073
37.3400 12.4310 -0.0059
37.3600 12.4377 -0.0036
37.3800 12.4444 -0.0085
37.4000 12.4511 -0.0030
37.4200 12.4578 -0.0067
37.4400 12.4644 -0.0089
37.4600 12.4711 -0.0058
37.4800 12.4777 -0.0041
37.5000 12.4843 -0.0093
37.5200 12.4910 -0.0016
37.5400 12.4977 -0.0093
37.5600 12.5044 -0.0089
37.5800 12.5111 -0.0031
37.6000 12.5178 -0.0112
37.6200 12.5244 -0.0060
37.6400 12.5311 -0.0015
37.6600 12.5377 -0.0140
37.6800 12.5443 -0.0056
37.7000 12.5510 -0.0032
37.7200 12.5576 -0.0120
37.7400 12.5643 -0.0064
37.7600 12.5710 -0.0027
37.7800 12.5777 -0.0114
37.8000 12.5844 -0.0130
37.8200 12.5911 -0.0076
37.8400 12.5977 -0.0108
37.8600 12.6043 -0.0068
37.8800 12.6109 -0.0093
37.9000 12.6176 -0.0123
37.9200 12.6244 -0.0069
37.9400 12.6311 -0.0115
37.9600 12.6377 -0.0178
37.9800 12.6444 -0.0069
38.0000 12.6511 -0.0100
38.0200 12.6577 -0.0176
38.0400 12.6643 -0.0105
38.0600 12.6710 -0.0063
38.0800 12.6777 -0.0118
38.1000 12.6844 -0.0134
38.1200 12.6911 -0.0176
38.1400 12.6977 -0.0114
38.1600 12.7044 -0.0138
38.1800 12.7111 -0.0133
38.2000 12.7178 -0.0175
38.2200 12.7244 -0.0177
38.2400 12.7310 -0.0116
38.2600 12.7376 -0.0194
38.2800 12.7444 -0.0164
38.3000 12.7511 -0.0152
38.3200 12.7578 -0.0210
38.3400 12.7644 -0.0176
38.3600 12.7711 -0.0150
38.3800 12.7777 -0.0244
38.4000 12.7843 -0.0158
38.4200 12.7910 -0.0118
38.4400 12.7977 -0.0226
38.4600 12.8044 -0.0228
38.4800 12.8111 -0.0151
38.5000 12.8178 -0.0237
38.5200 12.8244 -0.0142
38.5400 12.8311 -0.0234
38.5600 12.8377 -0.0206
38.5800 12.8443 -0.0215
38.6000 12.8509 -0.0186
38.6200 12.8576 -0.0223
38.6400 12.8644 -0.0215
38.6600 12.8710 -0.0205
38.6800 12.8777 -0.0204
38.7000 12.8844 -0.0226
38.7200 12.8910 -0.0217
38.7400 12.8977 -0.0243
38.7600 12.9043 -0.0219
38.7800 12.9110 -0.0255
38.8000 12.9176 -0.0196
38.8200 12.9244 -0.0241
38.8400 12.9311 -0.0285
38.8600 12.9378 -0.0215
38.8800 12.9445 -0.0248
38.9000 12.9512 -0.0283
38.9200 12.9578 -0.0189
38.9400 12.9644 -0.0240
38.9600 12.9710 -0.0316
38.9800 12.9777 -0.0197
39.0000 12.9844 -0.0269
39.0200 12.9911 -0.0296
39.0400 12.9978 -0.0200
39.0600 13.0045 -0.0278
39.0800 13.0111 -0.0332
39.1000 13.0178 -0.0207
39.1200 13.0244 -0.0298
39.1400 13.0310 -0.0284
39.1600 13.0376 -0.0166
39.1800 13.0443 -0.0339
39.2000 13.0510 -0.0310
39.2200 13.0577 -0.0204
39.2400 13.0644 -0.0356
39.2600 13.0711 -0.0304
39.2800 13.0777 -0.0194
39.3000 13.0843 -0.0333
39.3200 13.0909 -0.0314
39.3400 13.0976 -0.0156
39.3600 13.1043 -0.0352
39.3800 13.1110 -0.0314
39.4000 13.1177 -0.0210
39.4200 13.1244 -0.0383
39.4400 13.1311 -0.0297
39.4600 13.1377 -0.0228
39.4800 13.1443 -0.0377
39.5000 13.1510 -0.0258
39.5200 13.1577 -0.0184
39.5400 13.1644 -0.0424
39.5600 13.1711 -0.0240
39.5800 13.1778 -0.0275
39.6000 13.1844 -0.0399
39.6200 13.1911 -0.0270
39.6400 13.1978 -0.0241
39.6600 13.2044 -0.0389
39.6800 13.2110 -0.0226
39.7000 13.2177 -0.0284
39.7200 13.2244 -0.0363
39.7400 13.2311 -0.0250
39.7600 13.2378 -0.0228
39.7800 13.2444 -0.0393
39.8000 13.2511 -0.0263
39.8200 13.2578 -0.0253
39.8400 13.2644 -0.0354
39.8600 13.2710 -0.0241
39.8800 13.2776 -0.0268
39.9000 13.2843 -0.0330
39.9200 13.2911 -0.0255
39.9400 13.2978 -0.0292
39.9600 13.3044 -0.0322
39.9800 13.3111 -0.0282
40.0000 13.3177 -0.0278
40.0200 13.3243 -0.0307
40.0400 13.3309 -0.0263
40.0600 13.3376 -0.0233
40.0800 13.3443 -0.0259
40.1000 13.3511 -0.0312
40.1200 13.3577 -0.0275
40.1400 13.3644 -0.0240
40.1600 13.3711 -0.0308
40.1800 13.3777 -0.0240
40.2000 13.3844 -0.0280
40.2200 13.3910 -0.0298
40.2400 13.3977 -0.0220
40.2600 13.4044 -0.0266
40.2800 13.4111 -0.0315
40.3000 13.4177 -0.0180
40.3200 13.4244 -0.0304
40.3400 13.4311 -0.0351
40.3600 13.4378 -0.0186
40.3800 13.4444 -0.0253
40.4000 13.4510 -0.0335
40.4200 13.4576 -0.0166
40.4400 13.4644 -0.0299
40.4600 13.4711 -0.0329
40.4800 13.4778 -0.0170
40.5000 13.4845 -0.0325
40.5200 13.4911 -0.0327
40.5400 13.4978 -0.0207
40.5600 13.5044 -0.0337
40.5800 13.5110 -0.0319
40.6000 13.5177 -0.0148
40.6200 13.5244 -0.0321
40.6400 13.5311 -0.0336
40.6600 13.5377 -0.0170
40.6800 13.5444 -0.0319
40.7000 13.5511 -0.0332
40.7200 13.5577 -0.0177
40.7400 13.5643 -0.0358
40.7600 13.5709 -0.0291
40.7800 13.5776 -0.0242
40.8000 13.5843 -0.0308
40.8200 13.5910 -0.0348
40.8400 13.5977 -0.0249
40.8600 13.6044 -0.0305
40.8800 13.6111 -0.0310
40.9000 13.6178 -0.0263
40.9200 13.6244 -0.0268
40.9400 13.6310 -0.0286
40.9600 13.6376 -0.0272
40.9800 13.6444 -0.0312
41.0000 13.6511 -0.0337
41.0200 13.6578 -0.0301
41.0400 13.6645 -0.0287
41.0600 13.6712 -0.0363
41.0800 13.6778 -0.0298
41.1000 13.6844 -0.0293
41.1200 13.6910 -0.0332
41.1400 13.6977 -0.0299
41.1600 13.7044 -0.0277
41.1800 13.7111 -0.0326
41.2000 13.7178 -0.0373
41.2200 13.7244 -0.0258
41.2400 13.7311 -0.0392
41.2600 13.7378 -0.0352
41.2800 13.7444 -0.0296
41.3000 13.7510 -0.0397
41.3200 13.7576 -0.0308
41.3400 13.7643 -0.0303
41.3600 13.7710 -0.0445
41.3800 13.7777 -0.0271
41.4000 13.7844 -0.0294
41.4200 13.7911 -0.0455
41.4400 13.7978 -0.0315
41.4600 13.8044 -0.0302
41.4800 13.8110 -0.0439
41.5000 13.8176 -0.0285
41.5200 13.8243 -0.0361
41.5400 13.8310 -0.0457
41.5600 13.8377 -0.0258
41.5800 13.8444 -0.0351
41.6000 13.8511 -0.0486
41.6200 13.8578 -0.0275
41.6400 13.8644 -0.0368
41.6600 13.8710 -0.0477
41.6800 13.8776 -0.0235
41.7000 13.8844 -0.0399
41.7200 13.8911 -0.0485
41.7400 13.8978 -0.0296
41.7600 13.9044 -0.0398
41.7800 13.9111 -0.0453
41.8000 13.9178 -0.0330
41.8200 13.9244 -0.0420
41.8400 13.9310 -0.0432
41.8600 13.9377 -0.0338
41.8800 13.9444 -0.0396
41.9000 13.9511 -0.0466
41.9200 13.9578 -0.0291
41.9400 13.9645 -0.0455
41.9600 13.9711 -0.0394
41.9800 13.9778 -0.0358
42.0000 13.9844 -0.0425
42.0200 13.9910 -0.0408
42.0400 13.9976 -0.0352
42.0600 14.0043 -0.0390
42.0800 14.0110 -0.0437
42.1000 14.0177 -0.0364
42.1200 14.0244 -0.0323
42.1400 14.0311 -0.0455
42.1600 14.0377 -0.0366
42.1800 14.0444 -0.0377
42.2000 14.0510 -0.0464
42.2200 14.0576 -0.0361
42.2400 14.0643 -0.0360
42.2600 14.0710 -0.0466
42.2800 14.0777 -0.0376
42.3000 14.0844 -0.0356
42.3200 14.0910 -0.0448
42.3400 14.0977 -0.0338
42.3600 14.1044 -0.0380
42.3800 14.1110 -0.0417
42.4000 14.1177 -0.0390
42.4200 14.1243 -0.0332
42.4400 14.1310 -0.0442
42.4600 14.1377 -0.0365
42.4800 14.1444 -0.0343
42.5000 14.1511 -0.0406
42.5200 14.1578 -0.0394
42.5400 14.1644 -0.0378
42.5600 14.1710 -0.0425
42.5800 14.1776 -0.0338
42.6000 14.1843 -0.0371
42.6200 14.1911 -0.0417
42.6400 14.1978 -0.0348
42.6600 14.2044 -0.0387
42.6800 14.2111 -0.0408
42.7000 14.2178 -0.0381
42.7200 14.2244 -0.0381
42.7400 14.2310 -0.0420
42.7600 14.2377 -0.0360
42.7800 14.2443 -0.0403
42.8000 14.2510 -0.0354
42.8200 14.2577 -0.0380
42.8400 14.2644 -0.0366
42.8600 14.2711 -0.0359
42.8800 14.2778 -0.0359
42.9000 14.2844 -0.0380
42.9200 14.2910 -0.0331
42.9400 14.2976 -0.0387
42.9600 14.3043 -0.0434
42.9800 14.3110 -0.0337
43.0000 14.3177 -0.0400
43.0200 14.3244 -0.0453
43.0400 14.3310 -0.0306
43.0600 14.3377 -0.0431
43.0800 14.3443 -0.0435
43.1000 14.3509 -0.0338
43.1200 14.3576 -0.0405
43.1400 14.3643 -0.0429
43.1600 14.3710 -0.0338
43.1800 14.3778 -0.0469
43.2000 14.3844 -0.0401
43.2200 14.3911 -0.0356
43.2400 14.3978 -0.0462
43.2600 14.4045 -0.0415
43.2800 14.4111 -0.0385
43.3000 14.4177 -0.0464
43.3200 14.4244 -0.0385
43.3400 14.4311 -0.0414
43.3600 14.4378 -0.0481
43.3800 14.4444 -0.0369
43.4000 14.4511 -0.0433
43.4200 14.4578 -0.0480
43.4400 14.4644 -0.0361
43.4600 14.4710 -0.0432
43.4800 14.4776 -0.0502
43.5000 14.4843 -0.0350
43.5200 14.4910 -0.0458
43.5400 14.4977 -0.0437
43.5600 14.5044 -0.0401
43.5800 14.5111 -0.0480
43.6000 14.5177 -0.0465
43.6200 14.5244 -0.0410
43.6400 14.5310 -0.0485
43.6600 14.5376 -0.0431
43.6800 14.5443 -0.0479
43.7000 14.5511 -0.0484
43.7200 14.5577 -0.0459
43.7400 14.5644 -0.0416
43.7600 14.5711 -0.0489
43.7800 14.5777 -0.0432
43.8000 14.5844 -0.0466
43.8200 14.5910 -0.0491
43.8400 14.5977 -0.0441
43.8600 14.6043 -0.0453
43.8800 14.6110 -0.0479
43.9000 14.6177 -0.0457
43.9200 14.6244 -0.0487
43.9400 14.6311 -0.0498
43.9600 14.6378 -0.0464
43.9800 14.6445 -0.0503
44.0000 14.6510 -0.0482
44.0200 14.6576 -0.0455
44.0400 14.6643 -0.0502
44.0600 14.6710 -0.0488
44.0800 14.6777 -0.0445
44.1000 14.6844 -0.0517
44.1200 14.6911 -0.0430
44.1400 14.6978 -0.0497
44.1600 14.7044 -0.0556
44.1800 14.7110 -0.0442
44.2000 14.7176 -0.0427
44.2200 14.7243 -0.0558
44.2400 14.7310 -0.0454
44.2600 14.7377 -0.0486
44.2800 14.7444 -0.0543
44.3000 14.7511 -0.0459
44.3200 14.7578 -0.0507
44.3400 14.7644 -0.0552
44.3600 14.7710 -0.0428
44.3800 14.7776 -0.0553
44.4000 14.7843 -0.0527
44.4200 14.7910 -0.0385
44.4400 14.7977 -0.0598
44.4600 14.8044 -0.0570
44.4800 14.8111 -0.0434
44.5000 14.8178 -0.0589
44.5200 14.8244 -0.0574
44.5400 14.8310 -0.0464
44.5600 14.8376 -0.0537
44.5800 14.8443 -0.0512
44.6000 14.8510 -0.0520
44.6200 14.8578 -0.0577
44.6400 14.8645 -0.0533
44.6600 14.8711 -0.0508
44.6800 14.8778 -0.0597
44.7000 14.8844 -0.0557
44.7200 14.8910 -0.0547
44.7400 14.8977 -0.0560
44.7600 14.9043 -0.0525
44.7800 14.9111 -0.0558
44.8000 14.9178 -0.0561
44.8200 14.9244 -0.0560
44.8400 14.9311 -0.0606
44.8600 14.9378 -0.0533
44.8800 14.9444 -0.0513
44.9000 14.9510 -0.0582
44.9200 14.9576 -0.0596
44.9400 14.9643 -0.0528
44.9600 14.9710 -0.0600
44.9800 14.9777 -0.0550
45.0000 14.9844 -0.0564
45.0200 14.9911 -0.0634
45.0400 14.9978 -0.0534
45.0600 15.0044 -0.0602
45.0800 15.0110 -0.0601
45.1000 15.0176 -0.0532
45.1200 15.0243 -0.0560
45.1400 15.0310 -0.0621
45.1600 15.0377 -0.0554
45.1800 15.0444 -0.0607
45.2000 15.0510 -0.0642
45.2200 15.0577 -0.0555
45.2400 15.0644 -0.0535
45.2600 15.0710 -0.0649
45.2800 15.0777 -0.0596
45.3000 15.0843 -0.0621
45.3200 15.0910 -0.0626
45.3400 15.0977 -0.0569
45.3600 15.1044 -0.0604
45.3800 15.1111 -0.0663
45.4000 15.1178 -0.0573
45.4200 15.1245 -0.0627
45.4400 15.1311 -0.0652
45.4600 15.1377 -0.0551
45.4800 15.1443 -0.0664
45.5000 15.1510 -0.0695
45.5200 15.1577 -0.0542
45.5400 15.1644 -0.0676
45.5600 15.1711 -0.0695
45.5800 15.1778 -0.0607
45.6000 15.1844 -0.0679
45.6200 15.1910 -0.0661
45.6400 15.1976 -0.0601
45.6600 15.2043 -0.0696
45.6800 15.2110 -0.0706
45.7000 15.2177 -0.0581
45.7200 15.2244 -0.0720
45.7400 15.2311 -0.0704
45.7600 15.2378 -0.0570
45.7800 15.2444 -0.0735
45.8000 15.2510 -0.0683
45.8200 15.2576 -0.0585
45.8400 15.2642 -0.0753
45.8600 15.2710 -0.0635
45.8800 15.2777 -0.0603
45.9000 15.2844 -0.0777
45.9200 15.2910 -0.0717
45.9400 15.2977 -0.0613
45.9600 15.3044 -0.0757
45.9800 15.3110 -0.0624
46.0000 15.3177 -0.0640
46.0200 15.3243 -0.0756
46.0400 15.3310 -0.0685
46.0600 15.3378 -0.0669
46.0800 15.3444 -0.0667
46.1000 15.3511 -0.0710
46.1200 15.3578 -0.0665
46.1400 15.3644 -0.0741
46.1600 15.3711 -0.0707
46.1800 15.3777 -0.0623
46.2000 15.3843 -0.0762
46.2200 15.3910 -0.0699
46.2400 15.3978 -0.0611
46.2600 15.4045 -0.0763
46.2800 15.4111 -0.0688
46.3000 15.4178 -0.0645
46.3200 15.4245 -0.0771
46.3400 15.4311 -0.0718
46.3600 15.4377 -0.0629
46.3800 15.4443 -0.0774
46.4000 15.4510 -0.0677
46.4200 15.4577 -0.0668
46.4400 15.4644 -0.0788
46.4600 15.4710 -0.0721
46.4800 15.4777 -0.0618
46.5000 15.4844 -0.0788
46.5200 15.4910 -0.0748
46.5400 15.4976 -0.0645
46.5600 15.5043 -0.0787
46.5800 15.5110 -0.0742
46.6000 15.5177 -0.0632
46.6200 15.5244 -0.0770
46.6400 15.5311 -0.0802
46.6600 15.5378 -0.0682
46.6800 15.5444 -0.0759
46.7000 15.5510 -0.0805
46.7200 15.5576 -0.0686
46.7400 15.5643 -0.0777
46.7600 15.5710 -0.0792
46.7800 15.5778 -0.0647
46.8000 15.5845 -0.0824
46.8200 15.5911 -0.0786
46.8400 15.5978 -0.0730
46.8600 15.6045 -0.0802
46.8800 15.6111 -0.0777
46.9000 15.6177 -0.0732
46.9200 15.6243 -0.0802
46.9400 15.6310 -0.0765
46.9600 15.6377 -0.0792
46.9800 15.6444 -0.0816
47.0000 15.6511 -0.0767
47.0200 15.6578 -0.0759
47.0400 15.6645 -0.0873
47.0600 15.6711 -0.0763
47.0800 15.6777 -0.0793
47.1000 15.6843 -0.0828
47.1200 15.6910 -0.0812
47.1400 15.6977 -0.0786
47.1600 15.7044 -0.0802
47.1800 15.7111 -0.0839
47.2000 15.7178 -0.0809
47.2200 15.7244 -0.0816
47.2400 15.7310 -0.0840
47.2600 15.7376 -0.0786
47.2800 15.7443 -0.0843
47.3000 15.7510 -0.0823
47.3200 15.7577 -0.0793
47.3400 15.7644 -0.0877
47.3600 15.7711 -0.0870
47.3800 15.7777 -0.0787
47.4000 15.7844 -0.0815
47.4200 15.7910 -0.0954
47.4400 15.7976 -0.0800
47.4600 15.8043 -0.0850
47.4800 15.8110 -0.0916
47.5000 15.8177 -0.0802
47.5200 15.8244 -0.0837
47.5400 15.8311 -0.0911
47.5600 15.8378 -0.0828
47.5800 15.8445 -0.0848
47.6000 15.8511 -0.0969
47.6200 15.8577 -0.0818
47.6400 15.8643 -0.0830
47.6600 15.8710 -0.0994
47.6800 15.8777 -0.0745
47.7000 15.8844 -0.0918
47.7200 15.8911 -0.0993
47.7400 15.8978 -0.0797
47.7600 15.9044 -0.0924
47.7800 15.9110 -0.0966
47.8000 15.9176 -0.0773
47.8200 15.9243 -0.0820
47.8400 15.9310 -0.0978
47.8600 15.9377 -0.0795
47.8800 15.9444 -0.0839
47.9000 15.9511 -0.0969
47.9200 15.9577 -0.0800
47.9400 15.9644 -0.0901
47.9600 15.9710 -0.0953
47.9800 15.9777 -0.0786
48.0000 15.9843 -0.0886
48.0200 15.9910 -0.0924
48.0400 15.9977 -0.0840
48.0600 16.0044 -0.0878
48.0800 16.0111 -0.1015
48.1000 16.0177 -0.0723
48.1200 16.0244 -0.0921
48.1400 16.0311 -0.0999
48.1600 16.0377 -0.0789
48.1800 16.0443 -0.0929
48.2000 16.0510 -0.0896
48.2200 16.0577 -0.0788
48.2400 16.0644 -0.0921
48.2600 16.0711 -0.0956
48.2800 16.0778 -0.0834
48.3000 16.0844 -0.0885
48.3200 16.0911 -0.0906
48.3400 16.0977 -0.0847
48.3600 16.1043 -0.0881
48.3800 16.1110 -0.0891
48.4000 16.1177 -0.0881
48.4200 16.1244 -0.0861
48.4400 16.1311 -0.0832
48.4600 16.1378 -0.0957
48.4800 16.1444 -0.0836
48.5000 16.1511 -0.0870
48.5200 16.1577 -0.0949
48.5400 16.1643 -0.0831
48.5600 16.1710 -0.0902
48.5800 16.1777 -0.0913
48.6000 16.1844 -0.0787
48.6200 16.1911 -0.0934
48.6400 16.1978 -0.0876
48.6600 16.2045 -0.0814
48.6800 16.2111 -0.0898
48.7000 16.2177 -0.0951
48.7200 16.2243 -0.0713
48.7400 16.2309 -0.0937
48.7600 16.2377 -0.0956
48.7800 16.2444 -0.0734
48.8000 16.2511 -0.0934
48.8200 16.2577 -0.0890
48.8400 16.2644 -0.0756
48.8600 16.2710 -0.0934
48.8800 16.2777 -0.0925
48.9000 16.2843 -0.0773
48.9200 16.2910 -0.0915
48.9400 16.2977 -0.0908
48.9600 16.3044 -0.0817
48.9800 16.3111 -0.0892
49.0000 16.3177 -0.0893
49.0200 16.3244 -0.0828
49.0400 16.3311 -0.0900
49.0600 16.3377 -0.0883
49.0800 16.3444 -0.0861
49.1000 16.3510 -0.0854
49.1200 16.3577 -0.0953
49.1400 16.3644 -0.0833
49.1600 16.3711 -0.0855
49.1800 16.3778 -0.0917
49.2000 16.3845 -0.0857
49.2200 16.3911 -0.0876
49.2400 16.3977 -0.0935
49.2600 16.4043 -0.0848
49.2800 16.4110 -0.0859
49.3000 16.4177 -0.0976
49.3200 16.4244 -0.0860
49.3400 16.4311 -0.0882
49.3600 16.4378 -0.1003
49.3800 16.4444 -0.0807
49.4000 16.4511 -0.0894
49.4200 16.4577 -0.1006
49.4400 16.4643 -0.0785
49.4600 16.4710 -0.0922
49.4800 16.4777 -0.0978
49.5000 16.4844 -0.0812
49.5200 16.4910 -0.0916
49.5400 16.4977 -0.0940
49.5600 16.5044 -0.0764
49.5800 16.5111 -0.0975
49.6000 16.5177 -0.0954
49.6200 16.5243 -0.0792
49.6400 16.5310 -0.0966
49.6600 16.5377 -0.1010
49.6800 16.5444 -0.0800
49.7000 16.5511 -0.0972
49.7200 16.5578 -0.0898
49.7400 16.5645 -0.0867
49.7600 16.5711 -0.1016
49.7800 16.5777 -0.0908
49.8000 16.5843 -0.0851
49.8200 16.5910 -0.0985
49.8400 16.5977 -0.0927
49.8600 16.6044 -0.0884
49.8800 16.6111 -0.0927
49.9000 16.6178 -0.0960
49.9200 16.6244 -0.0872
49.9400 16.6311 -0.0942
49.9600 16.6377 -0.0938
49.9800 16.6443 -0.0912
50.0000 16.6510 -0.0936
50.0200 16.6577 -0.0941
50.0400 16.6644 -0.0982
50.0600 16.6710 -0.0891
50.0800 16.6777 -0.0983
50.1000 16.6844 -0.0931
50.1200 16.6911 -0.0903
50.1400 16.6977 -0.0976
50.1600 16.7043 -0.0952
50.1800 16.7109 -0.0860
50.2000 16.7176 -0.1045
50.2200 16.7244 -0.0941
50.2400 16.7311 -0.0926
50.2600 16.7378 -0.1025
50.2800 16.7444 -0.0954
50.3000 16.7511 -0.0884
50.3200 16.7577 -0.1079
50.3400 16.7643 -0.0965
50.3600 16.7710 -0.0874
50.3800 16.7777 -0.1058
50.4000 16.7844 -0.0975
50.4200 16.7911 -0.0908
50.4400 16.7977 -0.1115
50.4600 16.8044 -0.0950
50.4800 16.8111 -0.0901
50.5000 16.8178 -0.1095
50.5200 16.8244 -0.0920
50.5400 16.8310 -0.0940
50.5600 16.8377 -0.1133
50.5800 16.8444 -0.0902
50.6000 16.8511 -0.0974
50.6200 16.8578 -0.1157
50.6400 16.8645 -0.0884
50.6600 16.8711 -0.1006
50.6800 16.8777 -0.1140
50.7000 16.8843 -0.0904
50.7200 16.8910 -0.0927
50.7400 16.8977 -0.1125
50.7600 16.9044 -0.0947
50.7800 16.9111 -0.1053
50.8000 16.9178 -0.1109
50.8200 16.9244 -0.0920
50.8400 16.9311 -0.1015
50.8600 16.9377 -0.1147
50.8800 16.9443 -0.0888
50.9000 16.9509 -0.1045
50.9200 16.9576 -0.1097
50.9400 16.9643 -0.0930
50.9600 16.9710 -0.1053
50.9800 16.9777 -0.1116
51.0000 16.9844 -0.0962
51.0200 16.9911 -0.1030
51.0400 16.9977 -0.1093
51.0600 17.0043 -0.0996
51.0800 17.0110 -0.1025
51.1000 17.0177 -0.1042
51.1200 17.0244 -0.1004
51.1400 17.0311 -0.1025
51.1600 17.0378 -0.1057
51.1800 17.0445 -0.1028
51.2000 17.0511 -0.1044
51.2200 17.0578 -0.1049
51.2400 17.0644 -0.1057
51.2600 17.0710 -0.0994
51.2800 17.0777 -0.1094
51.3000 17.0844 -0.1025
51.3200 17.0911 -0.0982
51.3400 17.0978 -0.1138
51.3600 17.1045 -0.1075
51.3800 17.1111 -0.0978
51.4000 17.1177 -0.1150
51.4200 17.1243 -0.1041
51.4400 17.1310 -0.0959
51.4600 17.1377 -0.1146
51.4800 17.1444 -0.1103
51.5000 17.1511 -0.1002
51.5200 17.1577 -0.1166
51.5400 17.1644 -0.1046
51.5600 17.1711 -0.1026
51.5800 17.1778 -0.1174
51.6000 17.1844 -0.1032
51.6200 17.1910 -0.1057
51.6400 17.1976 -0.1131
51.6600 17.2043 -0.1047
51.6800 17.2110 -0.1070
51.7000 17.2177 -0.1177
51.7200 17.2244 -0.1053
51.7400 17.2311 -0.1078
51.7600 17.2377 -0.1176
51.7800 17.2444 -0.1060
51.8000 17.2510 -0.1074
51.8200 17.2577 -0.1180
51.8400 17.2644 -0.1016
51.8600 17.2711 -0.1132
51.8800 17.2778 -0.1126
51.9000 17.2845 -0.1030
51.9200 17.2911 -0.1107
51.9400 17.2977 -0.1155
51.9600 17.3044 -0.1018
51.9800 17.3110 -0.1098
52.0000 17.3177 -0.1154
52.0200 17.3244 -0.1060
52.0400 17.3311 -0.1107
52.0600 17.3378 -0.1175
52.0800 17.3444 -0.1081
52.1000 17.3511 -0.1165
52.1200 17.3577 -0.1118
52.1400 17.3643 -0.1108
52.1600 17.3710 -0.1169
52.1800 17.3777 -0.1061
52.2000 17.3844 -0.1196
52.2200 17.3910 -0.1117
52.2400 17.3977 -0.1088
52.2600 17.4044 -0.1182
52.2800 17.4111 -0.1150
52.3000 17.4177 -0.1083
52.3200 17.4243 -0.1175
52.3400 17.4309 -0.1146
52.3600 17.4376 -0.1069
52.3800 17.4443 -0.1189
52.4000 17.4511 -0.1146
52.4200 17.4578 -0.1038
52.4400 17.4644 -0.1239
52.4600 17.4711 -0.1062
52.4800 17.4778 -0.1109
52.5000 17.4844 -0.1207
52.5200 17.4910 -0.1083
52.5400 17.4977 -0.1089
52.5600 17.5044 -0.1237
52.5800 17.5111 -0.1132
52.6000 17.5177 -0.1084
52.6200 17.5244 -0.1231
52.6400 17.5311 -0.1114
52.6600 17.5378 -0.1094
52.6800 17.5444 -0.1228
52.7000 17.5510 -0.1115
52.7200 17.5576 -0.1096
52.7400 17.5643 -0.1236
52.7600 17.5711 -0.1167
52.7800 17.5778 -0.1077
52.8000 17.5844 -0.1204
52.8200 17.5911 -0.1181
52.8400 17.5978 -0.1050
52.8600 17.6044 -0.1228
52.8800 17.6110 -0.1138
52.9000 17.6177 -0.1090
52.9200 17.6244 -0.1226
52.9400 17.6311 -0.1138
52.9600 17.6378 -0.1106
52.9800 17.6444 -0.1249
53.0000 17.6511 -0.1131
53.0200 17.6577 -0.1120
53.0400 17.6643 -0.1269
53.0600 17.6709 -0.1183
53.0800 17.6776 -0.1076
53.1000 17.6843 -0.1238
53.1200 17.6910 -0.1133
53.1400 17.6977 -0.1156
53.1600 17.7044 -0.1247
53.1800 17.7111 -0.1150
53.2000 17.7177 -0.1222
53.2200 17.7243 -0.1218
53.2400 17.7310 -0.1142
53.2600 17.7376 -0.1142
53.2800 17.7444 -0.1262
53.3000 17.7511 -0.1162
53.3200 17.7578 -0.1139
53.3400 17.7645 -0.1251
53.3600 17.7712 -0.1173
53.3800 17.7778 -0.1188
53.4000 17.7844 -0.1263
53.4200 17.7910 -0.1167
53.4400 17.7977 -0.1161
53.4600 17.8044 -0.1218
53.4800 17.8111 -0.1220
53.5000 17.8178 -0.1175
53.5200 17.8244 -0.1250
53.5400 17.8311 -0.1179
53.5600 17.8378 -0.1241
53.5800 17.8444 -0.1261
53.6000 17.8510 -0.1197
53.6200 17.8577 -0.1220
53.6400 17.8643 -0.1268
53.6600 17.8710 -0.1201
53.6800 17.8777 -0.1234
53.7000 17.8844 -0.1237
53.7200 17.8911 -0.1301
53.7400 17.8977 -0.1209
53.7600 17.9043 -0.1251
53.7800 17.9109 -0.1270
53.8000 17.9176 -0.1203
53.8200 17.9243 -0.1300
53.8400 17.9310 -0.1296
53.8600 17.9377 -0.1233
53.8800 17.9444 -0.1242
53.9000 17.9511 -0.1297
53.9200 17.9577 -0.1234
53.9400 17.9643 -0.1285
53.9600 17.9710 -0.1272
53.9800 17.9776 -0.1242
54.0000 17.9844 -0.1290
54.0200 17.9911 -0.1296
54.0400 17.9978 -0.1217
54.0600 18.0044 -0.1390
54.0800 18.0111 -0.1279
54.1000 18.0178 -0.1214
54.1200 18.0244 -0.1347
54.1400 18.0310 -0.1357
54.1600 18.0377 -0.1248
54.1800 18.0444 -0.1359
54.2000 18.0511 -0.1323
54.2200 18.0578 -0.1247
54.2400 18.0644 -0.1375
54.2600 18.0711 -0.1327
54.2800 18.0778 -0.1280
54.3000 18.0844 -0.1410
54.3200 18.0910 -0.1258
54.3400 18.0976 -0.1286
54.3600 18.1043 -0.1392
54.3800 18.1110 -0.1340
54.4000 18.1177 -0.1309
54.4200 18.1244 -0.1387
54.4400 18.1311 -0.1324
54.4600 18.1377 -0.1332
54.4800 18.1443 -0.1454
54.5000 18.1509 -0.1289
54.5200 18.1576 -0.1333
54.5400 18.1643 -0.1354
54.5600 18.1710 -0.1336
54.5800 18.1777 -0.1394
54.6000 18.1844 -0.1345
54.6200 18.1911 -0.1329
54.6400 18.1978 -0.1383
54.6600 18.2044 -0.1359
54.6800 18.2110 -0.1457
54.7000 18.2177 -0.1330
54.7200 18.2244 -0.1354
54.7400 18.2310 -0.1457
54.7600 18.2377 -0.1363
54.7800 18.2444 -0.1344
54.8000 18.2511 -0.1496
54.8200 18.2578 -0.1406
54.8400 18.2644 -0.1338
54.8600 18.2710 -0.1441
54.8800 18.2777 -0.1398
54.9000 18.2844 -0.1400
54.9200 18.2911 -0.1478
54.9400 18.2978 -0.1345
54.9600 18.3045 -0.1407
54.9800 18.3111 -0.1514
55.0000 18.3178 -0.1374
55.0200 18.3244 -0.1420
55.0400 18.3310 -0.1459
55.0600 18.3377 -0.1409
55.0800 18.3444 -0.1425
55.1000 18.3511 -0.1489
55.1200 18.3577 -0.1363
55.1400 18.3644 -0.1470
55.1600 18.3711 -0.1473
55.1800 18.3778 -0.1410
55.2000 18.3844 -0.1506
55.2200 18.3910 -0.1490
55.2400 18.3976 -0.1375
55.2600 18.4043 -0.1507
55.2800 18.4110 -0.1511
55.3000 18.4177 -0.1405
55.3200 18.4244 -0.1467
55.3400 18.4311 -0.1526
55.3600 18.4378 -0.1385
55.3800 18.4444 -0.1463
55.4000 18.4510 -0.1489
55.4200 18.4576 -0.1406
55.4400 18.4643 -0.1518
55.4600 18.4711 -0.1516
55.4800 18.4778 -0.1443
55.5000 18.4845 -0.1540
55.5200 18.4911 -0.1522
55.5400 18.4978 -0.1427
55.5600 18.5044 -0.1553
55.5800 18.5110 -0.1470
55.6000 18.5177 -0.1440
55.6200 18.5244 -0.1530
55.6400 18.5311 -0.1512
55.6600 18.5378 -0.1462
55.6800 18.5444 -0.1586
55.7000 18.5511 -0.1467
55.7200 18.5577 -0.1477
55.7400 18.5644 -0.1617
55.7600 18.5710 -0.1455
55.7800 18.5776 -0.1491
55.8000 18.5843 -0.1587
55.8200 18.5910 -0.1510
55.8400 18.5977 -0.1560
55.8600 18.6044 -0.1560
55.8800 18.6111 -0.1579
55.9000 18.6178 -0.1575
55.9200 18.6244 -0.1556
55.9400 18.6310 -0.1522
55.9600 18.6376 -0.1590
55.9800 18.6443 -0.1565
56.0000 18.6510 -0.1533
56.0200 18.6577 -0.1643
56.0400 18.6644 -0.1557
56.0600 18.6711 -0.1610
56.0800 18.6777 -0.1649
56.1000 18.6844 -0.1594
56.1200 18.6910 -0.1568
56.1400 18.6976 -0.1661
56.1600 18.7043 -0.1560
56.1800 18.7111 -0.1607
56.2000 18.7178 -0.1700
56.2200 18.7244 -0.1556
56.2400 18.7311 -0.1598
56.2600 18.7378 -0.1709
56.2800 18.7444 -0.1539
56.3000 18.7510 -0.1629
56.3200 18.7577 -0.1708
56.3400 18.7643 -0.1573
56.3600 18.7710 -0.1598
56.3800 18.7778 -0.1706
56.4000 18.7845 -0.1604
56.4200 18.7911 -0.1597
56.4400 18.7978 -0.1678
56.4600 18.8044 -0.1634
56.4800 18.8110 -0.1648
56.5000 18.8176 -0.1612
56.5200 18.8243 -0.1633
56.5400 18.8310 -0.1646
56.5600 18.8377 -0.1655
56.5800 18.8444 -0.1597
56.6000 18.8511 -0.1636
56.6200 18.8578 -0.1727
56.6400 18.8644 -0.1606
56.6600 18.8710 -0.1582
56.6800 18.8776 -0.1727
56.7000 18.8843 -0.1586
56.7200 18.8910 -0.1604
56.7400 18.8977 -0.1720
56.7600 18.9044 -0.1641
56.7800 18.9110 -0.1543
56.8000 18.9177 -0.1703
56.8200 18.9244 -0.1628
56.8400 18.9310 -0.1666
56.8600 18.9377 -0.1667
56.8800 18.9443 -0.1593
56.9000 18.9511 -0.1599
56.9200 18.9578 -0.1657
56.9400 18.9644 -0.1546
56.9600 18.9711 -0.1683
56.9800 18.9778 -0.1645
57.0000 18.9844 -0.1543
57.0200 18.9910 -0.1607
57.0400 18.9976 -0.1618
57.0600 19.0043 -0.1548
57.0800 19.0111 -0.1659
57.1000 19.0178 -0.1643
57.1200 19.0244 -0.1501
57.1400 19.0311 -0.1609
57.1600 19.0378 -0.1615
57.1800 19.0444 -0.1633
57.2000 19.0510 -0.1643
57.2200 19.0577 -0.1568
57.2400 19.0643 -0.1579
57.2600 19.0710 -0.1646
57.2800 19.0777 -0.1586
57.3000 19.0844 -0.1676
57.3200 19.0911 -0.1630
57.3400 19.0978 -0.1539
57.3600 19.1044 -0.1634
57.3800 19.1110 -0.1663
57.4000 19.1176 -0.1564
57.4200 19.1242 -0.1677
57.4400 19.1310 -0.1533
57.4600 19.1377 -0.1591
57.4800 19.1444 -0.1741
57.5000 19.1510 -0.1578
57.5200 19.1577 -0.1561
57.5400 19.1644 -0.1706
57.5600 19.1710 -0.1561
57.5800 19.1776 -0.1603
57.6000 19.1843 -0.1726
57.6200 19.1910 -0.1561
57.6400 19.1978 -0.1666
57.6600 19.2044 -0.1674
57.6800 19.2111 -0.1548
57.7000 19.2178 -0.1748
57.7200 19.2245 -0.1707
57.7400 19.2311 -0.1534
57.7600 19.2377 -0.1738
57.7800 19.2444 -0.1672
57.8000 19.2511 -0.1644
57.8200 19.2578 -0.1756
57.8400 19.2644 -0.1623
57.8600 19.2711 -0.1684
57.8800 19.2778 -0.1780
57.9000 19.2844 -0.1627
57.9200 19.2910 -0.1737
57.9400 19.2976 -0.1737
57.9600 19.3043 -0.1609
57.9800 19.3110 -0.1743
58.0000 19.3177 -0.1763
58.0200 19.3244 -0.1647
58.0400 19.3311 -0.1796
58.0600 19.3377 -0.1745
58.0800 19.3444 -0.1712
58.1000 19.3510 -0.1779
58.1200 19.3576 -0.1778
58.1400 19.3643 -0.1685
58.1600 19.3710 -0.1784
58.1800 19.3777 -0.1776
58.2000 19.3844 -0.1761
58.2200 19.3911 -0.1772
58.2400 19.3978 -0.1718
58.2600 19.4044 -0.1839
58.2800 19.4111 -0.1776
58.3000 19.4177 -0.1754
58.3200 19.4244 -0.1834
58.3400 19.4311 -0.1808
58.3600 19.4377 -0.1757
58.3800 19.4444 -0.1857
58.4000 19.4511 -0.1756
58.4200 19.4578 -0.1787
58.4400 19.4644 -0.1879
58.4600 19.4710 -0.1754
58.4800 19.4776 -0.1822
58.5000 19.4843 -0.1895
58.5200 19.4910 -0.1720
58.5400 19.4977 -0.1890
58.5600 19.5044 -0.1894
58.5800 19.5111 -0.1729
58.6000 19.5178 -0.1829
58.6200 19.5244 -0.1864
58.6400 19.5310 -0.1709
58.6600 19.5376 -0.1861
58.6800 19.5443 -0.1856
58.7000 19.5510 -0.1720
58.7200 19.5577 -0.1871
58.7400 19.5644 -0.1859
58.7600 19.5711 -0.1754
58.7800 19.5777 -0.1870
58.8000 19.5844 -0.1831
58.8200 19.5910 -0.1805
58.8400 19.5976 -0.1806
58.8600 19.6043 -0.1808
58.8800 19.6110 -0.1864
58.9000 19.6177 -0.1805
58.9200 19.6244 -0.1902
58.9400 19.6311 -0.1817
58.9600 19.6378 -0.1801
58.9800 19.6444 -0.1922
59.0000 19.6510 -0.1831
59.0200 19.6576 -0.1735
59.0400 19.6643 -0.1948
59.0600 19.6710 -0.1819
59.0800 19.6778 -0.1777
59.1000 19.6845 -0.1950
59.1200 19.6911 -0.1808
59.1400 19.6978 -0.1826
59.1600 19.7044 -0.1963
59.1800 19.7110 -0.1776
59.2000 19.7176 -0.1862
59.2200 19.7243 -0.1948
59.2400 19.7310 -0.1772
59.2600 19.7377 -0.1870
59.2800 19.7444 -0.1966
59.3000 19.7511 -0.1748
59.3200 19.7578 -0.1884
59.3400 19.7644 -0.1980
59.3600 19.7711 -0.1767
59.3800 19.7777 -0.1903
59.4000 19.7843 -0.1922
59.4200 19.7910 -0.1850
59.4400 19.7977 -0.1932
59.4600 19.8044 -0.1987
59.4800 19.8111 -0.1838
59.5000 19.8178 -0.1906
59.5200 19.8244 -0.1959
59.5400 19.8310 -0.1902
59.5600 19.8376 -0.1881
59.5800 19.8442 -0.1961
59.6000 19.8510 -0.1882
59.6200 19.8577 -0.1966
59.6400 19.8644 -0.1968
59.6600 19.8710 -0.1904
59.6800 19.8777 -0.1868
59.7000 19.8844 -0.2037
59.7200 19.8910 -0.1947
59.7400 19.8977 -0.1781
59.7600 19.9043 -0.1988
59.7800 19.9110 -0.2052
59.8000 19.9177 -0.1855
59.8200 19.9244 -0.2050
59.8400 19.9311 -0.1933
59.8600 19.9378 -0.1813
59.8800 19.9445 -0.2157
59.9000 19.9511 -0.2025
59.9200 19.9577 -0.1795
59.9400 19.9643 -0.2056
59.9600 19.9710 -0.1962
59.9800 19.9777 -0.1841
60.0000 19.9844 -0.2196
60.0200 19.9911 -0.1922
60.0400 19.9978 -0.1806
60.0600 20.0044 -0.2168
60.0800 20.0110 -0.1927
60.1000 20.0176 -0.1834
60.1200 20.0243 -0.2242
60.1400 20.0310 -0.1847
60.1600 20.0377 -0.1902
60.1800 20.0444 -0.2196
60.2000 20.0511 -0.1874
60.2200 20.0577 -0.1909
60.2400 20.0644 -0.2245
60.2600 20.0710 -0.1879
60.2800 20.0776 -0.1976
60.3000 20.0843 -0.2151
60.3200 20.0910 -0.1883
60.3400 20.0977 -0.2035
60.3600 20.1044 -0.2153
60.3800 20.1110 -0.1944
60.4000 20.1177 -0.1993
60.4200 20.1244 -0.2134
60.4400 20.1311 -0.2019
60.4600 20.1377 -0.2031
60.4800 20.1443 -0.2152
60.5000 20.1510 -0.1993
60.5200 20.1577 -0.1983
60.5400 20.1644 -0.2148
60.5600 20.1711 -0.2078
60.5800 20.1778 -0.2060
60.6000 20.1845 -0.2111
60.6200 20.1911 -0.2102
60.6400 20.1977 -0.2007
60.6600 20.2043 -0.2162
60.6800 20.2110 -0.2169
60.7000 20.2178 -0.2038
60.7200 20.2245 -0.2138
60.7400 20.2311 -0.2197
60.7600 20.2378 -0.2055
60.7800 20.2444 -0.2192
60.8000 20.2511 -0.2182
60.8200 20.2577 -0.2019
60.8400 20.2643 -0.2190
60.8600 20.2710 -0.2206
60.8800 20.2777 -0.2049
60.9000 20.2844 -0.2224
60.9200 20.2910 -0.2190
60.9400 20.2977 -0.2039
60.9600 20.3044 -0.2292
60.9800 20.3111 -0.2143
61.0000 20.3177 -0.2087
61.0200 20.3243 -0.2242
61.0400 20.3310 -0.2161
61.0600 20.3377 -0.2095
61.0800 20.3444 -0.2230
61.1000 20.3511 -0.1987
61.1200 20.3577 -0.1508
61.1400 20.3644 -0.1101
61.1600 20.3710 -0.0744
61.1800 20.3777 -0.0425
61.2000 20.3843 -0.0324
61.2200 20.3910 -0.0010
61.2400 20.3978 0.0216
61.2600 20.4045 0.0417
61.2800 20.4111 0.0606
61.3000 20.4178 0.0818
61.3200 20.4245 0.1073
61.3400 20.4311 0.1278
61.3600 20.4377 0.1579
61.3800 20.4443 0.1835
61.4000 20.4510 0.2038
61.4200 20.4577 0.2330
61.4400 20.4644 0.2603
61.4600 20.4711 0.2787
61.4800 20.4778 0.3073
61.5000 20.4845 0.3286
61.5200 20.4911 0.3461
61.5400 20.4977 0.3816
61.5600 20.5043 0.4155
61.5800 20.5109 0.4239
61.6000 20.5177 0.4625
61.6200 20.5244 0.4920
61.6400 20.5311 0.5075
61.6600 20.5378 0.5445
61.6800 20.5445 0.5730
61.7000 20.5511 0.5863
61.7200 20.5577 0.6281
61.7400 20.5643 0.6464
61.7600 20.5709 0.6687
61.7800 20.5777 0.7061
61.8000 20.5844 0.7272
61.8200 20.5910 0.7486
61.8400 20.5977 0.7876
61.8600 20.6044 0.7990
61.8800 20.6110 0.8240
61.9000 20.6177 0.8597
61.9200 20.6243 0.8713
61.9400 20.6310 0.9045
61.9600 20.6377 0.9336
61.9800 20.6444 0.9334
62.0000 20.6511 0.9332
62.0200 20.6578 0.9291
62.0400 20.6645 0.8977
62.0600 20.6711 0.9110
62.0800 20.6777 0.9185
62.1000 20.6843 0.8969
62.1200 20.6910 0.8986
62.1400 20.6977 0.9027
62.1600 20.7044 0.8898
62.1800 20.7111 0.9013
62.2000 20.7178 0.8997
62.2200 20.7244 0.8995
62.2400 20.7311 0.9013
62.2600 20.7377 0.8997
62.2800 20.7443 0.8959
62.3000 20.7510 0.9017
62.3200 20.7577 0.8925
62.3400 20.7644 0.8998
62.3600 20.7710 0.9064
62.3800 20.7777 0.8883
62.4000 20.7844 0.8970
62.4200 20.7910 0.8958
62.4400 20.7977 0.8834
62.4600 20.8043 0.8916
62.4800 20.8110 0.8900
62.5000 20.8177 0.8804
62.5200 20.8244 0.8876
62.5400 20.8311 0.8814
62.5600 20.8378 0.8796
62.5800 20.8445 0.8869
62.6000 20.8511 0.8811
62.6200 20.8577 0.8770
62.6400 20.8643 0.8870
62.6600 20.8710 0.8810
62.6800 20.8777 0.8807
62.7000 20.8844 0.8845
62.7200 20.8911 0.8810
62.7400 20.8978 0.8734
62.7600 20.9045 0.8774
62.7800 20.9111 0.8721
62.8000 20.9177 0.8759
62.8200 20.9243 0.8773
62.8400 20.9310 0.8711
62.8600 20.9377 0.8686
62.8800 20.9444 0.8810
62.9000 20.9511 0.8681
62.9200 20.9578 0.8672
62.9400 20.9645 0.8731
62.9600 20.9711 0.8562
62.9800 20.9777 0.8648
63.0000 20.9843 0.8694
63.0200 20.9910 0.8628
63.0400 20.9977 0.8712
63.0600 21.0044 0.8661
63.0800 21.0111 0.8625
63.1000 21.0178 0.8728
63.1200 21.0245 0.8664
63.1400 21.0311 0.8587
63.1600 21.0377 0.8640
63.1800 21.0443 0.8594
63.2000 21.0510 0.8611
63.2200 21.0577 0.8636
63.2400 21.0644 0.8499
63.2600 21.0711 0.8607
63.2800 21.0777 0.8571
63.3000 21.0844 0.8538
63.3200 21.0911 0.8594
63.3400 21.0977 0.8536
63.3600 21.1043 0.8593
63.3800 21.1110 0.8610
63.4000 21.1177 0.8447
63.4200 21.1244 0.8602
63.4400 21.1311 0.8560
63.4600 21.1378 0.8367
63.4800 21.1444 0.8563
63.5000 21.1511 0.8508
63.5200 21.1577 0.8407
63.5400 21.1644 0.8597
63.5600 21.1710 0.8470
63.5800 21.1777 0.8339
63.6000 21.1844 0.8610
63.6200 21.1911 0.8435
63.6400 21.1978 0.8367
63.6600 21.2045 0.8552
63.6800 21.2111 0.8356
63.7000 21.2177 0.8326
63.7200 21.2243 0.8576
63.7400 21.2310 0.8359
63.7600 21.2377 0.8351
63.7800 21.2444 0.8433
63.8000 21.2511 0.8314
63.8200 21.2577 0.8329
63.8400 21.2644 0.8466
63.8600 21.2711 0.8248
63.8800 21.2777 0.8332
63.9000 21.2843 0.8388
63.9200 21.2910 0.8258
63.9400 21.2977 0.8290
63.9600 21.3044 0.8391
63.9800 21.3110 0.8257
64.0000 21.3177 0.8253
64.0200 21.3244 0.8329
64.0400 21.3311 0.8242
64.0600 21.3377 0.8242
64.0800 21.3443 0.8327
64.1000 21.3510 0.8207
64.1200 21.3577 0.8206
64.1400 21.3644 0.8197
64.1600 21.3711 0.8191
64.1800 21.3778 0.8191
64.2000 21.3845 0.8192
64.2200 21.3911 0.8196
64.2400 21.3977 0.8041
64.2600 21.4043 0.8220
64.2800 21.4110 0.8245
64.3000 21.4177 0.8075
64.3200 21.4244 0.8175
64.3400 21.4311 0.8160
64.3600 21.4378 0.7997
64.3800 21.4444 0.8180
64.4000 21.4511 0.8117
64.4200 21.4577 0.8030
64.4400 21.4643 0.8149
64.4600 21.4710 0.8136
64.4800 21.4777 0.7988
64.5000 21.4844 0.8161
64.5200 21.4911 0.8074
64.5400 21.4977 0.7993
64.5600 21.5044 0.8115
64.5800 21.5111 0.8030
64.6000 21.5177 0.7985
64.6200 21.5243 0.8113
64.6400 21.5309 0.8039
64.6600 21.5376 0.7981
64.6800 21.5444 0.8074
64.7000 21.5511 0.8041
64.7200 21.5578 0.7974
64.7400 21.5644 0.8081
64.7600 21.5711 0.8008
64.7800 21.5777 0.7919
64.8000 21.5843 0.8014
64.8200 21.5910 0.7962
64.8400 21.5977 0.7914
64.8600 21.6044 0.8005
64.8800 21.6111 0.7966
64.9000 21.6177 0.7839
64.9200 21.6244 0.8007
64.9400 21.6311 0.7918
64.9600 21.6378 0.7832
64.9800 21.6444 0.7934
65.0000 21.6510 0.7961
65.0200 21.6577 0.7864
65.0400 21.6644 0.7924
65.0600 21.6711 0.7903
65.0800 21.6778 0.7848
65.1000 21.6845 0.7886
65.1200 21.6911 0.7854
65.1400 21.6978 0.7820
65.1600 21.7044 0.7850
65.1800 21.7110 0.7850
65.2000 21.7177 0.7766
65.2200 21.7244 0.7816
65.2400 21.7311 0.7814
65.2600 21.7377 0.7808
65.2800 21.7444 0.7796
65.3000 21.7511 0.7786
65.3200 21.7577 0.7759
65.3400 21.7643 0.7803
65.3600 21.7709 0.7746
65.3800 21.7776 0.7705
65.4000 21.7843 0.7774
65.4200 21.7910 0.7776
65.4400 21.7977 0.7665
65.4600 21.8044 0.7780
65.4800 21.8110 0.7719
65.5000 21.8177 0.7692
65.5200 21.8243 0.7770
65.5400 21.8310 0.7676
65.5600 21.8377 0.7688
65.5800 21.8444 0.7756
65.6000 21.8511 0.7605
65.6200 21.8578 0.7677
65.6400 21.8645 0.7760
65.6600 21.8711 0.7627
65.6800 21.8778 0.7652
65.7000 21.8844 0.7694
65.7200 21.8910 0.7648
65.7400 21.8977 0.7675
65.7600 21.9044 0.7642
65.7800 21.9111 0.7591
65.8000 21.9178 0.7702
65.8200 21.9245 0.7587
65.8400 21.9311 0.7586
65.8600 21.9377 0.7666
65.8800 21.9443 0.7604
65.9000 21.9510 0.7609
65.9200 21.9577 0.7645
65.9400 21.9644 0.7542
65.9600 21.9711 0.7608
65.9800 21.9777 0.7590
66.0000 21.9844 0.7570
66.0200 21.9911 0.7591
66.0400 21.9977 0.7589
66.0600 22.0044 0.7530
66.0800 22.0110 0.7575
66.1000 22.0176 0.7535
66.1200 22.0243 0.7509
66.1400 22.0310 0.7547
66.1600 22.0377 0.7477
66.1800 22.0444 0.7499
66.2000 22.0511 0.7538
66.2200 22.0577 0.7451
66.2400 22.0643 0.7482
66.2600 22.0710 0.7534
66.2800 22.0777 0.7459
66.3000 22.0844 0.7450
66.3200 22.0911 0.7477
66.3400 22.0978 0.7489
66.3600 22.1045 0.7401
66.3800 22.1111 0.7451
66.4000 22.1177 0.7453
66.4200 22.1243 0.7435
66.4400 22.1310 0.7430
66.4600 22.1377 0.7442
66.4800 22.1444 0.7381
66.5000 22.1511 0.7367
66.5200 22.1578 0.7375
66.5400 22.1644 0.7417
66.5600 22.1711 0.7361
66.5800 22.1777 0.7412
66.6000 22.1844 0.7349
66.6200 22.1910 0.7359
66.6400 22.1976 0.7381
66.6600 22.2043 0.7336
66.6800 22.2110 0.7390
66.7000 22.2177 0.7298
66.7200 22.2244 0.7308
66.7400 22.2311 0.7367
66.7600 22.2377 0.7298
66.7800 22.2443 0.7268
66.8000 22.2509 0.7340
66.8200 22.2576 0.7272
66.8400 22.2643 0.7244
66.8600 22.2711 0.7320
66.8800 22.2778 0.7230
66.9000 22.2844 0.7217
66.9200 22.2911 0.7356
66.9400 22.2977 0.7178
66.9600 22.3043 0.7237
66.9800 22.3110 0.7289
67.0000 22.3177 0.7239
67.0200 22.3244 0.7208
67.0400 22.3311 0.7248
67.0600 22.3377 0.7185
67.0800 22.3444 0.7218
67.1000 22.3511 0.7236
67.1200 22.3578 0.7147
67.1400 22.3644 0.7225
67.1600 22.3710 0.7263
67.1800 22.3776 0.7156
67.2000 22.3843 0.7169
67.2200 22.3911 0.7181
67.2400 22.3977 0.7164
67.2600 22.4044 0.7157
67.2800 22.4111 0.7139
67.3000 22.4178 0.7151
67.3200 22.4244 0.7194
67.3400 22.4310 0.7135
67.3600 22.4377 0.7112
67.3800 22.4444 0.7193
67.4000 22.4511 0.7097
67.4200 22.4578 0.7146
67.4400 22.4644 0.7098
67.4600 22.4711 0.7075
67.4800 22.4777 0.7153
67.5000 22.4843 0.7046
67.5200 22.4909 0.7016
67.5400 22.4976 0.7150
67.5600 22.5043 0.7021
67.5800 22.5110 0.7027
67.6000 22.5177 0.7096
67.6200 22.5244 0.7038
67.6400 22.5311 0.7003
67.6600 22.5377 0.7071
67.6800 22.5443 0.6965
67.7000 22.5510 0.7036
67.7200 22.5576 0.7072
67.7400 22.5643 0.6939
67.7600 22.5711 0.6918
67.7800 22.5778 0.7045
67.8000 22.5845 0.6883
67.8200 22.5912 0.6984
67.8400 22.5978 0.7030
67.8600 22.6044 0.6792
67.8800 22.6110 0.6992
67.9000 22.6177 0.7033
67.9200 22.6244 0.6790
67.9400 22.6311 0.6996
67.9600 22.6378 0.7015
67.9800 22.6445 0.6750
68.0000 22.6511 0.6962
68.0200 22.6578 0.6948
68.0400 22.6644 0.6776
68.0600 22.6710 0.6924
68.0800 22.6776 0.6906
68.1000 22.6843 0.6733
68.1200 22.6910 0.6912
68.1400 22.6977 0.6820
68.1600 22.7044 0.6770
68.1800 22.7111 0.6932
68.2000 22.7177 0.6839
68.2200 22.7243 0.6723
68.2400 22.7309 0.6916
68.2600 22.7376 0.6828
68.2800 22.7443 0.6719
68.3000 22.7510 0.6885
68.3200 22.7577 0.6823
68.3400 22.7644 0.6674
68.3600 22.7711 0.6888
68.3800 22.7777 0.6792
68.4000 22.7844 0.6711
68.4200 22.7910 0.6889
68.4400 22.7976 0.6768
68.4600 22.8044 0.6688
68.4800 22.8111 0.6824
68.5000 22.8178 0.6779
68.5200 22.8245 0.6625
68.5400 22.8311 0.6842
68.5600 22.8378 0.6714
68.5800 22.8444 0.6650
68.6000 22.8510 0.6833
68.6200 22.8577 0.6693
68.6400 22.8644 0.6583
68.6600 22.8711 0.6804
68.6800 22.8778 0.6672
68.7000 22.8845 0.6593
68.7200 22.8911 0.6736
68.7400 22.8978 0.6700
68.7600 22.9044 0.6521
68.7800 22.9110 0.6781
68.8000 22.9176 0.6654
68.8200 22.9243 0.6544
68.8400 22.9310 0.6718
68.8600 22.9377 0.6610
68.8800 22.9444 0.6561
68.9000 22.9511 0.6708
68.9200 22.9578 0.6550
68.9400 22.9644 0.6502
68.9600 22.9710 0.6718
68.9800 22.9776 0.6543
69.0000 22.9843 0.6509
69.0200 22.9910 0.6694
69.0400 22.9977 0.6496
69.0600 23.0044 0.6461
69.0800 23.0111 0.6635
69.1000 23.0177 0.6476
69.1200 23.0244 0.6513
69.1400 23.0310 0.6622
69.1600 23.0376 0.6472
69.1800 23.0443 0.6525
69.2000 23.0510 0.6628
69.2200 23.0577 0.6420
69.2400 23.0644 0.6509
69.2600 23.0711 0.6569
69.2800 23.0778 0.6388
69.3000 23.0844 0.6497
69.3200 23.0910 0.6597
69.3400 23.0976 0.6394
69.3600 23.1043 0.6509
69.3800 23.1111 0.6554
69.4000 23.1178 0.6402
69.4200 23.1244 0.6509
69.4400 23.1311 0.6534
69.4600 23.1378 0.6373
69.4800 23.1444 0.6458
69.5000 23.1510 0.6542
69.5200 23.1577 0.6361
69.5400 23.1644 0.6472
69.5600 23.1711 0.6468
69.5800 23.1778 0.6322
69.6000 23.1844 0.6455
69.6200 23.1911 0.6504
69.6400 23.1978 0.6268
69.6600 23.2044 0.6476
69.6800 23.2110 0.6417
69.7000 23.2176 0.6266
69.7200 23.2243 0.6463
69.7400 23.2310 0.6415
69.7600 23.2377 0.6227
69.7800 23.2444 0.6476
69.8000 23.2511 0.6365
69.8200 23.2578 0.6242
69.8400 23.2644 0.6435
69.8600 23.2710 0.6350
69.8800 23.2776 0.6259
69.9000 23.2843 0.6440
69.9200 23.2911 0.6308
69.9400 23.2978 0.6278
69.9600 23.3045 0.6356
69.9800 23.3111 0.6241
70.0000 23.3178 0.6274
70.0200 23.3244 0.6340
70.0400 23.3310 0.6231
70.0600 23.3377 0.6301
70.0800 23.3444 0.6315
70.1000 23.3511 0.6195
70.1200 23.3578 0.6342
70.1400 23.3644 0.6281
70.1600 23.3711 0.6204
70.1800 23.3778 0.6255
70.2000 23.3844 0.6248
70.2200 23.3910 0.6195
70.2400 23.3976 0.6296
70.2600 23.4043 0.6201
70.2800 23.4110 0.6254
70.3000 23.4177 0.6188
70.3200 23.4244 0.6204
70.3400 23.4311 0.6232
70.3600 23.4378 0.6207
70.3800 23.4444 0.6179
70.4000 23.4510 0.6208
70.4200 23.4576 0.6129
70.4400 23.4643 0.6185
70.4600 23.4710 0.6215
70.4800 23.4777 0.6082
70.5000 23.4844 0.6148
70.5200 23.4911 0.6229
70.5400 23.4977 0.6080
70.5600 23.5044 0.6155
70.5800 23.5110 0.6199
70.6000 23.5176 0.6068
70.6200 23.5243 0.6175
70.6400 23.5311 0.6124
70.6600 23.5378 0.6081
70.6800 23.5444 0.6172
70.7000 23.5511 0.6143
70.7200 23.5578 0.6016
70.7400 23.5644 0.6178
70.7600 23.5711 0.6113
70.7800 23.5777 0.6035
70.8000 23.5843 0.6150
70.8200 23.5910 0.6083
70.8400 23.5978 0.6037
70.8600 23.6045 0.6158
70.8800 23.6111 0.6062
70.9000 23.6178 0.6024
70.9200 23.6245 0.6087
70.9400 23.6310 0.6048
70.9600 23.6376 0.6012
70.9800 23.6443 0.6135
71.0000 23.6510 0.6017
71.0200 23.6577 0.6009
71.0400 23.6644 0.6093
71.0600 23.6711 0.5993
71.0800 23.6778 0.6027
71.1000 23.6844 0.6069
71.1200 23.6910 0.5969
71.1400 23.6976 0.6000
71.1600 23.7043 0.6082
71.1800 23.7110 0.5949
71.2000 23.7177 0.5980
71.2200 23.7244 0.6026
71.2400 23.7310 0.5973
71.2600 23.7377 0.5934
71.2800 23.7444 0.6026
71.3000 23.7510 0.5932
71.3200 23.7577 0.5954
71.3400 23.7643 0.5981
71.3600 23.7710 0.5927
71.3800 23.7777 0.5956
71.4000 23.7844 0.5997
71.4200 23.7911 0.5839
71.4400 23.7978 0.5921
71.4600 23.8044 0.5943
71.4800 23.8110 0.5866
71.5000 23.8176 0.5901
71.5200 23.8243 0.5913
71.5400 23.8310 0.5846
71.5600 23.8378 0.5864
71.5800 23.8444 0.5920
71.6000 23.8511 0.5832
71.6200 23.8578 0.5852
71.6400 23.8644 0.5889
71.6600 23.8710 0.5812
71.6800 23.8777 0.5800
71.7000 23.8843 0.5882
71.7200 23.8910 0.5779
71.7400 23.8977 0.5836
71.7600 23.9044 0.5835
71.7800 23.9111 0.5763
71.8000 23.9178 0.5806
71.8200 23.9244 0.5848
71.8400 23.9310 0.5686
71.8600 23.9376 0.5828
71.8800 23.9443 0.5851
71.9000 23.9510 0.5714
71.9200 23.9577 0.5757
71.9400 23.9644 0.5859
71.9600 23.9710 0.5684
71.9800 23.9777 0.5756
72.0000 23.9844 0.5819
72.0200 23.9910 0.5706
72.0400 23.9976 0.5759
72.0600 24.0043 0.5755
72.0800 24.0110 0.5696
72.1000 24.0178 0.5735
72.1200 24.0245 0.5755
72.1400 24.0311 0.5690
72.1600 24.0378 0.5746
72.1800 24.0444 0.5702
72.2000 24.0511 0.5675
72.2200 24.0577 0.5702
72.2400 24.0644 0.5727
72.2600 24.0711 0.5654
72.2800 24.0778 0.5711
72.3000 24.0844 0.5741
72.3200 24.0911 0.5651
72.3400 24.0978 0.5679
72.3600 24.1044 0.5744
72.3800 24.1110 0.5636
72.4000 24.1176 0.5650
72.4200 24.1243 0.5677
72.4400 24.1310 0.5650
72.4600 24.1377 0.5651
72.4800 24.1444 0.5671
72.5000 24.1510 0.5547
72.5200 24.1577 0.5646
72.5400 24.1644 0.5649
72.5600 24.1710 0.5548
72.5800 24.1776 0.5631
72.6000 24.1843 0.5665
72.6200 24.1910 0.5511
72.6400 24.1977 0.5577
72.6600 24.2044 0.5592
72.6800 24.2111 0.5536
72.7000 24.2177 0.5601
72.7200 24.2244 0.5561
72.7400 24.2311 0.5512
72.7600 24.2377 0.5586
72.7800 24.2444 0.5556
72.8000 24.2511 0.5430
72.8200 24.2578 0.5581
72.8400 24.2644 0.5525
72.8600 24.2711 0.5475
72.8800 24.2778 0.5547
72.9000 24.2845 0.5512
72.9200 24.2911 0.5429
72.9400 24.2976 0.5550
72.9600 24.3043 0.5515
72.9800 24.3110 0.5389
73.0000 24.3178 0.5457
73.0200 24.3244 0.5472
73.0400 24.3311 0.5386
73.0600 24.3378 0.5509
73.0800 24.3444 0.5421
73.1000 24.3510 0.5434
73.1200 24.3576 0.5483
73.1400 24.3643 0.5454
73.1600 24.3710 0.5425
73.1800 24.3777 0.5414
73.2000 24.3844 0.5396
73.2200 24.3910 0.5389
73.2400 24.3977 0.5467
73.2600 24.4044 0.5330
73.2800 24.4110 0.5390
73.3000 24.4177 0.5484
73.3200 24.4243 0.5366
73.3400 24.4310 0.5359
73.3600 24.4377 0.5486
73.3800 24.4444 0.5361
73.4000 24.4511 0.5342
73.4200 24.4578 0.5364
73.4400 24.4644 0.5358
73.4600 24.4711 0.5343
73.4800 24.4777 0.5380
73.5000 24.4843 0.5348
73.5200 24.4910 0.5366
73.5400 24.4977 0.5346
73.5600 24.5044 0.5301
73.5800 24.5111 0.5299
73.6000 24.5178 0.5297
73.6200 24.5244 0.5319
73.6400 24.5311 0.5263
73.6600 24.5377 0.5323
73.6800 24.5443 0.5290
73.7000 24.5510 0.5200
73.7200 24.5577 0.5359
73.7400 24.5644 0.5240
73.7600 24.5711 0.5221
73.7800 24.5778 0.5318
73.8000 24.5845 0.5185
73.8200 24.5911 0.5207
73.8400 24.5977 0.5266
73.8600 24.6043 0.5239
73.8800 24.6110 0.5173
73.9000 24.6177 0.5279
73.9200 24.6244 0.5164
73.9400 24.6311 0.5195
73.9600 24.6378 0.5268
73.9800 24.6444 0.5115
74.0000 24.6510 0.5156
74.0200 24.6576 0.5264
74.0400 24.6642 0.5100
74.0600 24.6710 0.5176
74.0800 24.6777 0.5248
74.1000 24.6844 0.5063
74.1200 24.6911 0.5144
74.1400 24.6977 0.5267
74.1600 24.7044 0.5040
74.1800 24.7111 0.5122
74.2000 24.7177 0.5221
74.2200 24.7243 0.5041
74.2400 24.7310 0.5160
74.2600 24.7377 0.5209
74.2800 24.7444 0.5032
74.3000 24.7511 0.5102
74.3200 24.7578 0.5211
74.3400 24.7645 0.5036
74.3600 24.7711 0.5082
74.3800 24.7777 0.5152
74.4000 24.7843 0.5047
74.4200 24.7910 0.5085
74.4400 24.7977 0.5143
74.4600 24.8044 0.5009
74.4800 24.8111 0.5121
74.5000 24.8178 0.5094
74.5200 24.8244 0.5018
74.5400 24.8311 0.5079
74.5600 24.8377 0.5074
74.5800 24.8443 0.5028
74.6000 24.8510 0.5087
74.6200 24.8577 0.5040
74.6400 24.8644 0.5000
74.6600 24.8711 0.5080
74.6800 24.8777 0.5046
74.7000 24.8844 0.4979
74.7200 24.8911 0.5052
74.7400 24.8977 0.5010
74.7600 24.9043 0.4975
74.7800 24.9110 0.5071
74.8000 24.9177 0.4995
74.8200 24.9244 0.4981
74.8400 24.9310 0.5021
74.8600 24.9377 0.4955
74.8800 24.9444 0.4959
74.9000 24.9511 0.5007
74.9200 24.9577 0.4928
74.9400 24.9643 0.4973
74.9600 24.9710 0.4970
74.9800 24.9777 0.4984
75.0000 24.9844 0.4913
75.0200 24.9911 0.4957
75.0400 24.9978 0.4942
75.0600 25.0045 0.4910
75.0800 25.0111 0.4937
75.1000 25.0177 0.4919
75.1200 25.0243 0.4972
75.1400 25.0310 0.4933
75.1600 25.0377 0.4872
75.1800 25.0444 0.4939
75.2000 25.0511 0.4855
75.2200 25.0578 0.4916
75.2400 25.0644 0.4918
75.2600 25.0711 0.4874
75.2800 25.0777 0.4875
75.3000 25.0843 0.4857
75.3200 25.0910 0.4878
75.3400 25.0977 0.4879
75.3600 25.1044 0.4893
75.3800 25.1110 0.4799
75.4000 25.1177 0.4904
75.4200 25.1244 0.4810
75.4400 25.1311 0.4827
75.4600 25.1377 0.4878
75.4800 25.1443 0.4794
75.5000 25.1509 0.4856
75.5200 25.1576 0.4891
75.5400 25.1644 0.4716
75.5600 25.1710 0.4858
75.5800 25.1777 0.4882
75.6000 25.1844 0.4698
75.6200 25.1911 0.4820
75.6400 25.1977 0.4878
75.6600 25.2043 0.4664
75.6800 25.2110 0.4928
75.7000 25.2177 0.4790
75.7200 25.2245 0.4626
75.7400 25.2311 0.4939
75.7600 25.2378 0.4750
75.7800 25.2445 0.4647
75.8000 25.2511 0.4946
75.8200 25.2577 0.4708
75.8400 25.2643 0.4648
75.8600 25.2710 0.4930
75.8800 25.2777 0.4665
75.9000 25.2844 0.4667
75.9200 25.2911 0.4872
75.9400 25.2978 0.4641
75.9600 25.3044 0.4685
75.9800 25.3111 0.4834
76.0000 25.3177 0.4620
76.0200 25.3243 0.4700
76.0400 25.3310 0.4787
76.0600 25.3377 0.4635
76.0800 25.3444 0.4711
76.1000 25.3511 0.4744
76.1200 25.3578 0.4643
76.1400 25.3645 0.4698
76.1600 25.3711 0.4656
76.1800 25.3777 0.4678
76.2000 25.3842 0.4651
76.2200 25.3909 0.4636
76.2400 25.3977 0.4650
76.2600 25.4044 0.4650
76.2800 25.4111 0.4633
76.3000 25.4177 0.4653
76.3200 25.4244 0.4623
76.3400 25.4310 0.4609
76.3600 25.4377 0.4656
76.3800 25.4443 0.4593
76.4000 25.4510 0.4670
76.4200 25.4577 0.4607
76.4400 25.4644 0.4602
76.4600 25.4711 0.4595
76.4800 25.4778 0.4607
76.5000 25.4845 0.4562
76.5200 25.4911 0.4579
76.5400 25.4977 0.4601
76.5600 25.5043 0.4586
76.5800 25.5110 0.4517
76.6000 25.5177 0.4595
76.6200 25.5244 0.4547
76.6400 25.5311 0.4594
76.6600 25.5378 0.4546
76.6800 25.5444 0.4510
76.7000 25.5511 0.4565
76.7200 25.5577 0.4543
76.7400 25.5643 0.4477
76.7600 25.5710 0.4575
76.7800 25.5777 0.4529
76.8000 25.5844 0.4513
76.8200 25.5910 0.4518
76.8400 25.5977 0.4495
76.8600 25.6044 0.4510
76.8800 25.6110 0.4504
76.9000 25.6177 0.4432
76.9200 25.6243 0.4423
76.9400 25.6310 0.4548
76.9600 25.6377 0.4427
76.9800 25.6444 0.4437
77.0000 25.6511 0.4453
77.0200 25.6577 0.4443
77.0400 25.6644 0.4447
77.0600 25.6711 0.4426
77.0800 25.6777 0.4381
77.1000 25.6843 0.4464
77.1200 25.6910 0.4410
77.1400 25.6977 0.4404
77.1600 25.7044 0.4383
77.1800 25.7111 0.4396
77.2000 25.7178 0.4378
77.2200 25.7245 0.4382
77.2400 25.7311 0.4368
77.2600 25.7377 0.4414
77.2800 25.7443 0.4331
77.3000 25.7510 0.4343
77.3200 25.7577 0.4364
77.3400 25.7644 0.4329
77.3600 25.7711 0.4381
77.3800 25.7778 0.4323
77.4000 25.7844 0.4313
77.4200 25.7911 0.4372
77.4400 25.7977 0.4335
77.4600 25.8044 0.4271
77.4800 25.8110 0.4375
77.5000 25.8177 0.4334
77.5200 25.8244 0.4249
77.5400 25.8310 0.4395
77.5600 25.8377 0.4287
77.5800 25.8444 0.4251
77.6000 25.8511 0.4353
77.6200 25.8577 0.4229
77.6400 25.8643 0.4295
77.6600 25.8709 0.4358
77.6800 25.8776 0.4232
77.7000 25.8844 0.4189
77.7200 25.8911 0.4375
77.7400 25.8977 0.4208
77.7600 25.9044 0.4261
77.7800 25.9111 0.4278
77.8000 25.9177 0.4177
77.8200 25.9243 0.4212
77.8400 25.9310 0.4261
77.8600 25.9377 0.4175
77.8800 25.9444 0.4241
77.9000 25.9511 0.4219
77.9200 25.9578 0.4126
77.9400 25.9644 0.4228
77.9600 25.9711 0.4239
77.9800 25.9777 0.4131
78.0000 25.9843 0.4205
78.0200 25.9910 0.4212
78.0400 25.9977 0.4138
78.0600 26.0044 0.4236
78.0800 26.0111 0.4150
78.1000 26.0178 0.4129
78.1200 26.0245 0.4222
78.1400 26.0311 0.4127
78.1600 26.0377 0.4073
78.1800 26.0443 0.4204
78.2000 26.0510 0.4100
78.2200 26.0577 0.4097
78.2400 26.0644 0.4145
78.2600 26.0711 0.4118
78.2800 26.0778 0.4081
78.3000 26.0844 0.4164
78.3200 26.0911 0.4074
78.3400 26.0977 0.4088
78.3600 26.1043 0.4122
78.3800 26.1109 0.4099
78.4000 26.1176 0.4049
78.4200 26.1244 0.4130
78.4400 26.1310 0.4078
78.4600 26.1377 0.4008
78.4800 26.1444 0.4102
78.5000 26.1510 0.3998
78.5200 26.1577 0.4038
78.5400 26.1643 0.4060
78.5600 26.1710 0.3973
78.5800 26.1777 0.4033
78.6000 26.1844 0.4079
78.6200 26.1911 0.3973
78.6400 26.1978 0.4021
78.6600 26.2045 0.4024
78.6800 26.2111 0.3945
78.7000 26.2178 0.3967
78.7200 26.2244 0.4023
78.7400 26.2310 0.3933
78.7600 26.2377 0.3996
78.7800 26.2444 0.3978
78.8000 26.2511 0.3950
78.8200 26.2578 0.4021
78.8400 26.2644 0.3988
78.8600 26.2711 0.3909
78.8800 26.2777 0.3955
78.9000 26.2843 0.3957
78.9200 26.2910 0.3964
78.9400 26.2977 0.3974
78.9600 26.3044 0.3906
78.9800 26.3111 0.3944
79.0000 26.3177 0.3901
79.0200 26.3244 0.3939
79.0400 26.3311 0.3945
79.0600 26.3377 0.3938
79.0800 26.3443 0.3909
79.1000 26.3509 0.3856
79.1200 26.3576 0.3925
79.1400 26.3644 0.3961
79.1600 26.3711 0.3831
79.1800 26.3777 0.3891
79.2000 26.3844 0.3952
79.2200 26.3911 0.3867
79.2400 26.3977 0.3828
79.2600 26.4044 0.3961
79.2800 26.4110 0.3834
79.3000 26.4177 0.3850
79.3200 26.4244 0.3932
79.3400 26.4311 0.3824
79.3600 26.4377 0.3870
79.3800 26.4444 0.3910
79.4000 26.4511 0.3754
79.4200 26.4578 0.3850
79.4400 26.4644 0.3912
79.4600 26.4710 0.3791
79.4800 26.4777 0.3872
79.5000 26.4844 0.3860
79.5200 26.4911 0.3750
79.5400 26.4978 0.3916
79.5600 26.5044 0.3872
79.5800 26.5111 0.3777
79.6000 26.5178 0.3864
79.6200 26.5244 0.3844
79.6400 26.5310 0.3825
79.6600 26.5376 0.3834
79.6800 26.5443 0.3843
79.7000 26.5511 0.3799
79.7200 26.5578 0.3848
79.7400 26.5644 0.3811
79.7600 26.5711 0.3802
79.7800 26.5777 0.3822
79.8000 26.5843 0.3853
79.8200 26.5909 0.3777
79.8400 26.5976 0.3828
79.8600 26.6043 0.3832
79.8800 26.6110 0.3776
79.9000 26.6177 0.3785
79.9200 26.6244 0.3844
79.9400 26.6310 0.3781
79.9600 26.6377 0.3718
79.9800 26.6443 0.3819
80.0000 26.6510 0.3798
80.0200 26.6577 0.3741
80.0400 26.6644 0.3797
80.0600 26.6711 0.3763
80.0800 26.6778 0.3686
80.1000 26.6845 0.3824
80.1200 26.6911 0.3766
80.1400 26.6978 0.3675
80.1600 26.7044 0.3801
80.1800 26.7110 0.3785
80.2000 26.7177 0.3706
80.2200 26.7244 0.3777
80.2400 26.7311 0.3684
80.2600 26.7378 0.3698
80.2800 26.7444 0.3728
80.3000 26.7511 0.3740
80.3200 26.7577 0.3629
80.3400 26.7643 0.3755
80.3600 26.7710 0.3686
80.3800 26.7776 0.3637
80.4000 26.7844 0.3735
80.4200 26.7911 0.3666
80.4400 26.7977 0.3629
80.4600 26.8044 0.3688
80.4800 26.8111 0.3658
80.5000 26.8178 0.3630
80.5200 26.8244 0.3687
80.5400 26.8310 0.3653
80.5600 26.8376 0.3628
80.5800 26.8443 0.3699
80.6000 26.8510 0.3606
80.6200 26.8577 0.3549
80.6400 26.8644 0.3763
80.6600 26.8711 0.3580
80.6800 26.8777 0.3541
80.7000 26.8843 0.3670
80.7200 26.8910 0.3614
80.7400 26.8976 0.3541
80.7600 26.9044 0.3650
80.7800 26.9111 0.3555
80.8000 26.9178 0.3546
80.8200 26.9245 0.3634
80.8400 26.9311 0.3522
80.8600 26.9377 0.3482
80.8800 26.9444 0.3683
80.9000 26.9510 0.3472
80.9200 26.9577 0.3497
80.9400 26.9644 0.3635
80.9600 26.9711 0.3492
80.9800 26.9778 0.3488
81.0000 26.9844 0.3601
81.0200 26.9911 0.3474
81.0400 26.9978 0.3447
81.0600 27.0044 0.3593
81.0800 27.0110 0.3456
81.1000 27.0176 0.3452
81.1200 27.0243 0.3584
81.1400 27.0310 0.3402
81.1600 27.0377 0.3371
81.1800 27.0444 0.3571
81.2000 27.0511 0.3400
81.2200 27.0577 0.3413
81.2400 27.0643 0.3490
81.2600 27.0709 0.3418
81.2800 27.0776 0.3393
81.3000 27.0843 0.3499
81.3200 27.0911 0.3325
81.3400 27.0977 0.3367
81.3600 27.1044 0.3479
81.3800 27.1111 0.3332
81.4000 27.1177 0.3325
81.4200 27.1244 0.3462
81.4400 27.1310 0.3313
81.4600 27.1377 0.3347
81.4800 27.1444 0.3410
81.5000 27.1511 0.3307
81.5200 27.1577 0.3355
81.5400 27.1644 0.3409
81.5600 27.1711 0.3300
81.5800 27.1778 0.3349
81.6000 27.1844 0.3427
81.6200 27.1910 0.3261
81.6400 27.1976 0.3337
81.6600 27.2043 0.3373
81.6800 27.2111 0.3287
81.7000 27.2178 0.3304
81.7200 27.2244 0.3297
81.7400 27.2311 0.3268
81.7600 27.2378 0.3336
81.7800 27.2444 0.3262
81.8000 27.2510 0.3339
81.8200 27.2577 0.3297
81.8400 27.2644 0.3263
81.8600 27.2711 0.3269
81.8800 27.2778 0.3315
81.9000 27.2844 0.3237
81.9200 27.2911 0.3341
81.9400 27.2978 0.3249
81.9600 27.3044 0.3183
81.9800 27.3110 0.3345
82.0000 27.3176 0.3271
82.0200 27.3243 0.3174
82.0400 27.3311 0.3275
82.0600 27.3377 0.3249
82.0800 27.3444 0.3207
82.1000 27.3511 0.3282
82.1200 27.3577 0.3215
82.1400 27.3644 0.3226
82.1600 27.3710 0.3317
82.1800 27.3776 0.3208
82.2000 27.3843 0.3214
82.2200 27.3911 0.3330
82.2400 27.3978 0.3133
82.2600 27.4045 0.3210
82.2800 27.4112 0.3282
82.3000 27.4178 0.3138
82.3200 27.4244 0.3182
82.3400 27.4310 0.3309
82.3600 27.4377 0.3182
82.3800 27.4444 0.3206
82.4000 27.4511 0.3231
82.4200 27.4578 0.3176
82.4400 27.4644 0.3167
82.4600 27.4711 0.3233
82.4800 27.4778 0.3122
82.5000 27.4844 0.3204
82.5200 27.4910 0.3246
82.5400 27.4977 0.3146
82.5600 27.5043 0.3166
82.5800 27.5110 0.3181
82.6000 27.5177 0.3145
82.6200 27.5244 0.3181
82.6400 27.5311 0.3196
82.6600 27.5377 0.3111
82.6800 27.5444 0.3125
82.7000 27.5509 0.3187
82.7200 27.5576 0.3142
82.7400 27.5643 0.3110
82.7600 27.5710 0.3174
82.7800 27.5777 0.3060
82.8000 27.5844 0.3119
82.8200 27.5911 0.3123
82.8400 27.5977 0.3102
82.8600 27.6044 0.3107
82.8800 27.6110 0.3170
82.9000 27.6176 0.3083
82.9200 27.6243 0.3098
82.9400 27.6311 0.3184
82.9600 27.6378 0.3050
82.9800 27.6444 0.3049
83.0000 27.6511 0.3157
83.0200 27.6578 0.3006
83.0400 27.6644 0.3025
83.0600 27.6710 0.3103
83.0800 27.6777 0.3051
83.1000 27.6844 0.3001
83.1200 27.6910 0.3086
83.1400 27.6977 0.3048
83.1600 27.7044 0.3033
83.1800 27.7111 0.3072
83.2000 27.7178 0.2933
83.2200 27.7244 0.3046
83.2400 27.7310 0.3053
83.2600 27.7376 0.2996
83.2800 27.7443 0.2998
83.3000 27.7510 0.3021
83.3200 27.7577 0.2949
83.3400 27.7644 0.3008
83.3600 27.7711 0.2963
83.3800 27.7778 0.2969
83.4000 27.7844 0.2943
83.4200 27.7910 0.3017
83.4400 27.7976 0.2963
83.4600 27.8043 0.2931
83.4800 27.8110 0.2963
83.5000 27.8177 0.2962
83.5200 27.8244 0.2910
83.5400 27.8311 0.2949
83.5600 27.8377 0.2948
83.5800 27.8444 0.2898
83.6000 27.8510 0.2894
83.6200 27.8577 0.2984
83.6400 27.8643 0.2878
83.6600 27.8710 0.2905
83.6800 27.8777 0.2960
83.7000 27.8844 0.2848
83.7200 27.8911 0.2945
83.7400 27.8978 0.2925
83.7600 27.9044 0.2791
83.7800 27.9110 0.2894
83.8000 27.9177 0.3002
83.8200 27.9243 0.2758
83.8400 27.9311 0.2909
83.8600 27.9378 0.2936
83.8800 27.9445 0.2783
83.9000 27.9511 0.2899
83.9200 27.9578 0.2910
83.9400 27.9644 0.2730
83.9600 27.9710 0.2919
83.9800 27.9776 0.2930
84.0000 27.9843 0.2718
84.0200 27.9910 0.2921
84.0400 27.9977 0.2928
84.0600 28.0044 0.2649
84.0800 28.0111 0.2930
84.1000 28.0178 0.2904
84.1200 28.0244 0.2697
84.1400 28.0310 0.2908
84.1600 28.0376 0.2813
84.1800 28.0443 0.2734
84.2000 28.0510 0.2886
84.2200 28.0577 0.2848
84.2400 28.0644 0.2738
84.2600 28.0711 0.2868
84.2800 28.0778 0.2800
84.3000 28.0844 0.2741
84.3200 28.0910 0.2833
84.3400 28.0976 0.2846
84.3600 28.1043 0.2719
84.3800 28.1111 0.2866
84.4000 28.1178 0.2773
84.4200 28.1245 0.2777
84.4400 28.1311 0.2846
84.4600 28.1378 0.2783
84.4800 28.1444 0.2705
84.5000 28.1510 0.2857
84.5200 28.1577 0.2787
84.5400 28.1644 0.2705
84.5600 28.1711 0.2821
84.5800 28.1778 0.2760
84.6000 28.1844 0.2654
84.6200 28.1911 0.2870
84.6400 28.1978 0.2740
84.6600 28.2044 0.2657
84.6800 28.2110 0.2860
84.7000 28.2176 0.2714
84.7200 28.2243 0.2682
84.7400 28.2310 0.2848
84.7600 28.2377 0.2699
84.7800 28.2444 0.2661
84.8000 28.2511 0.2844
84.8200 28.2578 0.2674
84.8400 28.2644 0.2654
84.8600 28.2710 0.2840
84.8800 28.2776 0.2717
84.9000 28.2843 0.2649
84.9200 28.2910 0.2808
84.9400 28.2977 0.2682
84.9600 28.3044 0.2673
84.9800 28.3111 0.2771
85.0000 28.3177 0.2680
85.0200 28.3244 0.2643
85.0400 28.3310 0.2773
85.0600 28.3376 0.2668
85.0800 28.3443 0.2619
85.1000 28.3510 0.2780
85.1200 28.3578 0.2674
85.1400 28.3644 0.2596
85.1600 28.3711 0.2781
85.1800 28.3778 0.2653
85.2000 28.3845 0.2618
85.2200 28.3911 0.2697
85.2400 28.3977 0.2638
85.2600 28.4043 0.2655
85.2800 28.4110 0.2673
85.3000 28.4178 0.2637
85.3200 28.4244 0.2619
85.3400 28.4311 0.2726
85.3600 28.4378 0.2590
85.3800 28.4444 0.2648
85.4000 28.4510 0.2669
85.4200 28.4576 0.2593
85.4400 28.4643 0.2613
85.4600 28.4710 0.2645
85.4800 28.4777 0.2586
85.5000 28.4844 0.2614
85.5200 28.4910 0.2625
85.5400 28.4977 0.2647
85.5600 28.5044 0.2595
85.5800 28.5110 0.2574
85.6000 28.5176 0.2611
85.6200 28.5243 0.2573
85.6400 28.5310 0.2559
85.6600 28.5377 0.2615
85.6800 28.5444 0.2552
85.7000 28.5510 0.2557
85.7200 28.5577 0.2630
85.7400 28.5644 0.2467
85.7600 28.5711 0.2561
85.7800 28.5777 0.2629
85.8000 28.5843 0.2481
85.8200 28.5910 0.2532
85.8400 28.5977 0.2631
85.8600 28.6044 0.2430
85.8800 28.6111 0.2533
85.9000 28.6178 0.2631
85.9200 28.6245 0.2445
85.9400 28.6311 0.2505
85.9600 28.6377 0.2563
85.9800 28.6443 0.2430
86.0000 28.6510 0.2566
86.0200 28.6577 0.2527
86.0400 28.6644 0.2417
86.0600 28.6711 0.2509
86.0800 28.6778 0.2494
86.1000 28.6844 0.2399
86.1200 28.6910 0.2524
86.1400 28.6977 0.2478
86.1600 28.7043 0.2412
86.1800 28.7110 0.2490
86.2000 28.7177 0.2413
86.2200 28.7244 0.2423
86.2400 28.7311 0.2501
86.2600 28.7378 0.2404
86.2800 28.7444 0.2404
86.3000 28.7510 0.2486
86.3200 28.7576 0.2400
86.3400 28.7643 0.2439
86.3600 28.7710 0.2403
86.3800 28.7777 0.2367
86.4000 28.7844 0.2432
86.4200 28.7910 0.2415
86.4400 28.7977 0.2324
86.4600 28.8044 0.2441
86.4800 28.8110 0.2347
86.5000 28.8176 0.2376
86.5200 28.8243 0.2430
86.5400 28.8310 0.2333
86.5600 28.8377 0.2313
86.5800 28.8444 0.2396
86.6000 28.8511 0.2333
86.6200 28.8578 0.2381
86.6400 28.8645 0.2361
86.6600 28.8711 0.2280
86.6800 28.8777 0.2356
86.7000 28.8844 0.2369
86.7200 28.8911 0.2290
86.7400 28.8978 0.2333
86.7600 28.9044 0.2366
86.7800 28.9111 0.2276
86.8000 28.9178 0.2282
86.8200 28.9245 0.2350
86.8400 28.9311 0.2282
86.8600 28.9376 0.2285
86.8800 28.9443 0.2386
86.9000 28.9510 0.2229
86.9200 28.9577 0.2285
86.9400 28.9644 0.2305
86.9600 28.9710 0.2244
86.9800 28.9777 0.2250
87.0000 28.9844 0.2302
87.0200 28.9910 0.2188
87.0400 28.9976 0.2290
87.0600 29.0043 0.2311
87.0800 29.0110 0.2213
87.1000 29.0177 0.2230
87.1200 29.0244 0.2298
87.1400 29.0311 0.2190
87.1600 29.0377 0.2193
87.1800 29.0444 0.2276
87.2000 29.0511 0.2199
87.2200 29.0577 0.2155
87.2400 29.0644 0.2267
87.2600 29.0711 0.2215
87.2800 29.0778 0.2111
87.3000 29.0844 0.2266
87.3200 29.0911 0.2169
87.3400 29.0978 0.2145
87.3600 29.1045 0.2261
87.3800 29.1111 0.2174
87.4000 29.1177 0.2085
87.4200 29.1243 0.2300
87.4400 29.1310 0.2138
87.4600 29.1377 0.2089
87.4800 29.1445 0.2255
87.5000 29.1511 0.2101
87.5200 29.1578 0.2083
87.5400 29.1644 0.2256
87.5600 29.1710 0.2049
87.5800 29.1776 0.2133
87.6000 29.1843 0.2258
87.6200 29.1910 0.2039
87.6400 29.1977 0.2074
87.6600 29.2044 0.2242
87.6800 29.2110 0.2016
87.7000 29.2177 0.2088
87.7200 29.2244 0.2232
87.7400 29.2310 0.1992
87.7600 29.2377 0.2081
87.7800 29.2443 0.2202
87.8000 29.2510 0.1984
87.8200 29.2577 0.2021
87.8400 29.2644 0.2200
87.8600 29.2710 0.1974
87.8800 29.2777 0.2035
87.9000 29.2844 0.2102
87.9200 29.2911 0.1948
87.9400 29.2977 0.2019
87.9600 29.3043 0.2102
87.9800 29.3110 0.1938
88.0000 29.3177 0.2034
88.0200 29.3244 0.2080
88.0400 29.3311 0.1990
88.0600 29.3378 0.2006
88.0800 29.3444 0.2017
88.1000 29.3511 0.1976
88.1200 29.3577 0.2010
88.1400 29.3643 0.2036
88.1600 29.3710 0.1993
88.1800 29.3777 0.1927
88.2000 29.3844 0.2027
88.2200 29.3911 0.1982
88.2400 29.3978 0.1964
88.2600 29.4045 0.1999
88.2800 29.4111 0.1944
88.3000 29.4177 0.1925
88.3200 29.4243 0.2005
88.3400 29.4310 0.2012
88.3600 29.4377 0.1839
88.3800 29.4444 0.1973
88.4000 29.4511 0.1981
88.4200 29.4578 0.1887
88.4400 29.4644 0.1936
88.4600 29.4710 0.1959
88.4800 29.4776 0.1820
88.5000 29.4842 0.1930
88.5200 29.4909 0.1950
88.5400 29.4977 0.1896
88.5600 29.5044 0.1896
88.5800 29.5111 0.1911
88.6000 29.5177 0.1838
88.6200 29.5244 0.1910
88.6400 29.5311 0.1916
88.6600 29.5377 0.1843
88.6800 29.5443 0.1890
88.7000 29.5510 0.1914
88.7200 29.5577 0.1776
88.7400 29.5644 0.1895
88.7600 29.5711 0.1904
88.7800 29.5778 0.1788
88.8000 29.5845 0.1848
88.8200 29.5911 0.1849
88.8400 29.5977 0.1793
88.8600 29.6043 0.1898
88.8800 29.6110 0.1886
88.9000 29.6177 0.1718
88.9200 29.6244 0.1870
88.9400 29.6311 0.1894
88.9600 29.6378 0.1736
88.9800 29.6444 0.1849
89.0000 29.6510 0.1845
89.0200 29.6576 0.1685
89.0400 29.6643 0.1890
89.0600 29.6710 0.1831
89.0800 29.6777 0.1706
89.1000 29.6844 0.1860
89.1200 29.6911 0.1829
89.1400 29.6977 0.1670
89.1600 29.7044 0.1839
89.1800 29.7111 0.1814
89.2000 29.7177 0.1688
89.2200 29.7243 0.1820
89.2400 29.7310 0.1847
89.2600 29.7377 0.1662
89.2800 29.7444 0.1773
89.3000 29.7510 0.1824
89.3200 29.7577 0.1682
89.3400 29.7644 0.1819
89.3600 29.7711 0.1738
89.3800 29.7777 0.1647
89.4000 29.7843 0.1790
89.4200 29.7910 0.1771
89.4400 29.7977 0.1659
89.4600 29.8044 0.1796
89.4800 29.8111 0.1729
89.5000 29.8178 0.1688
89.5200 29.8245 0.1774
89.5400 29.8311 0.1721
89.5600 29.8377 0.1721
89.5800 29.8443 0.1814
89.6000 29.8510 0.1657
89.6200 29.8577 0.1718
89.6400 29.8644 0.1743
89.6600 29.8711 0.1695
89.6800 29.8778 0.1693
89.7000 29.8845 0.1684
89.7200 29.8911 0.1679
89.7400 29.8977 0.1752
89.7600 29.9043 0.1658
89.7800 29.9110 0.1721
89.8000 29.9177 0.1738
89.8200 29.9244 0.1640
89.8400 29.9310 0.1720
89.8600 29.9377 0.1719
89.8800 29.9444 0.1612
89.9000 29.9511 0.1710
89.9200 29.9577 0.1702
89.9400 29.9643 0.1570
89.9600 29.9710 0.1754
89.9800 29.9777 0.1673
90.0000 29.9844 0.1526
90.0200 29.9911 0.1683
90.0400 29.9977 0.1688
90.0600 30.0044 0.1533
90.0800 30.0111 0.1661
90.1000 30.0177 0.1655
90.1200 30.0243 0.1547
90.1400 30.0310 0.1647
90.1600 30.0377 0.1657
90.1800 30.0445 0.1518
90.2000 30.0511 0.1645
90.2200 30.0578 0.1613
90.2400 30.0645 0.1542
90.2600 30.0711 0.1589
90.2800 30.0777 0.1593
90.3000 30.0843 0.1604
90.3200 30.0910 0.1604
90.3400 30.0977 0.1586
90.3600 30.1044 0.1609
90.3800 30.1111 0.1514
90.4000 30.1178 0.1557
90.4200 30.1245 0.1625
90.4400 30.1311 0.1491
90.4600 30.1377 0.1558
90.4800 30.1443 0.1525
90.5000 30.1509 0.1505
90.5200 30.1576 0.1595
90.5400 30.1644 0.1560
90.5600 30.1710 0.1427
90.5800 30.1777 0.1591
90.6000 30.1844 0.1515
90.6200 30.1911 0.1445
90.6400 30.1977 0.1576
90.6600 30.2043 0.1526
90.6800 30.2109 0.1406
90.7000 30.2176 0.1534
90.7200 30.2244 0.1487
90.7400 30.2310 0.1480
90.7600 30.2377 0.1522
90.7800 30.2444 0.1397
90.8000 30.2510 0.1487
90.8200 30.2577 0.1553
90.8400 30.2643 0.1392
90.8600 30.2710 0.1442
90.8800 30.2777 0.1532
90.9000 30.2844 0.1418
90.9200 30.2911 0.1458
90.9400 30.2978 0.1424
90.9600 30.3045 0.1418
90.9800 30.3111 0.1479
91.0000 30.3178 0.1474
91.0200 30.3243 0.1371
91.0400 30.3310 0.1436
91.0600 30.3377 0.1397
91.0800 30.3444 0.1414
91.1000 30.3511 0.1425
91.1200 30.3578 0.1390
91.1400 30.3645 0.1367
91.1600 30.3711 0.1432
91.1800 30.3777 0.1332
91.2000 30.3843 0.1411
91.2200 30.3910 0.1434
91.2400 30.3977 0.1382
91.2600 30.4044 0.1344
91.2800 30.4110 0.1368
91.3000 30.4177 0.1363
91.3200 30.4243 0.1368
91.3400 30.4310 0.1320
91.3600 30.4377 0.1347
91.3800 30.4443 0.1370
91.4000 30.4510 0.1347
91.4200 30.4576 0.1345
91.4400 30.4644 0.1373
91.4600 30.4711 0.1344
91.4800 30.4777 0.1328
91.5000 30.4844 0.1347
91.5200 30.4911 0.1294
91.5400 30.4977 0.1347
91.5600 30.5043 0.1333
91.5800 30.5110 0.1297
91.6000 30.5177 0.1327
91.6200 30.5244 0.1279
91.6400 30.5311 0.1277
91.6600 30.5378 0.1394
91.6800 30.5445 0.1225
91.7000 30.5511 0.1287
91.7200 30.5577 0.1361
91.7400 30.5643 0.1295
91.7600 30.5710 0.1261
91.7800 30.5777 0.1337
91.8000 30.5844 0.1263
91.8200 30.5911 0.1267
91.8400 30.5978 0.1293
91.8600 30.6044 0.1242
91.8800 30.6111 0.1246
91.9000 30.6178 0.1272
91.9200 30.6244 0.1264
91.9400 30.6310 0.1248
91.9600 30.6377 0.1253
91.9800 30.6444 0.1221
92.0000 30.6511 0.1262
92.0200 30.6577 0.1262
92.0400 30.6644 0.1251
92.0600 30.6711 0.1192
92.0800 30.6777 0.1223
92.1000 30.6843 0.1226
92.1200 30.6909 0.1204
92.1400 30.6976 0.1220
92.1600 30.7044 0.1236
92.1800 30.7111 0.1161
92.2000 30.7177 0.1196
92.2200 30.7244 0.1223
92.2400 30.7311 0.1133
92.2600 30.7377 0.1182
92.2800 30.7443 0.1191
92.3000 30.7510 0.1115
92.3200 30.7577 0.1204
92.3400 30.7644 0.1196
92.3600 30.7711 0.1092
92.3800 30.7778 0.1157
92.4000 30.7844 0.1182
92.4200 30.7911 0.1123
92.4400 30.7978 0.1165
92.4600 30.8044 0.1180
92.4800 30.8110 0.1066
92.5000 30.8177 0.1203
92.5200 30.8244 0.1133
92.5400 30.8311 0.1087
92.5600 30.8378 0.1132
92.5800 30.8445 0.1175
92.6000 30.8511 0.1057
92.6200 30.8578 0.1137
92.6400 30.8644 0.1127
92.6600 30.8710 0.1135
92.6800 30.8777 0.1118
92.7000 30.8844 0.1107
92.7200 30.8911 0.1065
92.7400 30.8978 0.1138
92.7600 30.9044 0.1081
92.7800 30.9111 0.1103
92.8000 30.9177 0.1067
92.8200 30.9243 0.1071
92.8400 30.9310 0.1098
92.8600 30.9376 0.1064
92.8800 30.9443 0.1103
92.9000 30.9510 0.1134
92.9200 30.9577 0.1049
92.9400 30.9644 0.1086
92.9600 30.9711 0.1114
92.9800 30.9777 0.1021
93.0000 30.9844 0.1071
93.0200 30.9910 0.1082
93.0400 30.9977 0.0993
93.0600 31.0044 0.1072
93.0800 31.0111 0.1048
93.1000 31.0178 0.0949
93.1200 31.0245 0.1097
93.1400 31.0311 0.1022
93.1600 31.0378 0.0995
93.1800 31.0443 0.1073
93.2000 31.0510 0.1048
93.2200 31.0577 0.0948
93.2400 31.0644 0.1080
93.2600 31.0711 0.0996
93.2800 31.0778 0.0957
93.3000 31.0844 0.1050
93.3200 31.0911 0.0997
93.3400 31.0977 0.0938
93.3600 31.1043 0.1046
93.3800 31.1110 0.1008
93.4000 31.1177 0.0911
93.4200 31.1244 0.1054
93.4400 31.1311 0.0955
93.4600 31.1377 0.0891
93.4800 31.1444 0.1025
93.5000 31.1511 0.0967
93.5200 31.1578 0.0927
93.5400 31.1644 0.1018
93.5600 31.1710 0.0903
93.5800 31.1776 0.0898
93.6000 31.1843 0.1017
93.6200 31.1911 0.0903
93.6400 31.1978 0.0852
93.6600 31.2044 0.1037
93.6800 31.2111 0.0846
93.7000 31.2177 0.0886
93.7200 31.2243 0.0950
93.7400 31.2310 0.0884
93.7600 31.2377 0.0894
93.7800 31.2444 0.0951
93.8000 31.2511 0.0837
93.8200 31.2577 0.0898
93.8400 31.2644 0.0983
93.8600 31.2711 0.0857
93.8800 31.2778 0.0852
93.9000 31.2844 0.0941
93.9200 31.2910 0.0797
93.9400 31.2977 0.0874
93.9600 31.3044 0.0905
93.9800 31.3111 0.0792
94.0000 31.3178 0.0837
94.0200 31.3244 0.0895
94.0400 31.3311 0.0784
94.0600 31.3378 0.0770
94.0800 31.3444 0.0913
94.1000 31.3510 0.0790
94.1200 31.3576 0.0802
94.1400 31.3644 0.0862
94.1600 31.3711 0.0772
94.1800 31.3777 0.0783
94.2000 31.3844 0.0903
94.2200 31.3911 0.0747
94.2400 31.3977 0.0803
94.2600 31.4043 0.0848
94.2800 31.4109 0.0752
94.3000 31.4176 0.0788
94.3200 31.4243 0.0853
94.3400 31.4310 0.0719
94.3600 31.4377 0.0805
94.3800 31.4444 0.0811
94.4000 31.4511 0.0720
94.4200 31.4577 0.0754
94.4400 31.4643 0.0865
94.4600 31.4710 0.0661
94.4800 31.4776 0.0735
94.5000 31.4844 0.0861
94.5200 31.4911 0.0597
94.5400 31.4978 0.0772
94.5600 31.5044 0.0845
94.5800 31.5111 0.0625
94.6000 31.5178 0.0715
94.6200 31.5244 0.0813
94.6400 31.5310 0.0667
94.6600 31.5376 0.0758
94.6800 31.5444 0.0785
94.7000 31.5511 0.0632
94.7200 31.5578 0.0701
94.7400 31.5645 0.0809
94.7600 31.5711 0.0624
94.7800 31.5778 0.0777
94.8000 31.5844 0.0713
94.8200 31.5910 0.0633
94.8400 31.5976 0.0745
94.8600 31.6044 0.0698
94.8800 31.6111 0.0616
94.9000 31.6177 0.0683
94.9200 31.6244 0.0679
94.9400 31.6311 0.0624
94.9600 31.6377 0.0684
94.9800 31.6444 0.0650
95.0000 31.6510 0.0617
95.0200 31.6576 0.0667
95.0400 31.6643 0.0655
95.0600 31.6710 0.0630
95.0800 31.6777 0.0646
95.1000 31.6844 0.0657
95.1200 31.6911 0.0663
95.1400 31.6977 0.0563
95.1600 31.7044 0.0689
95.1800 31.7110 0.0635
95.2000 31.7177 0.0591
95.2200 31.7244 0.0599
95.2400 31.7311 0.0628
95.2600 31.7378 0.0562
95.2800 31.7445 0.0622
95.3000 31.7511 0.0633
95.3200 31.7578 0.0535
95.3400 31.7644 0.0624
95.3600 31.7710 0.0625
95.3800 31.7777 0.0510
95.4000 31.7844 0.0632
95.4200 31.7911 0.0598
95.4400 31.7978 0.0501
95.4600 31.8044 0.0569
95.4800 31.8111 0.0619
95.5000 31.8178 0.0453
95.5200 31.8244 0.0584
95.5400 31.8310 0.0599
95.5600 31.8376 0.0479
95.5800 31.8443 0.0597
95.6000 31.8510 0.0557
95.6200 31.8577 0.0453
95.6400 31.8644 0.0562
95.6600 31.8711 0.0585
95.6800 31.8778 0.0439
95.7000 31.8844 0.0557
95.7200 31.8910 0.0540
95.7400 31.8976 0.0484
95.7600 31.9043 0.0539
95.7800 31.9111 0.0491
95.8000 31.9177 0.0426
95.8200 31.9244 0.0547
95.8400 31.9311 0.0491
95.8600 31.9377 0.0491
95.8800 31.9444 0.0516
95.9000 31.9510 0.0475
95.9200 31.9576 0.0452
95.9400 31.9643 0.0493
95.9600 31.9711 0.0520
95.9800 31.9777 0.0444
96.0000 31.9844 0.0422
96.0200 31.9911 0.0508
96.0400 31.9978 0.0426
96.0600 32.0044 0.0454
96.0800 32.0110 0.0485
96.1000 32.0176 0.0404
96.1200 32.0243 0.0476
96.1400 32.0310 0.0437
96.1600 32.0377 0.0396
96.1800 32.0444 0.0403
96.2000 32.0511 0.0479
96.2200 32.0578 0.0412
96.2400 32.0644 0.0404
96.2600 32.0710 0.0480
96.2800 32.0776 0.0400
96.3000 32.0844 0.0355
96.3200 32.0911 0.0465
96.3400 32.0978 0.0400
96.3600 32.1044 0.0364
96.3800 32.1111 0.0445
96.4000 32.1178 0.0379
96.4200 32.1244 0.0345
96.4400 32.1310 0.0406
96.4600 32.1376 0.0346
96.4800 32.1443 0.0368
96.5000 32.1510 0.0388
96.5200 32.1577 0.0364
96.5400 32.1644 0.0358
96.5600 32.1710 0.0391
96.5800 32.1777 0.0322
96.6000 32.1844 0.0341
96.6200 32.1910 0.0398
96.6400 32.1976 0.0326
96.6600 32.2043 0.0340
96.6800 32.2110 0.0333
96.7000 32.2178 0.0346
96.7200 32.2245 0.0310
96.7400 32.2312 0.0392
96.7600 32.2378 0.0301
96.7800 32.2444 0.0285
96.8000 32.2510 0.0356
96.8200 32.2576 0.0367
96.8400 32.2644 0.0260
96.8600 32.2711 0.0341
96.8800 32.2778 0.0254
96.9000 32.2845 0.0253
96.9200 32.2911 0.0347
96.9400 32.2978 0.0311
96.9600 32.3044 0.0207
96.9800 32.3110 0.0348
97.0000 32.3176 0.0283
97.0200 32.3243 0.0200
97.0400 32.3310 0.0309
97.0600 32.3377 0.0266
97.0800 32.3444 0.0226
97.1000 32.3511 0.0287
97.1200 32.3578 0.0246
97.1400 32.3644 0.0253
97.1600 32.3710 0.0278
97.1800 32.3776 0.0219
97.2000 32.3843 0.0238
97.2200 32.3910 0.0241
97.2400 32.3977 0.0272
97.2600 32.4044 0.0203
97.2800 32.4111 0.0217
97.3000 32.4177 0.0226
97.3200 32.4244 0.0191
97.3400 32.4310 0.0203
97.3600 32.4376 0.0271
97.3800 32.4443 0.0181
97.4000 32.4511 0.0187
97.4200 32.4578 0.0229
97.4400 32.4645 0.0193
97.4600 32.4711 0.0199
97.4800 32.4778 0.0240
97.5000 32.4844 0.0092
97.5200 32.4911 0.0208
97.5400 32.4977 0.0234
97.5600 32.5044 0.0079
97.5800 32.5111 0.0204
97.6000 32.5178 0.0196
97.6200 32.5244 0.0062
97.6400 32.5311 0.0208
97.6600 32.5378 0.0193
97.6800 32.5444 0.0001
97.7000 32.5510 0.0222
97.7200 32.5576 0.0191
97.7400 32.5643 0.0059
97.7600 32.5710 0.0246
97.7800 32.5777 0.0203
97.8000 32.5844 -0.0020
97.8200 32.5911 0.0237
97.8400 32.5978 0.0138
97.8600 32.6044 0.0064
97.8800 32.6110 0.0217
97.9000 32.6176 0.0124
97.9200 32.6243 0.0058
97.9400 32.6310 0.0237
97.9600 32.6377 0.0064
97.9800 32.6444 0.0060
98.0000 32.6510 0.0212
98.0200 32.6577 0.0078
98.0400 32.6644 0.0069
98.0600 32.6710 0.0185
98.0800 32.6777 0.0010
98.1000 32.6843 0.0037
98.1200 32.6910 0.0200
98.1400 32.6977 0.0045
98.1600 32.7044 0.0010
98.1800 32.7111 0.0123
98.2000 32.7178 0.0041
98.2200 32.7245 0.0022
98.2400 32.7310 0.0123
98.2600 32.7377 0.0059
98.2800 32.7443 0.0042
98.3000 32.7510 0.0020
98.3200 32.7577 0.0033
98.3400 32.7644 0.0074
98.3600 32.7711 0.0063
98.3800 32.7778 0.0010
98.4000 32.7844 0.0040
98.4200 32.7910 0.0045
98.4400 32.7976 0.0055
98.4600 32.8043 0.0006
98.4800 32.8110 0.0028
98.5000 32.8178 0.0062
98.5200 32.8244 -0.0024
98.5400 32.8311 -0.0005
98.5600 32.8378 0.0106
98.5800 32.8444 -0.0038
98.6000 32.8510 -0.0017
98.6200 32.8576 0.0052
98.6400 32.8643 -0.0081
98.6600 32.8710 0.0028
98.6800 32.8777 0.0027
98.7000 32.8844 -0.0136
98.7200 32.8911 0.0011
98.7400 32.8978 0.0016
98.7600 32.9044 -0.0166
98.7800 32.9110 0.0066
98.8000 32.9176 0.0026
98.8200 32.9243 -0.0169
98.8400 32.9310 0.0038
98.8600 32.9378 -0.0039
98.8800 32.9445 -0.0180
98.9000 32.9511 0.0070
98.9200 32.9578 -0.0121
98.9400 32.9644 -0.0115
98.9600 32.9710 0.0026
98.9800 32.9777 -0.0063
99.0000 32.9843 -0.0158
99.0200 32.9911 0.0001
99.0400 32.9978 -0.0103
99.0600 33.0044 -0.0110
99.0800 33.0111 -0.0018
99.1000 33.0178 -0.0099
99.1200 33.0244 -0.0142
99.1400 33.0310 -0.0087
99.1600 33.0376 -0.0102
99.1800 33.0443 -0.0130
99.2000 33.0510 -0.0123
99.2200 33.0577 -0.0119
99.2400 33.0644 -0.0164
99.2600 33.0711 -0.0143
99.2800 33.0778 -0.0041
99.3000 33.0844 -0.0180
99.3200 33.0910 -0.0162
99.3400 33.0976 -0.0072
99.3600 33.1043 -0.0207
99.3800 33.1110 -0.0214
99.4000 33.1177 -0.0026
99.4200 33.1244 -0.0247
99.4400 33.1311 -0.0199
99.4600 33.1377 -0.0061
99.4800 33.1444 -0.0282
99.5000 33.1510 -0.0181
99.5200 33.1577 -0.0077
99.5400 33.1643 -0.0286
99.5600 33.1711 -0.0141
99.5800 33.1778 -0.0153
99.6000 33.1844 -0.0285
99.6200 33.1911 -0.0171
99.6400 33.1978 -0.0122
99.6600 33.2045 -0.0333
99.6800 33.2111 -0.0205
99.7000 33.2177 -0.0183
99.7200 33.2243 -0.0278
99.7400 33.2310 -0.0112
99.7600 33.2377 -0.0197
99.7800 33.2445 -0.0317
99.8000 33.2511 -0.0141
99.8200 33.2578 -0.0263
99.8400 33.2645 -0.0345
99.8600 33.2711 -0.0130
99.8800 33.2776 -0.0258
99.9000 33.2843 -0.0313
99.9200 33.2910 -0.0211
99.9400 33.2977 -0.0229
99.9600 33.3044 -0.0330
99.9800 33.3111 -0.0243
100.0000 33.3178 -0.0273
100.0200 33.3244 -0.0244
100.0400 33.3311 -0.0215
100.0600 33.3377 -0.0351
100.0800 33.3443 -0.0303
100.1000 33.3510 -0.0203
100.1200 33.3577 -0.0301
100.1400 33.3644 -0.0317
100.1600 33.3710 -0.0292
100.1800 33.3777 -0.0299
100.2000 33.3844 -0.0266
100.2200 33.3911 -0.0307
100.2400 33.3977 -0.0340
100.2600 33.4043 -0.0292
100.2800 33.4110 -0.0289
100.3000 33.4177 -0.0333
100.3200 33.4244 -0.0299
100.3400 33.4311 -0.0389
100.3600 33.4378 -0.0342
100.3800 33.4445 -0.0262
100.4000 33.4511 -0.0361
100.4200 33.4577 -0.0404
100.4400 33.4643 -0.0269
100.4600 33.4710 -0.0347
100.4800 33.4777 -0.0373
100.5000 33.4844 -0.0358
100.5200 33.4911 -0.0370
100.5400 33.4978 -0.0418
100.5600 33.5044 -0.0278
100.5800 33.5111 -0.0426
100.6000 33.5177 -0.0407
100.6200 33.5243 -0.0324
100.6400 33.5310 -0.0437
100.6600 33.5377 -0.0417
100.6800 33.5444 -0.0334
100.7000 33.5511 -0.0452
100.7200 33.5578 -0.0440
100.7400 33.5644 -0.0398
100.7600 33.5711 -0.0507
100.7800 33.5776 -0.0375
100.8000 33.5843 -0.0368
100.8200 33.5909 -0.0539
100.8400 33.5977 -0.0427
100.8600 33.6044 -0.0371
100.8800 33.6111 -0.0532
100.9000 33.6177 -0.0402
100.9200 33.6244 -0.0492
100.9400 33.6310 -0.0501
100.9600 33.6376 -0.0396
100.9800 33.6443 -0.0466
101.0000 33.6510 -0.0535
101.0200 33.6577 -0.0333
101.0400 33.6645 -0.0554
101.0600 33.6711 -0.0554
101.0800 33.6778 -0.0383
101.1000 33.6845 -0.0548
101.1200 33.6911 -0.0505
101.1400 33.6977 -0.0404
101.1600 33.7044 -0.0539
101.1800 33.7111 -0.0481
101.2000 33.7177 -0.0468
101.2200 33.7244 -0.0572
101.2400 33.7311 -0.0526
101.2600 33.7378 -0.0473
101.2800 33.7445 -0.0545
101.3000 33.7511 -0.0495
101.3200 33.7577 -0.0533
101.3400 33.7643 -0.0514
101.3600 33.7710 -0.0474
101.3800 33.7777 -0.0611
101.4000 33.7844 -0.0496
101.4200 33.7911 -0.0512
101.4400 33.7977 -0.0604
101.4600 33.8044 -0.0527
101.4800 33.8110 -0.0560
101.5000 33.8176 -0.0607
101.5200 33.8243 -0.0478
101.5400 33.8310 -0.0624
101.5600 33.8377 -0.0609
101.5800 33.8444 -0.0493
101.6000 33.8511 -0.0607
101.6200 33.8577 -0.0630
101.6400 33.8644 -0.0522
101.6600 33.8711 -0.0678
101.6800 33.8777 -0.0577
101.7000 33.8843 -0.0524
101.7200 33.8910 -0.0684
101.7400 33.8977 -0.0592
101.7600 33.9044 -0.0581
101.7800 33.9111 -0.0738
101.8000 33.9178 -0.0583
101.8200 33.9245 -0.0566
101.8400 33.9311 -0.0801
101.8600 33.9377 -0.0570
101.8800 33.9443 -0.0553
101.9000 33.9510 -0.0735
101.9200 33.9577 -0.0571
101.9400 33.9644 -0.0618
101.9600 33.9711 -0.0713
101.9800 33.9778 -0.0597
102.0000 33.9844 -0.0716
102.0200 33.9911 -0.0728
102.0400 33.9977 -0.0615
102.0600 34.0043 -0.0615
102.0800 34.0110 -0.0766
102.1000 34.0177 -0.0664
102.1200 34.0244 -0.0648
102.1400 34.0311 -0.0724
102.1600 34.0377 -0.0723
102.1800 34.0444 -0.0678
102.2000 34.0510 -0.0752
102.2200 34.0577 -0.0730
102.2400 34.0643 -0.0676
102.2600 34.0710 -0.0775
102.2800 34.0777 -0.0743
102.3000 34.0844 -0.0646
102.3200 34.0911 -0.0836
102.3400 34.0977 -0.0788
102.3600 34.1044 -0.0598
102.3800 34.1111 -0.0814
102.4000 34.1177 -0.0850
102.4200 34.1243 -0.0618
102.4400 34.1310 -0.0831
102.4600 34.1377 -0.0841
102.4800 34.1444 -0.0583
102.5000 34.1511 -0.0891
102.5200 34.1578 -0.0795
102.5400 34.1645 -0.0624
102.5600 34.1711 -0.0937
102.5800 34.1777 -0.0792
102.6000 34.1843 -0.0641
102.6200 34.1910 -0.0988
102.6400 34.1977 -0.0782
102.6600 34.2044 -0.0718
102.6800 34.2111 -0.0945
102.7000 34.2178 -0.0748
102.7200 34.2245 -0.0732
102.7400 34.2311 -0.0985
102.7600 34.2377 -0.0751
102.7800 34.2443 -0.0776
102.8000 34.2510 -0.0955
102.8200 34.2577 -0.0758
102.8400 34.2644 -0.0800
102.8600 34.2711 -0.0907
102.8800 34.2778 -0.0793
102.9000 34.2845 -0.0842
102.9200 34.2911 -0.0955
102.9400 34.2977 -0.0751
102.9600 34.3042 -0.0906
102.9800 34.3109 -0.0910
103.0000 34.3176 -0.0773
103.0200 34.3244 -0.0911
103.0400 34.3311 -0.0944
103.0600 34.3377 -0.0800
103.0800 34.3444 -0.0943
103.1000 34.3511 -0.0883
103.1200 34.3577 -0.0881
103.1400 34.3643 -0.0934
103.1600 34.3710 -0.0938
103.1800 34.3777 -0.0836
103.2000 34.3844 -0.0960
103.2200 34.3911 -0.0884
103.2400 34.3978 -0.0859
103.2600 34.4045 -0.1004
103.2800 34.4111 -0.0883
103.3000 34.4178 -0.0854
103.3200 34.4244 -0.0968
103.3400 34.4310 -0.0888
103.3600 34.4377 -0.0900
103.3800 34.4444 -0.1001
103.4000 34.4511 -0.0852
103.4200 34.4578 -0.0973
103.4400 34.4644 -0.0966
103.4600 34.4711 -0.0933
103.4800 34.4777 -0.0986
103.5000 34.4843 -0.0955
103.5200 34.4910 -0.0874
103.5400 34.4977 -0.0975
103.5600 34.5044 -0.0990
103.5800 34.5111 -0.0937
103.6000 34.5177 -0.1005
103.6200 34.5244 -0.0939
103.6400 34.5311 -0.0937
103.6600 34.5377 -0.1051
103.6800 34.5443 -0.0922
103.7000 34.5510 -0.1004
103.7200 34.5577 -0.1022
103.7400 34.5644 -0.0961
103.7600 34.5710 -0.1030
103.7800 34.5777 -0.1015
103.8000 34.5844 -0.0932
103.8200 34.5911 -0.1081
103.8400 34.5977 -0.1048
103.8600 34.6043 -0.0999
103.8800 34.6110 -0.1084
103.9000 34.6177 -0.1040
103.9200 34.6244 -0.0993
103.9400 34.6311 -0.1039
103.9600 34.6377 -0.1044
103.9800 34.6444 -0.1061
104.0000 34.6511 -0.1041
104.0200 34.6577 -0.1016
104.0400 34.6643 -0.1082
104.0600 34.6710 -0.1064
104.0800 34.6777 -0.1022
104.1000 34.6844 -0.1052
104.1200 34.6911 -0.1045
104.1400 34.6978 -0.1052
104.1600 34.7045 -0.1156
104.1800 34.7111 -0.0973
104.2000 34.7177 -0.1067
104.2200 34.7243 -0.1151
104.2400 34.7310 -0.0956
104.2600 34.7377 -0.1081
104.2800 34.7444 -0.1191
104.3000 34.7510 -0.0973
104.3200 34.7577 -0.1075
104.3400 34.7644 -0.1183
104.3600 34.7711 -0.0990
104.3800 34.7777 -0.1148
104.4000 34.7843 -0.1143
104.4200 34.7909 -0.0979
104.4400 34.7976 -0.1163
104.4600 34.8044 -0.1173
104.4800 34.8111 -0.0975
104.5000 34.8177 -0.1218
104.5200 34.8244 -0.1164
104.5400 34.8311 -0.1035
104.5600 34.8377 -0.1179
104.5800 34.8443 -0.1156
104.6000 34.8510 -0.1062
104.6200 34.8577 -0.1257
104.6400 34.8644 -0.1066
104.6600 34.8711 -0.1170
104.6800 34.8778 -0.1236
104.7000 34.8844 -0.1089
104.7200 34.8911 -0.1185
104.7400 34.8977 -0.1246
104.7600 34.9043 -0.1140
104.7800 34.9110 -0.1232
104.8000 34.9177 -0.1193
104.8200 34.9244 -0.1131
104.8400 34.9311 -0.1234
104.8600 34.9378 -0.1207
104.8800 34.9445 -0.1170
104.9000 34.9511 -0.1289
104.9200 34.9577 -0.1150
104.9400 34.9643 -0.1165
104.9600 34.9709 -0.1263
104.9800 34.9776 -0.1137
105.0000 34.9844 -0.1232
105.0200 34.9911 -0.1243
105.0400 34.9978 -0.1183
105.0600 35.0044 -0.1227
105.0800 35.0111 -0.1282
105.1000 35.0177 -0.1164
105.1200 35.0243 -0.1252
105.1400 35.0309 -0.1270
105.1600 35.0376 -0.1212
105.1800 35.0444 -0.1282
105.2000 35.0511 -0.1263
105.2200 35.0577 -0.1240
105.2400 35.0644 -0.1321
105.2600 35.0711 -0.1200
105.2800 35.0777 -0.1324
105.3000 35.0843 -0.1305
105.3200 35.0910 -0.1245
105.3400 35.0977 -0.1274
105.3600 35.1044 -0.1314
105.3800 35.1111 -0.1297
105.4000 35.1177 -0.1300
105.4200 35.1245 -0.1345
105.4400 35.1312 -0.1293
105.4600 35.1378 -0.1323
105.4800 35.1444 -0.1358
105.5000 35.1510 -0.1295
105.5200 35.1577 -0.1320
105.5400 35.1644 -0.1331
105.5600 35.1711 -0.1327
105.5800 35.1778 -0.1359
105.6000 35.1845 -0.1390
105.6200 35.1911 -0.1326
105.6400 35.1977 -0.1317
105.6600 35.2043 -0.1448
105.6800 35.2109 -0.1285
105.7000 35.2176 -0.1331
105.7200 35.2244 -0.1456
105.7400 35.2311 -0.1348
105.7600 35.2377 -0.1342
105.7800 35.2444 -0.1403
105.8000 35.2511 -0.1425
105.8200 35.2577 -0.1392
105.8400 35.2643 -0.1366
105.8600 35.2709 -0.1424
105.8800 35.2776 -0.1445
105.9000 35.2844 -0.1424
105.9200 35.2911 -0.1401
105.9400 35.2977 -0.1462
105.9600 35.3044 -0.1389
105.9800 35.3111 -0.1416
106.0000 35.3178 -0.1498
106.0200 35.3244 -0.1386
106.0400 35.3310 -0.1470
106.0600 35.3377 -0.1461
106.0800 35.3444 -0.1421
106.1000 35.3511 -0.1470
106.1200 35.3578 -0.1530
106.1400 35.3645 -0.1413
106.1600 35.3711 -0.1540
106.1800 35.3777 -0.1496
106.2000 35.3843 -0.1435
106.2200 35.3910 -0.1492
106.2400 35.3977 -0.1532
106.2600 35.4044 -0.1463
106.2800 35.4111 -0.1502
106.3000 35.4177 -0.1489
106.3200 35.4244 -0.1515
106.3400 35.4311 -0.1578
106.3600 35.4378 -0.1537
106.3800 35.4444 -0.1524
106.4000 35.4510 -0.1532
106.4200 35.4577 -0.1548
106.4400 35.4644 -0.1522
106.4600 35.4711 -0.1571
106.4800 35.4777 -0.1540
106.5000 35.4844 -0.1541
106.5200 35.4911 -0.1610
106.5400 35.4977 -0.1591
106.5600 35.5043 -0.1553
106.5800 35.5109 -0.1581
106.6000 35.5176 -0.1547
106.6200 35.5243 -0.1581
106.6400 35.5310 -0.1607
106.6600 35.5377 -0.1665
106.6800 35.5444 -0.1563
106.7000 35.5511 -0.1638
106.7200 35.5577 -0.1636
106.7400 35.5643 -0.1569
106.7600 35.5710 -0.1664
106.7800 35.5777 -0.1610
106.8000 35.5844 -0.1569
106.8200 35.5911 -0.1673
106.8400 35.5978 -0.1641
106.8600 35.6044 -0.1622
106.8800 35.6111 -0.1656
106.9000 35.6178 -0.1646
106.9200 35.6244 -0.1595
106.9400 35.6310 -0.1704
106.9600 35.6376 -0.1656
106.9800 35.6444 -0.1618
107.0000 35.6511 -0.1716
107.0200 35.6578 -0.1613
107.0400 35.6645 -0.1658
107.0600 35.6711 -0.1744
107.0800 35.6778 -0.1621
107.1000 35.6843 -0.1658
107.1200 35.6909 -0.1718
107.1400 35.6976 -0.1594
107.1600 35.7044 -0.1689
107.1800 35.7111 -0.1742
107.2000 35.7178 -0.1673
107.2200 35.7244 -0.1707
107.2400 35.7311 -0.1718
107.2600 35.7377 -0.1641
107.2800 35.7443 -0.1742
107.3000 35.7510 -0.1689
107.3200 35.7576 -0.1680
107.3400 35.7643 -0.1760
107.3600 35.7710 -0.1722
107.3800 35.7777 -0.1710
107.4000 35.7844 -0.1786
107.4200 35.7911 -0.1706
107.4400 35.7977 -0.1703
107.4600 35.8044 -0.1740
107.4800 35.8110 -0.1778
107.5000 35.8177 -0.1724
107.5200 35.8244 -0.1744
107.5400 35.8311 -0.1733
107.5600 35.8378 -0.1681
107.5800 35.8444 -0.1774
107.6000 35.8511 -0.1774
107.6200 35.8578 -0.1760
107.6400 35.8644 -0.1701
107.6600 35.8710 -0.1770
107.6800 35.8777 -0.1746
107.7000 35.8844 -0.1764
107.7200 35.8911 -0.1819
107.7400 35.8978 -0.1863
107.7600 35.9044 -0.1737
107.7800 35.9111 -0.1772
107.8000 35.9177 -0.1854
107.8200 35.9244 -0.1828
107.8400 35.9310 -0.1747
107.8600 35.9377 -0.1799
107.8800 35.9444 -0.1777
107.9000 35.9510 -0.1828
107.9200 35.9577 -0.1809
107.9400 35.9644 -0.1803
107.9600 35.9711 -0.1818
107.9800 35.9777 -0.1830
108.0000 35.9844 -0.1840
108.0200 35.9909 -0.1772
108.0400 35.9976 -0.1852
108.0600 36.0043 -0.1835
108.0800 36.0111 -0.1854
108.1000 36.0178 -0.1900
108.1200 36.0244 -0.1871
108.1400 36.0311 -0.1816
108.1600 36.0377 -0.1882
108.1800 36.0444 -0.1856
108.2000 36.0510 -0.1822
108.2200 36.0577 -0.1919
108.2400 36.0644 -0.1877
108.2600 36.0711 -0.1849
108.2800 36.0778 -0.1923
108.3000 36.0844 -0.1829
108.3200 36.0911 -0.1937
108.3400 36.0978 -0.1950
108.3600 36.1044 -0.1861
108.3800 36.1110 -0.1945
108.4000 36.1177 -0.1961
108.4200 36.1244 -0.1858
108.4400 36.1311 -0.1951
108.4600 36.1378 -0.2000
108.4800 36.1444 -0.1910
108.5000 36.1511 -0.1927
108.5200 36.1578 -0.1982
108.5400 36.1644 -0.1933
108.5600 36.1710 -0.1933
108.5800 36.1776 -0.1996
108.6000 36.1843 -0.1918
108.6200 36.1911 -0.2015
108.6400 36.1978 -0.1974
108.6600 36.2044 -0.1931
108.6800 36.2111 -0.2070
108.7000 36.2177 -0.1997
108.7200 36.2243 -0.1922
108.7400 36.2309 -0.2063
108.7600 36.2376 -0.1963
108.7800 36.2443 -0.1969
108.8000 36.2510 -0.2063
108.8200 36.2577 -0.1995
108.8400 36.2644 -0.1950
108.8600 36.2711 -0.2129
108.8800 36.2777 -0.1969
108.9000 36.2844 -0.2043
108.9200 36.2910 -0.2089
108.9400 36.2977 -0.1958
108.9600 36.3044 -0.2113
108.9800 36.3111 -0.2091
109.0000 36.3178 -0.1969
109.0200 36.3245 -0.2128
109.0400 36.3312 -0.2079
109.0600 36.3378 -0.2031
109.0800 36.3444 -0.2170
109.1000 36.3510 -0.2115
109.1200 36.3576 -0.2058
109.1400 36.3643 -0.2093
109.1600 36.3711 -0.2114
109.1800 36.3778 -0.2077
109.2000 36.3844 -0.2181
109.2200 36.3911 -0.2071
109.2400 36.3978 -0.2119
109.2600 36.4044 -0.2184
109.2800 36.4110 -0.2103
109.3000 36.4176 -0.2097
109.3200 36.4243 -0.2215
109.3400 36.4311 -0.2100
109.3600 36.4377 -0.2148
109.3800 36.4444 -0.2165
109.4000 36.4511 -0.2116
109.4200 36.4577 -0.2156
109.4400 36.4644 -0.2244
109.4600 36.4710 -0.2116
109.4800 36.4776 -0.2203
109.5000 36.4843 -0.2192
109.5200 36.4910 -0.2138
109.5400 36.4977 -0.2232
109.5600 36.5044 -0.2197
109.5800 36.5111 -0.2198
109.6000 36.5177 -0.2202
109.6200 36.5244 -0.2226
109.6400 36.5310 -0.2172
109.6600 36.5376 -0.2204
109.6800 36.5443 -0.2260
109.7000 36.5511 -0.2177
109.7200 36.5578 -0.2221
109.7400 36.5644 -0.2265
109.7600 36.5711 -0.2192
109.7800 36.5778 -0.2244
109.8000 36.5844 -0.2285
109.8200 36.5910 -0.2222
109.8400 36.5976 -0.2167
109.8600 36.6044 -0.2285
109.8800 36.6111 -0.2200
109.9000 36.6178 -0.2287
109.9200 36.6244 -0.2258
109.9400 36.6311 -0.2210
109.9600 36.6378 -0.2338
109.9800 36.6444 -0.2284
110.0000 36.6510 -0.2214
110.0200 36.6576 -0.2293
110.0400 36.6643 -0.2317
110.0600 36.6710 -0.2279
110.0800 36.6777 -0.2306
110.1000 36.6844 -0.2330
110.1200 36.6910 -0.2254
110.1400 36.6977 -0.2305
110.1600 36.7044 -0.2272
110.1800 36.7109 -0.2305
110.2000 36.7176 -0.2356
110.2200 36.7243 -0.2230
110.2400 36.7310 -0.2375
110.2600 36.7377 -0.2300
110.2800 36.7444 -0.2323
110.3000 36.7511 -0.2344
110.3200 36.7577 -0.2318
110.3400 36.7644 -0.2327
110.3600 36.7710 -0.2332
110.3800 36.7777 -0.2323
110.4000 36.7844 -0.2351
110.4200 36.7911 -0.2355
110.4400 36.7977 -0.2348
110.4600 36.8044 -0.2319
110.4800 36.8111 -0.2423
110.5000 36.8178 -0.2287
110.5200 36.8244 -0.2373
110.5400 36.8310 -0.2389
110.5600 36.8377 -0.2342
110.5800 36.8443 -0.2370
110.6000 36.8510 -0.2376
110.6200 36.8577 -0.2370
110.6400 36.8644 -0.2394
110.6600 36.8711 -0.2367
110.6800 36.8778 -0.2412
110.7000 36.8844 -0.2421
110.7200 36.8910 -0.2344
110.7400 36.8976 -0.2358
110.7600 36.9044 -0.2428
110.7800 36.9111 -0.2381
110.8000 36.9178 -0.2400
110.8200 36.9244 -0.2488
110.8400 36.9311 -0.2344
110.8600 36.9378 -0.2436
110.8800 36.9444 -0.2477
110.9000 36.9510 -0.2371
110.9200 36.9576 -0.2409
110.9400 36.9643 -0.2486
110.9600 36.9710 -0.2334
110.9800 36.9777 -0.2464
111.0000 36.9843 -0.2495
111.0200 36.9910 -0.2358
111.0400 36.9977 -0.2505
111.0600 37.0044 -0.2502
111.0800 37.0110 -0.2430
111.1000 37.0176 -0.2470
111.1200 37.0243 -0.2427
111.1400 37.0310 -0.2454
111.1600 37.0378 -0.2490
111.1800 37.0445 -0.2488
111.2000 37.0511 -0.2481
111.2200 37.0578 -0.2468
111.2400 37.0645 -0.2492
111.2600 37.0710 -0.2445
111.2800 37.0777 -0.2479
111.3000 37.0843 -0.2477
111.3200 37.0911 -0.2504
111.3400 37.0978 -0.2472
111.3600 37.1045 -0.2580
111.3800 37.1111 -0.2484
111.4000 37.1178 -0.2485
111.4200 37.1244 -0.2592
111.4400 37.1310 -0.2496
111.4600 37.1377 -0.2453
111.4800 37.1443 -0.2652
111.5000 37.1510 -0.2471
111.5200 37.1577 -0.2491
111.5400 37.1644 -0.2643
111.5600 37.1711 -0.2489
111.5800 37.1778 -0.2549
111.6000 37.1844 -0.2657
111.6200 37.1910 -0.2505
111.6400 37.1976 -0.2564
111.6600 37.2043 -0.2604
111.6800 37.2110 -0.2479
111.7000 37.2177 -0.2666
111.7200 37.2244 -0.2598
111.7400 37.2311 -0.2501
111.7600 37.2378 -0.2658
111.7800 37.2444 -0.2613
111.8000 37.2510 -0.2524
111.8200 37.2576 -0.2654
111.8400 37.2643 -0.2563
111.8600 37.2711 -0.2570
111.8800 37.2778 -0.2673
111.9000 37.2844 -0.2601
111.9200 37.2911 -0.2591
111.9400 37.2978 -0.2683
111.9600 37.3044 -0.2573
111.9800 37.3111 -0.2685
112.0000 37.3177 -0.2597
112.0200 37.3244 -0.2630
112.0400 37.3311 -0.2667
112.0600 37.3377 -0.2656
112.0800 37.3444 -0.2651
112.1000 37.3511 -0.2681
112.1200 37.3578 -0.2656
112.1400 37.3645 -0.2702
112.1600 37.3710 -0.2640
112.1800 37.3776 -0.2620
112.2000 37.3843 -0.2719
112.2200 37.3910 -0.2655
112.2400 37.3977 -0.2649
112.2600 37.4044 -0.2739
112.2800 37.4111 -0.2639
112.3000 37.4178 -0.2679
112.3200 37.4244 -0.2774
112.3400 37.4310 -0.2612
112.3600 37.4376 -0.2672
112.3800 37.4443 -0.2700
112.4000 37.4510 -0.2655
112.4200 37.4577 -0.2741
112.4400 37.4643 -0.2735
112.4600 37.4710 -0.2616
112.4800 37.4777 -0.2740
112.5000 37.4844 -0.2752
112.5200 37.4911 -0.2675
112.5400 37.4977 -0.2811
112.5600 37.5043 -0.2775
112.5800 37.5110 -0.2663
112.6000 37.5177 -0.2846
112.6200 37.5244 -0.2712
112.6400 37.5311 -0.2675
112.6600 37.5378 -0.2862
112.6800 37.5445 -0.2754
112.7000 37.5510 -0.2694
112.7200 37.5577 -0.2842
112.7400 37.5643 -0.2765
112.7600 37.5710 -0.2725
112.7800 37.5777 -0.2840
112.8000 37.5844 -0.2719
112.8200 37.5911 -0.2786
112.8400 37.5978 -0.2824
112.8600 37.6044 -0.2750
112.8800 37.6110 -0.2779
112.9000 37.6177 -0.2830
112.9200 37.6243 -0.2735
112.9400 37.6310 -0.2849
112.9600 37.6377 -0.2849
112.9800 37.6444 -0.2799
113.0000 37.6511 -0.2816
113.0200 37.6578 -0.2864
113.0400 37.6644 -0.2793
113.0600 37.6710 -0.2884
113.0800 37.6776 -0.2865
113.1000 37.6843 -0.2800
113.1200 37.6909 -0.2890
113.1400 37.6977 -0.2854
113.1600 37.7044 -0.2816
113.1800 37.7111 -0.2923
113.2000 37.7178 -0.2871
113.2200 37.7244 -0.2854
113.2400 37.7310 -0.2929
113.2600 37.7376 -0.2914
113.2800 37.7443 -0.2871
113.3000 37.7510 -0.2910
113.3200 37.7577 -0.2870
113.3400 37.7645 -0.2895
113.3600 37.7711 -0.2985
113.3800 37.7778 -0.2889
113.4000 37.7845 -0.2875
113.4200 37.7911 -0.2974
113.4400 37.7977 -0.2977
113.4600 37.8044 -0.2865
113.4800 37.8111 -0.2986
113.5000 37.8177 -0.2950
113.5200 37.8244 -0.2912
113.5400 37.8311 -0.2996
113.5600 37.8378 -0.2989
113.5800 37.8444 -0.2941
113.6000 37.8510 -0.3000
113.6200 37.8576 -0.2977
113.6400 37.8643 -0.2947
113.6600 37.8710 -0.3002
113.6800 37.8777 -0.3006
113.7000 37.8844 -0.2961
113.7200 37.8911 -0.3040
113.7400 37.8978 -0.2963
113.7600 37.9044 -0.2999
113.7800 37.9110 -0.3047
113.8000 37.9176 -0.2960
113.8200 37.9243 -0.2996
113.8400 37.9310 -0.3092
113.8600 37.9377 -0.2992
113.8800 37.9444 -0.2995
113.9000 37.9511 -0.3128
113.9200 37.9577 -0.2983
113.9400 37.9644 -0.3046
113.9600 37.9710 -0.3117
113.9800 37.9777 -0.3041
114.0000 37.9843 -0.3033
114.0200 37.9910 -0.3138
114.0400 37.9977 -0.3051
114.0600 38.0044 -0.3091
114.0800 38.0111 -0.2815
114.1000 38.0178 -0.2187
114.1200 38.0244 -0.1921
114.1400 38.0311 -0.1841
114.1600 38.0377 -0.1754
114.1800 38.0444 -0.1821
114.2000 38.0510 -0.1795
114.2200 38.0577 -0.1778
114.2400 38.0644 -0.1809
114.2600 38.0711 -0.1767
114.2800 38.0778 -0.1794
114.3000 38.0845 -0.1800
114.3200 38.0911 -0.1787
114.3400 38.0977 -0.1769
114.3600 38.1043 -0.1792
114.3800 38.1110 -0.1753
114.4000 38.1177 -0.1789
114.4200 38.1244 -0.1775
114.4400 38.1310 -0.1696
114.4600 38.1377 -0.1824
114.4800 38.1444 -0.1784
114.5000 38.1510 -0.1637
114.5200 38.1576 -0.1839
114.5400 38.1643 -0.1754
114.5600 38.1710 -0.1672
114.5800 38.1777 -0.1791
114.6000 38.1844 -0.1737
114.6200 38.1910 -0.1634
114.6400 38.1977 -0.1774
114.6600 38.2044 -0.1720
114.6800 38.2111 -0.1699
114.7000 38.2177 -0.1756
114.7200 38.2243 -0.1678
114.7400 38.2310 -0.1639
114.7600 38.2377 -0.1782
114.7800 38.2444 -0.1638
114.8000 38.2511 -0.1645
114.8200 38.2578 -0.1768
114.8400 38.2645 -0.1645
114.8600 38.2711 -0.1680
114.8800 38.2777 -0.1718
114.9000 38.2843 -0.1633
114.9200 38.2910 -0.1729
114.9400 38.2977 -0.1698
114.9600 38.3044 -0.1586
114.9800 38.3111 -0.1744
115.0000 38.3178 -0.1663
115.0200 38.3244 -0.1630
115.0400 38.3311 -0.1768
115.0600 38.3377 -0.1616
115.0800 38.3443 -0.1633
115.1000 38.3510 -0.1820
115.1200 38.3577 -0.1534
115.1400 38.3644 -0.1663
115.1600 38.3711 -0.1781
115.1800 38.3778 -0.1583
115.2000 38.3844 -0.1740
115.2200 38.3911 -0.1804
115.2400 38.3976 -0.1546
115.2600 38.4042 -0.1766
115.2800 38.4109 -0.1800
115.3000 38.4177 -0.1582
115.3200 38.4243 -0.1790
115.3400 38.4310 -0.1742
115.3600 38.4377 -0.1587
115.3800 38.4444 -0.1800
115.4000 38.4510 -0.1687
115.4200 38.4576 -0.1637
115.4400 38.4643 -0.1845
115.4600 38.4710 -0.1693
115.4800 38.4777 -0.1702
115.5000 38.4844 -0.1778
115.5200 38.4911 -0.1708
115.5400 38.4978 -0.1721
115.5600 38.5045 -0.1794
115.5800 38.5111 -0.1719
115.6000 38.5177 -0.1742
115.6200 38.5244 -0.1748
115.6400 38.5310 -0.1765
115.6600 38.5377 -0.1776
115.6800 38.5444 -0.1785
115.7000 38.5511 -0.1723
115.7200 38.5578 -0.1772
115.7400 38.5645 -0.1764
115.7600 38.5711 -0.1859
115.7800 38.5777 -0.1754
115.8000 38.5843 -0.1740
115.8200 38.5910 -0.1827
115.8400 38.5977 -0.1799
115.8600 38.6044 -0.1754
115.8800 38.6111 -0.1849
115.9000 38.6177 -0.1794
115.9200 38.6244 -0.1773
115.9400 38.6310 -0.1883
115.9600 38.6377 -0.1786
115.9800 38.6443 -0.1812
116.0000 38.6510 -0.1860
116.0200 38.6577 -0.1756
116.0400 38.6644 -0.1864
116.0600 38.6711 -0.1874
116.0800 38.6777 -0.1723
116.1000 38.6844 -0.1923
116.1200 38.6911 -0.1823
116.1400 38.6977 -0.1804
116.1600 38.7044 -0.1897
116.1800 38.7110 -0.1841
116.2000 38.7177 -0.1810
116.2200 38.7244 -0.1935
116.2400 38.7311 -0.1778
116.2600 38.7378 -0.1889
116.2800 38.7445 -0.1946
116.3000 38.7511 -0.1807
116.3200 38.7577 -0.1852
116.3400 38.7643 -0.1934
116.3600 38.7710 -0.1802
116.3800 38.7777 -0.1922
116.4000 38.7844 -0.1903
116.4200 38.7911 -0.1825
116.4400 38.7978 -0.1967
116.4600 38.8044 -0.1884
116.4800 38.8111 -0.1871
116.5000 38.8177 -0.1959
116.5200 38.8243 -0.1882
116.5400 38.8310 -0.1866
116.5600 38.8377 -0.1983
116.5800 38.8444 -0.1920
116.6000 38.8511 -0.1893
116.6200 38.8577 -0.1926
116.6400 38.8644 -0.1939
116.6600 38.8711 -0.1920
116.6800 38.8777 -0.1939
116.7000 38.8843 -0.1911
116.7200 38.8910 -0.1920
116.7400 38.8977 -0.1946
116.7600 38.9044 -0.1999
116.7800 38.9110 -0.1922
116.8000 38.9177 -0.1962
116.8200 38.9244 -0.1964
116.8400 38.9311 -0.1992
116.8600 38.9377 -0.1931
116.8800 38.9443 -0.1917
116.9000 38.9510 -0.1949
116.9200 38.9577 -0.2001
116.9400 38.9644 -0.1945
116.9600 38.9711 -0.1953
116.9800 38.9778 -0.1952
117.0000 38.9845 -0.1991
117.0200 38.9911 -0.2008
117.0400 38.9977 -0.1950
117.0600 39.0043 -0.1985
117.0800 39.0110 -0.1970
117.1000 39.0177 -0.1942
117.1200 39.0244 -0.1990
117.1400 39.0311 -0.2012
117.1600 39.0378 -0.1932
117.1800 39.0444 -0.2008
117.2000 39.0511 -0.1992
117.2200 39.0577 -0.1980
117.2400 39.0643 -0.2007
117.2600 39.0710 -0.1965
117.2800 39.0777 -0.1919
117.3000 39.0844 -0.2054
117.3200 39.0911 -0.1982
117.3400 39.0977 -0.1989
117.3600 39.1044 -0.2023
117.3800 39.1111 -0.1984
117.4000 39.1177 -0.1985
117.4200 39.1243 -0.2030
117.4400 39.1309 -0.1973
117.4600 39.1376 -0.2004
117.4800 39.1444 -0.2039
117.5000 39.1511 -0.2012
117.5200 39.1577 -0.2001
117.5400 39.1644 -0.2026
117.5600 39.1711 -0.1981
117.5800 39.1777 -0.1989
117.6000 39.1843 -0.2059
117.6200 39.1910 -0.1990
117.6400 39.1977 -0.1981
117.6600 39.2044 -0.2053
117.6800 39.2111 -0.2074
117.7000 39.2178 -0.1984
117.7200 39.2245 -0.2072
117.7400 39.2311 -0.2021
117.7600 39.2378 -0.2041
117.7800 39.2444 -0.2051
117.8000 39.2510 -0.2017
117.8200 39.2577 -0.2044
117.8400 39.2644 -0.2005
117.8600 39.2711 -0.2004
117.8800 39.2778 -0.2095
117.9000 39.2844 -0.2003
117.9200 39.2911 -0.2046
117.9400 39.2977 -0.2061
117.9600 39.3043 -0.1993
117.9800 39.3109 -0.1935
118.0000 39.3177 -0.2096
118.0200 39.3244 -0.2040
118.0400 39.3311 -0.1929
118.0600 39.3377 -0.2150
118.0800 39.3444 -0.2004
118.1000 39.3511 -0.1956
118.1200 39.3577 -0.2118
118.1400 39.3643 -0.2017
118.1600 39.3710 -0.1949
118.1800 39.3777 -0.2133
118.2000 39.3844 -0.2024
118.2200 39.3911 -0.1978
118.2400 39.3977 -0.2097
118.2600 39.4044 -0.1985
118.2800 39.4111 -0.1996
118.3000 39.4177 -0.2142
118.3200 39.4243 -0.1924
118.3400 39.4310 -0.2013
118.3600 39.4377 -0.2162
118.3800 39.4444 -0.1904
118.4000 39.4511 -0.1999
118.4200 39.4577 -0.2111
118.4400 39.4644 -0.1945
118.4600 39.4711 -0.2022
118.4800 39.4777 -0.2071
118.5000 39.4843 -0.1929
118.5200 39.4910 -0.2021
118.5400 39.4977 -0.2063
118.5600 39.5044 -0.1978
118.5800 39.5111 -0.2047
118.6000 39.5178 -0.2066
118.6200 39.5245 -0.1947
118.6400 39.5311 -0.2073
118.6600 39.5377 -0.2035
118.6800 39.5443 -0.1953
118.7000 39.5510 -0.1969
118.7200 39.5577 -0.2076
118.7400 39.5644 -0.1975
118.7600 39.5710 -0.1990
118.7800 39.5777 -0.2061
118.8000 39.5844 -0.1941
118.8200 39.5911 -0.1973
118.8400 39.5977 -0.2140
118.8600 39.6043 -0.1915
118.8800 39.6109 -0.2006
118.9000 39.6176 -0.2097
118.9200 39.6243 -0.1952
118.9400 39.6311 -0.2001
118.9600 39.6377 -0.2097
118.9800 39.6444 -0.1942
119.0000 39.6511 -0.1969
119.0200 39.6577 -0.2081
119.0400 39.6643 -0.1953
119.0600 39.6710 -0.2014
119.0800 39.6777 -0.2088
119.1000 39.6844 -0.1916
119.1200 39.6911 -0.2037
119.1400 39.6978 -0.2134
119.1600 39.7045 -0.1893
119.1800 39.7111 -0.1988
119.2000 39.7178 -0.2107
119.2200 39.7244 -0.1850
119.2400 39.7310 -0.1983
119.2600 39.7377 -0.2144
119.2800 39.7444 -0.1853
119.3000 39.7511 -0.2034
119.3200 39.7578 -0.2090
119.3400 39.7644 -0.1913
119.3600 39.7711 -0.2016
119.3800 39.7777 -0.2092
119.4000 39.7843 -0.1882
119.4200 39.7910 -0.2003
119.4400 39.7977 -0.2059
119.4600 39.8044 -0.1922
119.4800 39.8111 -0.2051
119.5000 39.8177 -0.2026
119.5200 39.8244 -0.1874
119.5400 39.8311 -0.2097
119.5600 39.8377 -0.2013
119.5800 39.8443 -0.1900
119.6000 39.8509 -0.2096
119.6200 39.8576 -0.1982
119.6400 39.8644 -0.1906
119.6600 39.8711 -0.2093
119.6800 39.8777 -0.2019
119.7000 39.8844 -0.1898
119.7200 39.8910 -0.2132
119.7400 39.8977 -0.1943
119.7600 39.9043 -0.1970
119.7800 39.9110 -0.2116
119.8000 39.9177 -0.1924
119.8200 39.9244 -0.1991
119.8400 39.9311 -0.2144
119.8600 39.9378 -0.1940
119.8800 39.9445 -0.2016
119.9000 39.9511 -0.2131
119.9200 39.9578 -0.2001
119.9400 39.9644 -0.2028
119.9600 39.9710 -0.2089
119.9800 39.9777 -0.1999
120.0000 39.9844 -0.2068
120.0200 39.9911 -0.2076
120.0400 39.9978 -0.2064
120.0470 40.0000 -0.2136
