Raw Data
Time Displacement Force
(s) (mm) (N)
0.0000 0.0000 0.2001
0.0200 0.0000 0.1995
0.0400 0.0010 0.2260
0.0600 0.0046 0.2349
0.0800 0.0101 0.1817
0.1000 0.0158 0.1905
0.1200 0.0219 0.2313
0.1400 0.0288 0.1929
0.1600 0.0362 0.1828
0.1800 0.0436 0.2119
0.2000 0.0508 0.1828
0.2200 0.0576 0.1873
0.2400 0.0642 0.2146
0.2600 0.0708 0.1893
0.2800 0.0775 0.1948
0.3000 0.0843 0.2191
0.3200 0.0910 0.1884
0.3400 0.0977 0.2016
0.3600 0.1044 0.2173
0.3800 0.1111 0.1854
0.4000 0.1178 0.1992
0.4200 0.1244 0.2198
0.4400 0.1310 0.1897
0.4600 0.1377 0.2047
0.4800 0.1444 0.2140
0.5000 0.1510 0.1926
0.5200 0.1577 0.2033
0.5400 0.1644 0.2122
0.5600 0.1711 0.1959
0.5800 0.1778 0.1938
0.6000 0.1844 0.2136
0.6200 0.1910 0.1928
0.6400 0.1976 0.2011
0.6600 0.2043 0.2140
0.6800 0.2111 0.1884
0.7000 0.2178 0.1999
0.7200 0.2244 0.2093
0.7400 0.2311 0.1844
0.7600 0.2377 0.1990
0.7800 0.2443 0.2028
0.8000 0.2509 0.1863
0.8200 0.2576 0.1928
0.8400 0.2643 0.2067
0.8600 0.2710 0.1843
0.8800 0.2777 0.1952
0.9000 0.2844 0.1974
0.9200 0.2910 0.1862
0.9400 0.2977 0.1918
0.9600 0.3044 0.1957
0.9800 0.3110 0.1909
1.0000 0.3176 0.1937
1.0200 0.3243 0.1990
1.0400 0.3310 0.1839
1.0600 0.3377 0.1881
1.0800 0.3444 0.1988
1.1000 0.3511 0.1879
1.1200 0.3578 0.1901
1.1400 0.3644 0.1976
1.1600 0.3710 0.1886
1.1800 0.3776 0.1911
1.2000 0.3843 0.1951
1.2200 0.3911 0.1904
1.2400 0.3978 0.1889
1.2600 0.4044 0.1964
1.2800 0.4111 0.1858
1.3000 0.4177 0.1905
1.3200 0.4244 0.1931
1.3400 0.4310 0.1881
1.3600 0.4376 0.1926
1.3800 0.4443 0.1918
1.4000 0.4511 0.1904
1.4200 0.4578 0.1924
1.4400 0.4644 0.1858
1.4600 0.4711 0.1923
1.4800 0.4778 0.1889
1.5000 0.4844 0.1856
1.5200 0.4910 0.1955
1.5400 0.4976 0.1912
1.5600 0.5043 0.1848
1.5800 0.5110 0.1938
1.6000 0.5177 0.1859
1.6200 0.5244 0.1858
1.6400 0.5311 0.2000
1.6600 0.5377 0.1821
1.6800 0.5443 0.1832
1.7000 0.5509 0.2005
1.7200 0.5575 0.1855
1.7400 0.5643 0.1869
1.7600 0.5710 0.1986
1.7800 0.5777 0.1744
1.8000 0.5844 0.1896
1.8200 0.5910 0.1896
1.8400 0.5977 0.1798
1.8600 0.6043 0.1903
1.8800 0.6109 0.1893
1.9000 0.6176 0.1763
1.9200 0.6243 0.1945
1.9400 0.6310 0.1882
1.9600 0.6377 0.1742
1.9800 0.6444 0.1914
2.0000 0.6511 0.1915
2.0200 0.6578 0.1739
2.0400 0.6644 0.1903
2.0600 0.6710 0.1899
2.0800 0.6777 0.1780
2.1000 0.6843 0.1869
2.1200 0.6910 0.1847
2.1400 0.6977 0.1757
2.1600 0.7044 0.1877
2.1800 0.7111 0.1888
2.2000 0.7177 0.1748
2.2200 0.7244 0.1820
2.2400 0.7310 0.1878
2.2600 0.7376 0.1801
2.2800 0.7443 0.1831
2.3000 0.7510 0.1846
2.3200 0.7577 0.1752
2.3400 0.7644 0.1859
2.3600 0.7711 0.1842
2.3800 0.7777 0.1821
2.4000 0.7844 0.1831
2.4200 0.7910 0.1833
2.4400 0.7976 0.1806
2.4600 0.8043 0.1848
2.4800 0.8110 0.1784
2.5000 0.8177 0.1784
2.5200 0.8244 0.1835
2.5400 0.8310 0.1746
2.5600 0.8377 0.1791
2.5800 0.8444 0.1890
2.6000 0.8510 0.1706
2.6200 0.8576 0.1834
2.6400 0.8643 0.1904
2.6600 0.8710 0.1720
2.6800 0.8777 0.1814
2.7000 0.8844 0.1855
2.7200 0.8911 0.1795
2.7400 0.8978 0.1778
2.7600 0.9044 0.1808
2.7800 0.9110 0.1739
2.8000 0.9176 0.1892
2.8200 0.9243 0.1811
2.8400 0.9311 0.1780
2.8600 0.9378 0.1838
2.8800 0.9444 0.1809
2.9000 0.9511 0.1746
2.9200 0.9578 0.1855
2.9400 0.9644 0.1802
2.9600 0.9710 0.1779
2.9800 0.9776 0.1846
3.0000 0.9843 0.1835
3.0200 0.9910 0.1749
3.0400 0.9977 0.1870
3.0600 1.0044 0.1807
3.0800 1.0110 0.1760
3.1000 1.0177 0.1849
3.1200 1.0244 0.1788
3.1400 1.0310 0.1819
3.1600 1.0376 0.1852
3.1800 1.0443 0.1771
3.2000 1.0510 0.1781
3.2200 1.0577 0.1854
3.2400 1.0644 0.1738
3.2600 1.0711 0.1816
3.2800 1.0777 0.1838
3.3000 1.0844 0.1696
3.3200 1.0910 0.1816
3.3400 1.0976 0.1854
3.3600 1.1043 0.1663
3.3800 1.1111 0.1829
3.4000 1.1178 0.1813
3.4200 1.1245 0.1692
3.4400 1.1311 0.1791
3.4600 1.1378 0.1842
3.4800 1.1444 0.1666
3.5000 1.1510 0.1789
3.5200 1.1576 0.1812
3.5400 1.1643 0.1710
3.5600 1.1710 0.1804
3.5800 1.1777 0.1765
3.6000 1.1844 0.1708
3.6200 1.1911 0.1792
3.6400 1.1978 0.1703
3.6600 1.2044 0.1754
3.6800 1.2110 0.1809
3.7000 1.2176 0.1695
3.7200 1.2243 0.1728
3.7400 1.2310 0.1815
3.7600 1.2377 0.1749
3.7800 1.2444 0.1719
3.8000 1.2511 0.1770
3.8200 1.2578 0.1703
3.8400 1.2644 0.1746
3.8600 1.2710 0.1732
3.8800 1.2776 0.1820
3.9000 1.2842 0.1755
3.9200 1.2910 0.1711
3.9400 1.2977 0.1747
3.9600 1.3044 0.1729
3.9800 1.3110 0.1703
4.0000 1.3177 0.1800
4.0200 1.3244 0.1718
4.0400 1.3310 0.1706
4.0600 1.3376 0.1790
4.0800 1.3443 0.1724
4.1000 1.3510 0.1688
4.1200 1.3577 0.1801
4.1400 1.3644 0.1726
4.1600 1.3711 0.1703
4.1800 1.3778 0.1778
4.2000 1.3845 0.1699
4.2200 1.3910 0.1682
4.2400 1.3977 0.1823
4.2600 1.4043 0.1740
4.2800 1.4110 0.1618
4.3000 1.4178 0.1812
4.3200 1.4244 0.1666
4.3400 1.4311 0.1634
4.3600 1.4377 0.1833
4.3800 1.4444 0.1687
4.4000 1.4510 0.1596
4.4200 1.4576 0.1845
4.4400 1.4643 0.1659
4.4600 1.4710 0.1636
4.4800 1.4777 0.1805
4.5000 1.4843 0.1692
4.5200 1.4910 0.1588
4.5400 1.4977 0.1803
4.5600 1.5044 0.1670
4.5800 1.5110 0.1598
4.6000 1.5176 0.1776
4.6200 1.5243 0.1698
4.6400 1.5310 0.1627
4.6600 1.5377 0.1772
4.6800 1.5444 0.1648
4.7000 1.5511 0.1613
4.7200 1.5578 0.1749
4.7400 1.5645 0.1638
4.7600 1.5711 0.1637
4.7800 1.5777 0.1737
4.8000 1.5843 0.1663
4.8200 1.5910 0.1610
4.8400 1.5977 0.1702
4.8600 1.6044 0.1663
4.8800 1.6111 0.1627
4.9000 1.6177 0.1666
4.9200 1.6244 0.1682
4.9400 1.6310 0.1558
4.9600 1.6376 0.1719
4.9800 1.6443 0.1665
5.0000 1.6510 0.1626
5.0200 1.6577 0.1691
5.0400 1.6644 0.1610
5.0600 1.6711 0.1576
5.0800 1.6778 0.1706
5.1000 1.6845 0.1591
5.1200 1.6911 0.1564
5.1400 1.6977 0.1714
5.1600 1.7043 0.1588
5.1800 1.7110 0.1587
5.2000 1.7177 0.1713
5.2200 1.7244 0.1569
5.2400 1.7311 0.1575
5.2600 1.7378 0.1713
5.2800 1.7444 0.1593
5.3000 1.7510 0.1560
5.3200 1.7576 0.1652
5.3400 1.7643 0.1588
5.3600 1.7710 0.1598
5.3800 1.7777 0.1634
5.4000 1.7844 0.1563
5.4200 1.7911 0.1646
5.4400 1.7977 0.1625
5.4600 1.8044 0.1581
5.4800 1.8110 0.1660
5.5000 1.8176 0.1651
5.5200 1.8243 0.1505
5.5400 1.8310 0.1618
5.5600 1.8377 0.1646
5.5800 1.8444 0.1528
5.6000 1.8511 0.1674
5.6200 1.8578 0.1621
5.6400 1.8644 0.1514
5.6600 1.8711 0.1662
5.6800 1.8777 0.1571
5.7000 1.8843 0.1557
5.7200 1.8910 0.1672
5.7400 1.8977 0.1540
5.7600 1.9044 0.1519
5.7800 1.9111 0.1662
5.8000 1.9178 0.1543
5.8200 1.9244 0.1527
5.8400 1.9310 0.1668
5.8600 1.9376 0.1517
5.8800 1.9443 0.1592
5.9000 1.9510 0.1600
5.9200 1.9577 0.1519
5.9400 1.9644 0.1601
5.9600 1.9711 0.1642
5.9800 1.9777 0.1516
6.0000 1.9844 0.1648
6.0200 1.9910 0.1576
6.0400 1.9976 0.1512
6.0600 2.0043 0.1644
6.0800 2.0110 0.1543
6.1000 2.0177 0.1502
6.1200 2.0243 0.1716
6.1400 2.0310 0.1504
6.1600 2.0377 0.1499
6.1800 2.0444 0.1693
6.2000 2.0511 0.1521
6.2200 2.0577 0.1498
6.2400 2.0643 0.1628
6.2600 2.0710 0.1544
6.2800 2.0777 0.1552
6.3000 2.0844 0.1669
6.3200 2.0911 0.1485
6.3400 2.0978 0.1557
6.3600 2.1045 0.1608
6.3800 2.1111 0.1518
6.4000 2.1177 0.1608
6.4200 2.1243 0.1604
6.4400 2.1310 0.1477
6.4600 2.1378 0.1574
6.4800 2.1444 0.1512
6.5000 2.1511 0.1564
6.5200 2.1577 0.1618
6.5400 2.1644 0.1478
6.5600 2.1710 0.1508
6.5800 2.1776 0.1614
6.6000 2.1843 0.1527
6.6200 2.1910 0.1602
6.6400 2.1977 0.1483
6.6600 2.2044 0.1489
6.6800 2.2110 0.1599
6.7000 2.2177 0.1515
6.7200 2.2244 0.1462
6.7400 2.2311 0.1594
6.7600 2.2376 0.1536
6.7800 2.2443 0.1459
6.8000 2.2509 0.1607
6.8200 2.2577 0.1487
6.8400 2.2644 0.1509
6.8600 2.2711 0.1538
6.8800 2.2778 0.1454
6.9000 2.2844 0.1515
6.9200 2.2911 0.1560
6.9400 2.2977 0.1411
6.9600 2.3043 0.1532
6.9800 2.3110 0.1563
7.0000 2.3177 0.1443
7.0200 2.3244 0.1528
7.0400 2.3311 0.1533
7.0600 2.3377 0.1430
7.0800 2.3444 0.1565
7.1000 2.3511 0.1464
7.1200 2.3577 0.1464
7.1400 2.3643 0.1552
7.1600 2.3710 0.1470
7.1800 2.3777 0.1438
7.2000 2.3844 0.1524
7.2200 2.3911 0.1489
7.2400 2.3978 0.1487
7.2600 2.4045 0.1467
7.2800 2.4111 0.1450
7.3000 2.4177 0.1491
7.3200 2.4243 0.1516
7.3400 2.4310 0.1464
7.3600 2.4377 0.1487
7.3800 2.4444 0.1497
7.4000 2.4511 0.1452
7.4200 2.4577 0.1453
7.4400 2.4644 0.1469
7.4600 2.4710 0.1501
7.4800 2.4776 0.1397
7.5000 2.4843 0.1463
7.5200 2.4909 0.1503
7.5400 2.4976 0.1430
7.5600 2.5043 0.1392
7.5800 2.5110 0.1513
7.6000 2.5177 0.1408
7.6200 2.5244 0.1424
7.6400 2.5310 0.1523
7.6600 2.5376 0.1395
7.6800 2.5443 0.1414
7.7000 2.5510 0.1555
7.7200 2.5577 0.1379
7.7400 2.5644 0.1411
7.7600 2.5711 0.1514
7.7800 2.5778 0.1327
7.8000 2.5845 0.1461
7.8200 2.5911 0.1512
7.8400 2.5977 0.1356
7.8600 2.6043 0.1457
7.8800 2.6110 0.1521
7.9000 2.6177 0.1310
7.9200 2.6244 0.1491
7.9400 2.6311 0.1488
7.9600 2.6378 0.1329
7.9800 2.6444 0.1490
8.0000 2.6511 0.1500
8.0200 2.6577 0.1380
8.0400 2.6643 0.1518
8.0600 2.6710 0.1440
8.0800 2.6777 0.1401
8.1000 2.6844 0.1456
8.1200 2.6910 0.1464
8.1400 2.6977 0.1379
8.1600 2.7044 0.1430
8.1800 2.7111 0.1456
8.2000 2.7177 0.1400
8.2200 2.7243 0.1403
8.2400 2.7310 0.1498
8.2600 2.7377 0.1398
8.2800 2.7443 0.1411
8.3000 2.7510 0.1474
8.3200 2.7577 0.1367
8.3400 2.7644 0.1447
8.3600 2.7710 0.1458
8.3800 2.7776 0.1357
8.4000 2.7843 0.1459
8.4200 2.7910 0.1523
8.4400 2.7977 0.1308
8.4600 2.8044 0.1422
8.4800 2.8111 0.1516
8.5000 2.8178 0.1333
8.5200 2.8244 0.1361
8.5400 2.8311 0.1495
8.5600 2.8377 0.1367
8.5800 2.8443 0.1436
8.6000 2.8510 0.1459
8.6200 2.8577 0.1357
8.6400 2.8644 0.1373
8.6600 2.8711 0.1454
8.6800 2.8778 0.1340
8.7000 2.8844 0.1398
8.7200 2.8911 0.1462
8.7400 2.8977 0.1314
8.7600 2.9043 0.1405
8.7800 2.9110 0.1462
8.8000 2.9177 0.1344
8.8200 2.9244 0.1404
8.8400 2.9310 0.1408
8.8600 2.9377 0.1353
8.8800 2.9444 0.1423
8.9000 2.9511 0.1403
8.9200 2.9577 0.1348
8.9400 2.9643 0.1444
8.9600 2.9709 0.1412
8.9800 2.9776 0.1340
9.0000 2.9844 0.1420
9.0200 2.9911 0.1355
9.0400 2.9977 0.1411
9.0600 3.0044 0.1378
9.0800 3.0110 0.1334
9.1000 3.0177 0.1367
9.1200 3.0243 0.1432
9.1400 3.0310 0.1360
9.1600 3.0377 0.1358
9.1800 3.0444 0.1366
9.2000 3.0510 0.1416
9.2200 3.0577 0.1397
9.2400 3.0644 0.1351
9.2600 3.0711 0.1355
9.2800 3.0777 0.1389
9.3000 3.0843 0.1327
9.3200 3.0910 0.1408
9.3400 3.0977 0.1392
9.3600 3.1044 0.1341
9.3800 3.1111 0.1399
9.4000 3.1178 0.1311
9.4200 3.1245 0.1362
9.4400 3.1311 0.1375
9.4600 3.1377 0.1353
9.4800 3.1443 0.1329
9.5000 3.1510 0.1369
9.5200 3.1577 0.1287
9.5400 3.1644 0.1365
9.5600 3.1711 0.1390
9.5800 3.1778 0.1304
9.6000 3.1844 0.1295
9.6200 3.1911 0.1358
9.6400 3.1977 0.1273
9.6600 3.2043 0.1387
9.6800 3.2109 0.1362
9.7000 3.2176 0.1300
9.7200 3.2243 0.1285
9.7400 3.2310 0.1326
9.7600 3.2377 0.1324
9.7800 3.2444 0.1304
9.8000 3.2510 0.1335
9.8200 3.2577 0.1277
9.8400 3.2643 0.1277
9.8600 3.2709 0.1351
9.8800 3.2777 0.1311
9.9000 3.2844 0.1271
9.9200 3.2911 0.1325
9.9400 3.2978 0.1297
9.9600 3.3045 0.1333
9.9800 3.3112 0.1311
10.0000 3.3178 0.1280
10.0200 3.3243 0.1323
10.0400 3.3310 0.1309
10.0600 3.3377 0.1253
10.0800 3.3444 0.1404
10.1000 3.3511 0.1291
10.1200 3.3578 0.1217
10.1400 3.3644 0.1377
10.1600 3.3711 0.1299
10.1800 3.3777 0.1253
10.2000 3.3843 0.1353
10.2200 3.3910 0.1283
10.2400 3.3976 0.1366
10.2600 3.4043 0.1289
10.2800 3.4110 0.1218
10.3000 3.4177 0.1423
10.3200 3.4244 0.1296
10.3400 3.4311 0.1174
10.3600 3.4377 0.1457
10.3800 3.4443 0.1227
10.4000 3.4509 0.1153
10.4200 3.4576 0.1505
10.4400 3.4643 0.1169
10.4600 3.4710 0.1228
10.4800 3.4777 0.1472
10.5000 3.4844 0.1133
10.5200 3.4911 0.1217
10.5400 3.4977 0.1426
10.5600 3.5043 0.1157
10.5800 3.5110 0.1295
10.6000 3.5177 0.1300
10.6200 3.5244 0.1134
10.6400 3.5311 0.1354
10.6600 3.5378 0.1338
10.6800 3.5444 0.1104
10.7000 3.5511 0.1342
10.7200 3.5577 0.1233
10.7400 3.5644 0.1128
10.7600 3.5710 0.1346
10.7800 3.5777 0.1283
10.8000 3.5844 0.1186
10.8200 3.5911 0.1258
10.8400 3.5978 0.1242
10.8600 3.6044 0.1162
10.8800 3.6111 0.1249
10.9000 3.6177 0.1241
10.9200 3.6243 0.1226
10.9400 3.6309 0.1228
10.9600 3.6376 0.1230
10.9800 3.6443 0.1236
11.0000 3.6511 0.1221
11.0200 3.6577 0.1268
11.0400 3.6644 0.1225
11.0600 3.6711 0.1163
11.0800 3.6777 0.1290
11.1000 3.6843 0.1195
11.1200 3.6909 0.1217
11.1400 3.6976 0.1266
11.1600 3.7044 0.1203
11.1800 3.7110 0.1141
11.2000 3.7177 0.1332
11.2200 3.7244 0.1173
11.2400 3.7311 0.1170
11.2600 3.7377 0.1341
11.2800 3.7444 0.1154
11.3000 3.7510 0.1130
11.3200 3.7577 0.1384
11.3400 3.7644 0.1098
11.3600 3.7711 0.1148
11.3800 3.7777 0.1399
11.4000 3.7845 0.1074
11.4200 3.7911 0.1211
11.4400 3.7978 0.1356
11.4600 3.8043 0.1054
11.4800 3.8110 0.1243
11.5000 3.8177 0.1308
11.5200 3.8244 0.1015
11.5400 3.8311 0.1290
11.5600 3.8378 0.1265
11.5800 3.8444 0.1089
11.6000 3.8511 0.1231
11.6200 3.8577 0.1234
11.6400 3.8643 0.1099
11.6600 3.8710 0.1276
11.6800 3.8777 0.1213
11.7000 3.8844 0.1084
11.7200 3.8911 0.1233
11.7400 3.8977 0.1206
11.7600 3.9044 0.1095
11.7800 3.9111 0.1284
11.8000 3.9177 0.1128
11.8200 3.9243 0.1102
11.8400 3.9309 0.1282
11.8600 3.9376 0.1136
11.8800 3.9443 0.1150
11.9000 3.9510 0.1273
11.9200 3.9577 0.1056
11.9400 3.9644 0.1107
11.9600 3.9711 0.1234
11.9800 3.9777 0.1053
12.0000 3.9843 0.1178
12.0200 3.9910 0.1221
12.0400 3.9976 0.1045
12.0600 4.0044 0.1164
12.0800 4.0111 0.1248
12.1000 4.0178 0.1004
12.1200 4.0245 0.1204
12.1400 4.0311 0.1156
12.1600 4.0377 0.1051
12.1800 4.0443 0.1198
12.2000 4.0510 0.1154
12.2200 4.0577 0.1041
12.2400 4.0644 0.1207
12.2600 4.0711 0.1103
12.2800 4.0777 0.1127
12.3000 4.0844 0.1222
12.3200 4.0911 0.1090
12.3400 4.0977 0.1098
12.3600 4.1043 0.1211
12.3800 4.1110 0.1100
12.4000 4.1176 0.1167
12.4200 4.1243 0.1168
12.4400 4.1310 0.1067
12.4600 4.1377 0.1125
12.4800 4.1444 0.1146
12.5000 4.1511 0.1099
12.5200 4.1577 0.1140
12.5400 4.1643 0.1127
12.5600 4.1709 0.1107
12.5800 4.1776 0.1165
12.6000 4.1843 0.1110
12.6200 4.1910 0.1110
12.6400 4.1977 0.1115
12.6600 4.2044 0.1144
12.6800 4.2110 0.1127
12.7000 4.2177 0.1122
12.7200 4.2243 0.1092
12.7400 4.2310 0.1179
12.7600 4.2377 0.1064
12.7800 4.2444 0.1133
12.8000 4.2511 0.1154
12.8200 4.2577 0.1075
12.8400 4.2644 0.1124
12.8600 4.2711 0.1118
12.8800 4.2778 0.1084
12.9000 4.2844 0.1131
12.9200 4.2910 0.1106
12.9400 4.2976 0.1091
12.9600 4.3043 0.1153
12.9800 4.3111 0.1111
13.0000 4.3178 0.1077
13.0200 4.3245 0.1176
13.0400 4.3311 0.1136
13.0600 4.3378 0.1036
13.0800 4.3444 0.1167
13.1000 4.3510 0.1126
13.1200 4.3576 0.1079
13.1400 4.3643 0.1106
13.1600 4.3710 0.1154
13.1800 4.3777 0.1090
13.2000 4.3844 0.1103
13.2200 4.3911 0.1117
13.2400 4.3977 0.1104
13.2600 4.4043 0.1072
13.2800 4.4110 0.1136
13.3000 4.4176 0.1096
13.3200 4.4243 0.1136
13.3400 4.4310 0.1092
13.3600 4.4377 0.1070
13.3800 4.4443 0.1156
13.4000 4.4510 0.1153
13.4200 4.4577 0.1057
13.4400 4.4644 0.1110
13.4600 4.4710 0.1136
13.4800 4.4776 0.1072
13.5000 4.4843 0.1098
13.5200 4.4910 0.1120
13.5400 4.4977 0.1045
13.5600 4.5044 0.1143
13.5800 4.5111 0.1143
13.6000 4.5178 0.1042
13.6200 4.5244 0.1115
13.6400 4.5310 0.1161
13.6600 4.5376 0.1075
13.6800 4.5443 0.1107
13.7000 4.5511 0.1161
13.7200 4.5577 0.1001
13.7400 4.5644 0.1160
13.7600 4.5711 0.1151
13.7800 4.5777 0.1007
13.8000 4.5844 0.1157
13.8200 4.5910 0.1132
13.8400 4.5976 0.1030
13.8600 4.6043 0.1205
13.8800 4.6110 0.1123
13.9000 4.6177 0.1031
13.9200 4.6244 0.1166
13.9400 4.6311 0.1179
13.9600 4.6377 0.1041
13.9800 4.6443 0.1115
14.0000 4.6509 0.1175
14.0200 4.6576 0.1098
14.0400 4.6643 0.1123
14.0600 4.6710 0.1146
14.0800 4.6777 0.1132
14.1000 4.6844 0.1093
14.1200 4.6910 0.1158
14.1400 4.6977 0.1101
14.1600 4.7043 0.1092
14.1800 4.7109 0.1227
14.2000 4.7176 0.1116
14.2200 4.7244 0.1046
14.2400 4.7311 0.1204
14.2600 4.7378 0.1038
14.2800 4.7444 0.1122
14.3000 4.7511 0.1195
14.3200 4.7578 0.1047
14.3400 4.7644 0.1061
14.3600 4.7710 0.1221
14.3800 4.7777 0.1068
14.4000 4.7844 0.1110
14.4200 4.7911 0.1164
14.4400 4.7978 0.1032
14.4600 4.8044 0.1137
14.4800 4.8111 0.1196
14.5000 4.8178 0.1070
14.5200 4.8244 0.1145
14.5400 4.8310 0.1126
14.5600 4.8376 0.1072
14.5800 4.8443 0.1158
14.6000 4.8510 0.1128
14.6200 4.8577 0.1056
14.6400 4.8644 0.1094
14.6600 4.8711 0.1151
14.6800 4.8777 0.1048
14.7000 4.8843 0.1134
14.7200 4.8909 0.1132
14.7400 4.8976 0.1042
14.7600 4.9043 0.1101
14.7800 4.9111 0.1170
14.8000 4.9177 0.1035
14.8200 4.9244 0.1096
14.8400 4.9311 0.1134
14.8600 4.9377 0.1032
14.8800 4.9444 0.1045
14.9000 4.9510 0.1145
14.9200 4.9577 0.1046
14.9400 4.9644 0.1084
14.9600 4.9711 0.1135
14.9800 4.9777 0.0996
15.0000 4.9844 0.1058
15.0200 4.9911 0.1136
15.0400 4.9978 0.1017
15.0600 5.0044 0.1063
15.0800 5.0110 0.1072
15.1000 5.0176 0.1046
15.1200 5.0243 0.1050
15.1400 5.0311 0.1041
15.1600 5.0378 0.1027
15.1800 5.0444 0.1039
15.2000 5.0511 0.1101
15.2200 5.0577 0.0979
15.2400 5.0643 0.1067
15.2600 5.0710 0.1078
15.2800 5.0776 0.1015
15.3000 5.0843 0.1039
15.3200 5.0910 0.1117
15.3400 5.0977 0.0972
15.3600 5.1044 0.1046
15.3800 5.1111 0.1101
15.4000 5.1177 0.0985
15.4200 5.1244 0.1056
15.4400 5.1310 0.1107
15.4600 5.1376 0.0946
15.4800 5.1443 0.1056
15.5000 5.1510 0.1080
15.5200 5.1577 0.0990
15.5400 5.1644 0.1089
15.5600 5.1711 0.1053
15.5800 5.1777 0.0978
15.6000 5.1844 0.1083
15.6200 5.1910 0.1074
15.6400 5.1976 0.0989
15.6600 5.2043 0.1090
15.6800 5.2111 0.1034
15.7000 5.2178 0.0993
15.7200 5.2244 0.1041
15.7400 5.2311 0.1075
15.7600 5.2378 0.0989
15.7800 5.2444 0.1033
15.8000 5.2510 0.1036
15.8200 5.2576 0.1084
15.8400 5.2643 0.1029
15.8600 5.2711 0.1004
15.8800 5.2778 0.1025
15.9000 5.2844 0.1063
15.9200 5.2911 0.0968
15.9400 5.2978 0.1063
15.9600 5.3044 0.1007
15.9800 5.3110 0.0958
16.0000 5.3176 0.1061
16.0200 5.3243 0.0982
16.0400 5.3310 0.0968
16.0600 5.3377 0.1090
16.0800 5.3444 0.0984
16.1000 5.3511 0.0912
16.1200 5.3578 0.1051
16.1400 5.3644 0.0944
16.1600 5.3709 0.0982
16.1800 5.3776 0.1073
16.2000 5.3843 0.0904
16.2200 5.3910 0.0967
16.2400 5.3977 0.1056
16.2600 5.4044 0.0872
16.2800 5.4110 0.0971
16.3000 5.4177 0.1052
16.3200 5.4244 0.0881
16.3400 5.4310 0.0932
16.3600 5.4376 0.1059
16.3800 5.4443 0.0882
16.4000 5.4511 0.1001
16.4200 5.4577 0.0941
16.4400 5.4644 0.0854
16.4600 5.4711 0.1015
16.4800 5.4778 0.0968
16.5000 5.4845 0.0874
16.5200 5.4911 0.0988
16.5400 5.4977 0.0945
16.5600 5.5043 0.0902
16.5800 5.5110 0.0999
16.6000 5.5177 0.0930
16.6200 5.5244 0.0904
16.6400 5.5311 0.0965
16.6600 5.5378 0.0897
16.6800 5.5444 0.0929
16.7000 5.5510 0.0923
16.7200 5.5576 0.0902
16.7400 5.5643 0.0943
16.7600 5.5710 0.0936
16.7800 5.5777 0.0927
16.8000 5.5844 0.0879
16.8200 5.5911 0.0959
16.8400 5.5977 0.0904
16.8600 5.6044 0.0911
16.8800 5.6110 0.0899
16.9000 5.6176 0.0954
16.9200 5.6243 0.0901
16.9400 5.6310 0.0884
16.9600 5.6377 0.0953
16.9800 5.6444 0.0884
17.0000 5.6510 0.0853
17.0200 5.6577 0.0941
17.0400 5.6644 0.0850
17.0600 5.6710 0.0851
17.0800 5.6776 0.0994
17.1000 5.6843 0.0870
17.1200 5.6910 0.0842
17.1400 5.6977 0.0990
17.1600 5.7044 0.0830
17.1800 5.7111 0.0901
17.2000 5.7178 0.0964
17.2200 5.7244 0.0757
17.2400 5.7310 0.0960
17.2600 5.7376 0.0949
17.2800 5.7443 0.0805
17.3000 5.7510 0.0928
17.3200 5.7578 0.0904
17.3400 5.7644 0.0759
17.3600 5.7711 0.0985
17.3800 5.7778 0.0910
17.4000 5.7844 0.0797
17.4200 5.7910 0.0965
17.4400 5.7976 0.0922
17.4600 5.8043 0.0800
17.4800 5.8110 0.0964
17.5000 5.8177 0.0885
17.5200 5.8244 0.0826
17.5400 5.8310 0.0896
17.5600 5.8377 0.0903
17.5800 5.8444 0.0840
17.6000 5.8510 0.0880
17.6200 5.8576 0.0884
17.6400 5.8643 0.0864
17.6600 5.8710 0.0858
17.6800 5.8777 0.0859
17.7000 5.8844 0.0861
17.7200 5.8911 0.0818
17.7400 5.8977 0.0901
17.7600 5.9044 0.0855
17.7800 5.9110 0.0791
17.8000 5.9176 0.0929
17.8200 5.9243 0.0848
17.8400 5.9311 0.0803
17.8600 5.9378 0.0905
17.8800 5.9445 0.0796
17.9000 5.9511 0.0828
17.9200 5.9578 0.0914
17.9400 5.9644 0.0792
17.9600 5.9710 0.0757
17.9800 5.9776 0.0977
18.0000 5.9843 0.0764
18.0200 5.9910 0.0756
18.0400 5.9977 0.0954
18.0600 6.0044 0.0772
18.0800 6.0111 0.0716
18.1000 6.0178 0.0954
18.1200 6.0244 0.0753
18.1400 6.0310 0.0770
18.1600 6.0376 0.0982
18.1800 6.0443 0.0709
18.2000 6.0510 0.0797
18.2200 6.0577 0.0931
18.2400 6.0644 0.0718
18.2600 6.0711 0.0760
18.2800 6.0777 0.0954
18.3000 6.0844 0.0629
18.3200 6.0910 0.0764
18.3400 6.0976 0.0974
18.3600 6.1042 0.0711
18.3800 6.1110 0.0749
18.4000 6.1177 0.0936
18.4200 6.1244 0.0663
18.4400 6.1310 0.0813
18.4600 6.1377 0.0899
18.4800 6.1444 0.0674
18.5000 6.1510 0.0793
18.5200 6.1576 0.0890
18.5400 6.1643 0.0684
18.5600 6.1710 0.0774
18.5800 6.1777 0.0867
18.6000 6.1844 0.0690
18.6200 6.1911 0.0780
18.6400 6.1978 0.0901
18.6600 6.2045 0.0701
18.6800 6.2111 0.0750
18.7000 6.2177 0.0867
18.7200 6.2243 0.0719
18.7400 6.2310 0.0782
18.7600 6.2377 0.0838
18.7800 6.2444 0.0744
18.8000 6.2511 0.0771
18.8200 6.2578 0.0867
18.8400 6.2644 0.0695
18.8600 6.2710 0.0767
18.8800 6.2776 0.0837
18.9000 6.2843 0.0771
18.9200 6.2910 0.0707
18.9400 6.2977 0.0819
18.9600 6.3044 0.0721
18.9800 6.3110 0.0711
19.0000 6.3177 0.0860
19.0200 6.3244 0.0738
19.0400 6.3310 0.0652
19.0600 6.3376 0.0852
19.0800 6.3443 0.0742
19.1000 6.3510 0.0722
19.1200 6.3577 0.0813
19.1400 6.3644 0.0781
19.1600 6.3711 0.0694
19.1800 6.3778 0.0759
19.2000 6.3844 0.0811
19.2200 6.3911 0.0698
19.2400 6.3977 0.0778
19.2600 6.4043 0.0798
19.2800 6.4110 0.0706
19.3000 6.4177 0.0757
19.3200 6.4244 0.0793
19.3400 6.4311 0.0739
19.3600 6.4378 0.0751
19.3800 6.4444 0.0731
19.4000 6.4510 0.0742
19.4200 6.4576 0.0732
19.4400 6.4643 0.0789
19.4600 6.4710 0.0715
19.4800 6.4777 0.0763
19.5000 6.4844 0.0757
19.5200 6.4911 0.0681
19.5400 6.4978 0.0735
19.5600 6.5044 0.0787
19.5800 6.5111 0.0702
19.6000 6.5177 0.0735
19.6200 6.5243 0.0772
19.6400 6.5310 0.0740
19.6600 6.5377 0.0725
19.6800 6.5444 0.0754
19.7000 6.5511 0.0688
19.7200 6.5578 0.0715
19.7400 6.5644 0.0769
19.7600 6.5710 0.0719
19.7800 6.5776 0.0741
19.8000 6.5843 0.0785
19.8200 6.5910 0.0705
19.8400 6.5977 0.0666
19.8600 6.6044 0.0809
19.8800 6.6111 0.0754
19.9000 6.6177 0.0673
19.9200 6.6244 0.0768
19.9400 6.6310 0.0781
19.9600 6.6376 0.0669
19.9800 6.6443 0.0805
20.0000 6.6510 0.0755
20.0200 6.6577 0.0648
20.0400 6.6644 0.0771
20.0600 6.6711 0.0764
20.0800 6.6777 0.0628
20.1000 6.6844 0.0822
20.1200 6.6911 0.0730
20.1400 6.6977 0.0554
20.1600 6.7043 0.0857
20.1800 6.7110 0.0773
20.2000 6.7177 0.0568
20.2200 6.7244 0.0798
20.2400 6.7311 0.0777
20.2600 6.7378 0.0596
20.2800 6.7445 0.0818
20.3000 6.7511 0.0716
20.3200 6.7577 0.0573
20.3400 6.7643 0.0834
20.3600 6.7710 0.0726
20.3800 6.7777 0.0550
20.4000 6.7844 0.0831
20.4200 6.7911 0.0695
20.4400 6.7977 0.0582
20.4600 6.8044 0.0818
20.4800 6.8110 0.0721
20.5000 6.8177 0.0597
20.5200 6.8243 0.0836
20.5400 6.8310 0.0651
20.5600 6.8377 0.0625
20.5800 6.8443 0.0815
20.6000 6.8510 0.0684
20.6200 6.8577 0.0596
20.6400 6.8644 0.0867
20.6600 6.8710 0.0669
20.6800 6.8777 0.0621
20.7000 6.8843 0.0838
20.7200 6.8910 0.0673
20.7400 6.8977 0.0639
20.7600 6.9044 0.0817
20.7800 6.9111 0.0678
20.8000 6.9178 0.0620
20.8200 6.9245 0.0849
20.8400 6.9311 0.0639
20.8600 6.9377 0.0740
20.8800 6.9443 0.0847
20.9000 6.9510 0.0651
20.9200 6.9577 0.0697
20.9400 6.9644 0.0821
20.9600 6.9711 0.0670
20.9800 6.9778 0.0710
21.0000 6.9844 0.0776
21.0200 6.9910 0.0711
21.0400 6.9976 0.0686
21.0600 7.0043 0.0819
21.0800 7.0110 0.0689
21.1000 7.0177 0.0701
21.1200 7.0244 0.0781
21.1400 7.0310 0.0730
21.1600 7.0377 0.0711
21.1800 7.0444 0.0763
21.2000 7.0511 0.0687
21.2200 7.0577 0.0717
21.2400 7.0643 0.0765
21.2600 7.0709 0.0730
21.2800 7.0777 0.0696
21.3000 7.0844 0.0751
21.3200 7.0911 0.0710
21.3400 7.0978 0.0684
21.3600 7.1044 0.0783
21.3800 7.1111 0.0716
21.4000 7.1176 0.0715
21.4200 7.1243 0.0735
21.4400 7.1310 0.0772
21.4600 7.1377 0.0681
21.4800 7.1444 0.0761
21.5000 7.1511 0.0698
21.5200 7.1577 0.0695
21.5400 7.1644 0.0795
21.5600 7.1711 0.0721
21.5800 7.1777 0.0702
21.6000 7.1843 0.0815
21.6200 7.1910 0.0689
21.6400 7.1977 0.0700
21.6600 7.2044 0.0794
21.6800 7.2111 0.0710
21.7000 7.2178 0.0691
21.7200 7.2244 0.0796
21.7400 7.2311 0.0696
21.7600 7.2377 0.0654
21.7800 7.2443 0.0775
21.8000 7.2510 0.0769
21.8200 7.2577 0.0714
21.8400 7.2644 0.0691
21.8600 7.2711 0.0744
21.8800 7.2777 0.0678
21.9000 7.2844 0.0708
21.9200 7.2910 0.0776
21.9400 7.2976 0.0661
21.9600 7.3042 0.0710
21.9800 7.3109 0.0763
22.0000 7.3176 0.0669
22.0200 7.3243 0.0772
22.0400 7.3310 0.0706
22.0600 7.3377 0.0636
22.0800 7.3444 0.0757
22.1000 7.3510 0.0760
22.1200 7.3577 0.0591
22.1400 7.3643 0.0772
22.1600 7.3710 0.0765
22.1800 7.3777 0.0570
22.2000 7.3844 0.0739
22.2200 7.3911 0.0777
22.2400 7.3978 0.0612
22.2600 7.4045 0.0748
22.2800 7.4111 0.0677
22.3000 7.4177 0.0631
22.3200 7.4243 0.0777
22.3400 7.4310 0.0699
22.3600 7.4377 0.0580
22.3800 7.4444 0.0738
22.4000 7.4511 0.0755
22.4200 7.4578 0.0586
22.4400 7.4645 0.0778
22.4600 7.4711 0.0656
22.4800 7.4777 0.0624
22.5000 7.4843 0.0753
22.5200 7.4910 0.0722
22.5400 7.4977 0.0661
22.5600 7.5044 0.0734
22.5800 7.5111 0.0717
22.6000 7.5177 0.0629
22.6200 7.5244 0.0742
22.6400 7.5311 0.0757
22.6600 7.5377 0.0607
22.6800 7.5443 0.0736
22.7000 7.5510 0.0696
22.7200 7.5577 0.0627
22.7400 7.5644 0.0731
22.7600 7.5710 0.0715
22.7800 7.5777 0.0581
22.8000 7.5844 0.0707
22.8200 7.5910 0.0722
22.8400 7.5977 0.0584
22.8600 7.6043 0.0710
22.8800 7.6110 0.0727
22.9000 7.6177 0.0606
22.9200 7.6244 0.0641
22.9400 7.6311 0.0687
22.9600 7.6378 0.0663
22.9800 7.6444 0.0665
23.0000 7.6511 0.0596
23.0200 7.6577 0.0637
23.0400 7.6643 0.0715
23.0600 7.6710 0.0644
23.0800 7.6777 0.0601
23.1000 7.6844 0.0744
23.1200 7.6911 0.0577
23.1400 7.6978 0.0597
23.1600 7.7044 0.0686
23.1800 7.7111 0.0612
23.2000 7.7177 0.0634
23.2200 7.7243 0.0657
23.2400 7.7310 0.0580
23.2600 7.7377 0.0682
23.2800 7.7443 0.0682
23.3000 7.7510 0.0559
23.3200 7.7577 0.0629
23.3400 7.7644 0.0687
23.3600 7.7711 0.0605
23.3800 7.7777 0.0568
23.4000 7.7843 0.0617
23.4200 7.7909 0.0628
23.4400 7.7976 0.0605
23.4600 7.8044 0.0579
23.4800 7.8111 0.0614
23.5000 7.8177 0.0649
23.5200 7.8244 0.0602
23.5400 7.8311 0.0555
23.5600 7.8377 0.0655
23.5800 7.8443 0.0590
23.6000 7.8510 0.0599
23.6200 7.8577 0.0597
23.6400 7.8644 0.0559
23.6600 7.8711 0.0582
23.6800 7.8777 0.0598
23.7000 7.8844 0.0523
23.7200 7.8911 0.0622
23.7400 7.8977 0.0583
23.7600 7.9043 0.0505
23.7800 7.9110 0.0606
23.8000 7.9176 0.0617
23.8200 7.9244 0.0558
23.8400 7.9311 0.0582
23.8600 7.9378 0.0534
23.8800 7.9445 0.0577
23.9000 7.9511 0.0596
23.9200 7.9577 0.0519
23.9400 7.9643 0.0549
23.9600 7.9710 0.0606
23.9800 7.9777 0.0524
24.0000 7.9844 0.0516
24.0200 7.9911 0.0611
24.0400 7.9978 0.0493
24.0600 8.0044 0.0589
24.0800 8.0111 0.0551
24.1000 8.0177 0.0544
24.1200 8.0243 0.0563
24.1400 8.0310 0.0518
24.1600 8.0376 0.0589
24.1800 8.0443 0.0587
24.2000 8.0510 0.0522
24.2200 8.0577 0.0642
24.2400 8.0643 0.0516
24.2600 8.0710 0.0501
24.2800 8.0777 0.0606
24.3000 8.0843 0.0587
24.3200 8.0909 0.0496
24.3400 8.0976 0.0646
24.3600 8.1044 0.0566
24.3800 8.1111 0.0472
24.4000 8.1178 0.0668
24.4200 8.1245 0.0527
24.4400 8.1312 0.0542
24.4600 8.1378 0.0649
24.4800 8.1443 0.0522
24.5000 8.1510 0.0562
24.5200 8.1577 0.0661
24.5400 8.1644 0.0522
24.5600 8.1711 0.0629
24.5800 8.1778 0.0582
24.6000 8.1844 0.0564
24.6200 8.1911 0.0582
24.6400 8.1977 0.0653
24.6600 8.2043 0.0566
24.6800 8.2109 0.0629
24.7000 8.2176 0.0600
24.7200 8.2243 0.0557
24.7400 8.2310 0.0592
24.7600 8.2377 0.0658
24.7800 8.2444 0.0545
24.8000 8.2511 0.0562
24.8200 8.2577 0.0660
24.8400 8.2643 0.0563
24.8600 8.2709 0.0561
24.8800 8.2776 0.0661
24.9000 8.2843 0.0557
24.9200 8.2910 0.0581
24.9400 8.2977 0.0651
24.9600 8.3044 0.0549
24.9800 8.3111 0.0621
25.0000 8.3177 0.0618
25.0200 8.3243 0.0569
25.0400 8.3310 0.0594
25.0600 8.3377 0.0635
25.0800 8.3444 0.0585
25.1000 8.3511 0.0613
25.1200 8.3578 0.0654
25.1400 8.3644 0.0566
25.1600 8.3711 0.0558
25.1800 8.3778 0.0598
25.2000 8.3844 0.0590
25.2200 8.3910 0.0643
25.2400 8.3977 0.0598
25.2600 8.4044 0.0566
25.2800 8.4111 0.0594
25.3000 8.4177 0.0647
25.3200 8.4244 0.0557
25.3400 8.4311 0.0613
25.3600 8.4377 0.0631
25.3800 8.4443 0.0473
25.4000 8.4509 0.0624
25.4200 8.4576 0.0697
25.4400 8.4643 0.0512
25.4600 8.4710 0.0587
25.4800 8.4777 0.0653
25.5000 8.4844 0.0532
25.5200 8.4911 0.0614
25.5400 8.4977 0.0657
25.5600 8.5043 0.0534
25.5800 8.5109 0.0577
25.6000 8.5176 0.0657
25.6200 8.5243 0.0536
25.6400 8.5311 0.0639
25.6600 8.5377 0.0593
25.6800 8.5444 0.0542
25.7000 8.5511 0.0618
25.7200 8.5577 0.0626
25.7400 8.5644 0.0507
25.7600 8.5710 0.0605
25.7800 8.5777 0.0626
25.8000 8.5844 0.0544
25.8200 8.5911 0.0618
25.8400 8.5977 0.0569
25.8600 8.6044 0.0529
25.8800 8.6111 0.0676
25.9000 8.6178 0.0493
25.9200 8.6243 0.0560
25.9400 8.6310 0.0644
25.9600 8.6377 0.0577
25.9800 8.6444 0.0575
26.0000 8.6511 0.0516
26.0200 8.6578 0.0608
26.0400 8.6644 0.0579
26.0600 8.6711 0.0579
26.0800 8.6777 0.0542
26.1000 8.6843 0.0559
26.1200 8.6910 0.0522
26.1400 8.6977 0.0543
26.1600 8.7044 0.0624
26.1800 8.7111 0.0524
26.2000 8.7177 0.0561
26.2200 8.7244 0.0603
26.2400 8.7311 0.0463
26.2600 8.7377 0.0611
26.2800 8.7443 0.0535
26.3000 8.7509 0.0497
26.3200 8.7576 0.0628
26.3400 8.7643 0.0545
26.3600 8.7710 0.0441
26.3800 8.7777 0.0604
26.4000 8.7844 0.0514
26.4200 8.7911 0.0471
26.4400 8.7977 0.0637
26.4600 8.8043 0.0470
26.4800 8.8110 0.0494
26.5000 8.8176 0.0622
26.5200 8.8244 0.0423
26.5400 8.8311 0.0568
26.5600 8.8378 0.0570
26.5800 8.8445 0.0361
26.6000 8.8511 0.0541
26.6200 8.8578 0.0557
26.6400 8.8644 0.0431
26.6600 8.8710 0.0524
26.6800 8.8777 0.0536
26.7000 8.8844 0.0367
26.7200 8.8911 0.0580
26.7400 8.8977 0.0520
26.7600 8.9044 0.0415
26.7800 8.9111 0.0523
26.8000 8.9178 0.0473
26.8200 8.9244 0.0451
26.8400 8.9310 0.0537
26.8600 8.9376 0.0472
26.8800 8.9443 0.0417
26.9000 8.9510 0.0493
26.9200 8.9577 0.0429
26.9400 8.9644 0.0426
26.9600 8.9711 0.0534
26.9800 8.9777 0.0448
27.0000 8.9843 0.0435
27.0200 8.9909 0.0519
27.0400 8.9976 0.0421
27.0600 9.0043 0.0496
27.0800 9.0110 0.0467
27.1000 9.0177 0.0375
27.1200 9.0244 0.0458
27.1400 9.0310 0.0481
27.1600 9.0377 0.0357
27.1800 9.0443 0.0493
27.2000 9.0509 0.0443
27.2200 9.0576 0.0394
27.2400 9.0644 0.0406
27.2600 9.0711 0.0438
27.2800 9.0778 0.0454
27.3000 9.0844 0.0420
27.3200 9.0911 0.0336
27.3400 9.0978 0.0502
27.3600 9.1044 0.0374
27.3800 9.1110 0.0337
27.4000 9.1177 0.0462
27.4200 9.1244 0.0416
27.4400 9.1311 0.0333
27.4600 9.1378 0.0458
27.4800 9.1445 0.0393
27.5000 9.1511 0.0354
27.5200 9.1578 0.0409
27.5400 9.1644 0.0348
27.5600 9.1709 0.0347
27.5800 9.1776 0.0477
27.6000 9.1843 0.0352
27.6200 9.1910 0.0358
27.6400 9.1977 0.0427
27.6600 9.2044 0.0311
27.6800 9.2111 0.0421
27.7000 9.2177 0.0403
27.7200 9.2244 0.0319
27.7400 9.2310 0.0369
27.7600 9.2376 0.0391
27.7800 9.2443 0.0304
27.8000 9.2510 0.0400
27.8200 9.2577 0.0387
27.8400 9.2644 0.0365
27.8600 9.2710 0.0334
27.8800 9.2777 0.0367
27.9000 9.2844 0.0386
27.9200 9.2910 0.0360
27.9400 9.2977 0.0346
27.9600 9.3043 0.0374
27.9800 9.3110 0.0418
28.0000 9.3177 0.0351
28.0200 9.3244 0.0357
28.0400 9.3311 0.0394
28.0600 9.3378 0.0305
28.0800 9.3444 0.0359
28.1000 9.3510 0.0437
28.1200 9.3576 0.0291
28.1400 9.3643 0.0379
28.1600 9.3711 0.0348
28.1800 9.3778 0.0293
28.2000 9.3844 0.0378
28.2200 9.3911 0.0388
28.2400 9.3977 0.0270
28.2600 9.4044 0.0373
28.2800 9.4110 0.0385
28.3000 9.4176 0.0361
28.3200 9.4244 0.0371
28.3400 9.4311 0.0254
28.3600 9.4377 0.0300
28.3800 9.4444 0.0431
28.4000 9.4511 0.0372
28.4200 9.4578 0.0293
28.4400 9.4644 0.0357
28.4600 9.4709 0.0370
28.4800 9.4776 0.0363
28.5000 9.4842 0.0419
28.5200 9.4910 0.0361
28.5400 9.4977 0.0298
28.5600 9.5044 0.0406
28.5800 9.5110 0.0375
28.6000 9.5177 0.0300
28.6200 9.5243 0.0395
28.6400 9.5309 0.0369
28.6600 9.5376 0.0256
28.6800 9.5443 0.0438
28.7000 9.5511 0.0434
28.7200 9.5578 0.0266
28.7400 9.5644 0.0346
28.7600 9.5711 0.0427
28.7800 9.5778 0.0305
28.8000 9.5844 0.0460
28.8200 9.5911 0.0350
28.8400 9.5977 0.0270
28.8600 9.6044 0.0415
28.8800 9.6111 0.0392
28.9000 9.6177 0.0352
28.9200 9.6244 0.0421
28.9400 9.6311 0.0256
28.9600 9.6378 0.0358
28.9800 9.6444 0.0398
29.0000 9.6510 0.0344
29.0200 9.6576 0.0355
29.0400 9.6643 0.0386
29.0600 9.6710 0.0320
29.0800 9.6777 0.0384
29.1000 9.6844 0.0412
29.1200 9.6910 0.0315
29.1400 9.6977 0.0282
29.1600 9.7043 0.0379
29.1800 9.7110 0.0456
29.2000 9.7176 0.0310
29.2200 9.7243 0.0361
29.2400 9.7311 0.0365
29.2600 9.7378 0.0339
29.2800 9.7444 0.0386
29.3000 9.7510 0.0398
29.3200 9.7577 0.0343
29.3400 9.7644 0.0378
29.3600 9.7710 0.0336
29.3800 9.7777 0.0337
29.4000 9.7844 0.0411
29.4200 9.7910 0.0379
29.4400 9.7977 0.0300
29.4600 9.8044 0.0427
29.4800 9.8111 0.0345
29.5000 9.8178 0.0370
29.5200 9.8244 0.0380
29.5400 9.8310 0.0330
29.5600 9.8376 0.0363
29.5800 9.8443 0.0411
29.6000 9.8510 0.0385
29.6200 9.8578 0.0301
29.6400 9.8644 0.0381
29.6600 9.8711 0.0392
29.6800 9.8777 0.0339
29.7000 9.8844 0.0391
29.7200 9.8910 0.0396
29.7400 9.8976 0.0348
29.7600 9.9043 0.0423
29.7800 9.9110 0.0317
29.8000 9.9177 0.0375
29.8200 9.9244 0.0380
29.8400 9.9310 0.0320
29.8600 9.9377 0.0344
29.8800 9.9444 0.0416
29.9000 9.9510 0.0311
29.9200 9.9576 0.0373
29.9400 9.9643 0.0418
29.9600 9.9710 0.0311
29.9800 9.9777 0.0393
30.0000 9.9844 0.0417
30.0200 9.9911 0.0291
30.0400 9.9977 0.0367
30.0600 10.0044 0.0388
30.0800 10.0110 0.0354
30.1000 10.0176 0.0381
30.1200 10.0243 0.0382
30.1400 10.0311 0.0351
30.1600 10.0378 0.0382
30.1800 10.0444 0.0376
30.2000 10.0511 0.0324
30.2200 10.0578 0.0391
30.2400 10.0644 0.0352
30.2600 10.0710 0.0353
30.2800 10.0777 0.0380
30.3000 10.0843 0.0410
30.3200 10.0910 0.0305
30.3400 10.0977 0.0362
30.3600 10.1044 0.0399
30.3800 10.1111 0.0393
30.4000 10.1178 0.0386
30.4200 10.1244 0.0323
30.4400 10.1310 0.0395
30.4600 10.1376 0.0442
30.4800 10.1443 0.0331
30.5000 10.1510 0.0410
30.5200 10.1577 0.0338
30.5400 10.1644 0.0346
30.5600 10.1711 0.0378
30.5800 10.1777 0.0386
30.6000 10.1844 0.0375
30.6200 10.1910 0.0369
30.6400 10.1976 0.0328
30.6600 10.2042 0.0343
30.6800 10.2110 0.0436
30.7000 10.2177 0.0295
30.7200 10.2244 0.0403
30.7400 10.2310 0.0395
30.7600 10.2377 0.0320
30.7800 10.2444 0.0384
30.8000 10.2510 0.0413
30.8200 10.2576 0.0263
30.8400 10.2643 0.0412
30.8600 10.2710 0.0419
30.8800 10.2777 0.0308
30.9000 10.2844 0.0373
30.9200 10.2911 0.0429
30.9400 10.2978 0.0277
30.9600 10.3045 0.0389
30.9800 10.3111 0.0387
31.0000 10.3177 0.0352
31.0200 10.3243 0.0389
31.0400 10.3310 0.0322
31.0600 10.3377 0.0333
31.0800 10.3444 0.0450
31.1000 10.3511 0.0289
31.1200 10.3578 0.0317
31.1400 10.3644 0.0439
31.1600 10.3710 0.0284
31.1800 10.3776 0.0355
31.2000 10.3843 0.0455
31.2200 10.3910 0.0289
31.2400 10.3977 0.0327
31.2600 10.4044 0.0422
31.2800 10.4110 0.0352
31.3000 10.4177 0.0367
31.3200 10.4244 0.0339
31.3400 10.4310 0.0303
31.3600 10.4376 0.0375
31.3800 10.4443 0.0388
31.4000 10.4510 0.0247
31.4200 10.4577 0.0376
31.4400 10.4644 0.0400
31.4600 10.4710 0.0264
31.4800 10.4777 0.0377
31.5000 10.4844 0.0427
31.5200 10.4910 0.0254
31.5400 10.4976 0.0368
31.5600 10.5043 0.0427
31.5800 10.5110 0.0287
31.6000 10.5177 0.0332
31.6200 10.5244 0.0373
31.6400 10.5311 0.0289
31.6600 10.5378 0.0366
31.6800 10.5444 0.0372
31.7000 10.5510 0.0305
31.7200 10.5576 0.0398
31.7400 10.5643 0.0328
31.7600 10.5710 0.0304
31.7800 10.5778 0.0395
31.8000 10.5844 0.0310
31.8200 10.5911 0.0252
31.8400 10.5978 0.0413
31.8600 10.6044 0.0297
31.8800 10.6110 0.0271
31.9000 10.6177 0.0407
31.9200 10.6243 0.0314
31.9400 10.6310 0.0269
31.9600 10.6377 0.0381
31.9800 10.6444 0.0322
32.0000 10.6510 0.0289
32.0200 10.6577 0.0361
32.0400 10.6644 0.0347
32.0600 10.6710 0.0261
32.0800 10.6776 0.0386
32.1000 10.6843 0.0359
32.1200 10.6910 0.0264
32.1400 10.6977 0.0312
32.1600 10.7044 0.0333
32.1800 10.7110 0.0308
32.2000 10.7177 0.0251
32.2200 10.7244 0.0286
32.2400 10.7310 0.0333
32.2600 10.7376 0.0314
32.2800 10.7443 0.0271
32.3000 10.7510 0.0322
32.3200 10.7578 0.0320
32.3400 10.7644 0.0339
32.3600 10.7711 0.0278
32.3800 10.7778 0.0264
32.4000 10.7844 0.0348
32.4200 10.7911 0.0316
32.4400 10.7977 0.0254
32.4600 10.8043 0.0333
32.4800 10.8110 0.0332
32.5000 10.8177 0.0337
32.5200 10.8244 0.0221
32.5400 10.8311 0.0288
32.5600 10.8378 0.0341
32.5800 10.8444 0.0272
32.6000 10.8511 0.0266
32.6200 10.8577 0.0349
32.6400 10.8643 0.0291
32.6600 10.8710 0.0300
32.6800 10.8777 0.0240
32.7000 10.8844 0.0245
32.7200 10.8911 0.0352
32.7400 10.8978 0.0308
32.7600 10.9044 0.0129
32.7800 10.9110 0.0322
32.8000 10.9176 0.0358
32.8200 10.9243 0.0126
32.8400 10.9310 0.0341
32.8600 10.9377 0.0278
32.8800 10.9444 0.0208
32.9000 10.9510 0.0342
32.9200 10.9577 0.0256
32.9400 10.9644 0.0211
32.9600 10.9710 0.0335
32.9800 10.9776 0.0237
33.0000 10.9843 0.0210
33.0200 10.9910 0.0294
33.0400 10.9977 0.0280
33.0600 11.0044 0.0210
33.0800 11.0111 0.0305
33.1000 11.0178 0.0254
33.1200 11.0245 0.0200
33.1400 11.0311 0.0278
33.1600 11.0377 0.0262
33.1800 11.0443 0.0236
33.2000 11.0510 0.0282
33.2200 11.0577 0.0197
33.2400 11.0644 0.0160
33.2600 11.0711 0.0331
33.2800 11.0778 0.0278
33.3000 11.0844 0.0161
33.3200 11.0910 0.0319
33.3400 11.0976 0.0273
33.3600 11.1043 0.0181
33.3800 11.1110 0.0360
33.4000 11.1177 0.0175
33.4200 11.1244 0.0172
33.4400 11.1310 0.0312
33.4600 11.1377 0.0191
33.4800 11.1444 0.0165
33.5000 11.1510 0.0381
33.5200 11.1576 0.0211
33.5400 11.1643 0.0187
33.5600 11.1710 0.0299
33.5800 11.1777 0.0210
33.6000 11.1844 0.0212
33.6200 11.1911 0.0278
33.6400 11.1978 0.0197
33.6600 11.2044 0.0231
33.6800 11.2111 0.0209
33.7000 11.2177 0.0222
33.7200 11.2243 0.0257
33.7400 11.2310 0.0237
33.7600 11.2377 0.0204
33.7800 11.2444 0.0205
33.8000 11.2511 0.0244
33.8200 11.2578 0.0175
33.8400 11.2644 0.0244
33.8600 11.2710 0.0192
33.8800 11.2776 0.0244
33.9000 11.2843 0.0235
33.9200 11.2910 0.0232
33.9400 11.2977 0.0187
33.9600 11.3044 0.0211
33.9800 11.3111 0.0239
34.0000 11.3178 0.0218
34.0200 11.3244 0.0181
34.0400 11.3311 0.0230
34.0600 11.3377 0.0189
34.0800 11.3443 0.0259
34.1000 11.3510 0.0215
34.1200 11.3577 0.0199
34.1400 11.3644 0.0195
34.1600 11.3711 0.0230
34.1800 11.3777 0.0208
34.2000 11.3844 0.0245
34.2200 11.3911 0.0241
34.2400 11.3976 0.0168
34.2600 11.4043 0.0282
34.2800 11.4109 0.0188
34.3000 11.4177 0.0201
34.3200 11.4244 0.0292
34.3400 11.4310 0.0167
34.3600 11.4377 0.0178
34.3800 11.4444 0.0252
34.4000 11.4510 0.0171
34.4200 11.4577 0.0208
34.4400 11.4643 0.0247
34.4600 11.4710 0.0221
34.4800 11.4777 0.0205
34.5000 11.4844 0.0206
34.5200 11.4911 0.0184
34.5400 11.4978 0.0250
34.5600 11.5044 0.0199
34.5800 11.5111 0.0146
34.6000 11.5177 0.0275
34.6200 11.5243 0.0230
34.6400 11.5310 0.0147
34.6600 11.5377 0.0247
34.6800 11.5444 0.0193
34.7000 11.5511 0.0169
34.7200 11.5578 0.0245
34.7400 11.5644 0.0153
34.7600 11.5711 0.0157
34.7800 11.5777 0.0311
34.8000 11.5843 0.0191
34.8200 11.5910 0.0149
34.8400 11.5977 0.0306
34.8600 11.6044 0.0151
34.8800 11.6111 0.0203
34.9000 11.6177 0.0281
34.9200 11.6244 0.0112
34.9400 11.6310 0.0194
34.9600 11.6376 0.0277
34.9800 11.6443 0.0101
35.0000 11.6510 0.0207
35.0200 11.6577 0.0267
35.0400 11.6643 0.0073
35.0600 11.6710 0.0167
35.0800 11.6777 0.0328
35.1000 11.6844 0.0097
35.1200 11.6910 0.0217
35.1400 11.6977 0.0256
35.1600 11.7043 0.0125
35.1800 11.7110 0.0258
35.2000 11.7177 0.0216
35.2200 11.7244 0.0081
35.2400 11.7311 0.0261
35.2600 11.7378 0.0197
35.2800 11.7445 0.0027
35.3000 11.7511 0.0276
35.3200 11.7577 0.0187
35.3400 11.7643 0.0091
35.3600 11.7710 0.0261
35.3800 11.7777 0.0116
35.4000 11.7844 0.0134
35.4200 11.7911 0.0280
35.4400 11.7978 0.0088
35.4600 11.8044 0.0184
35.4800 11.8111 0.0214
35.5000 11.8177 0.0110
35.5200 11.8243 0.0155
35.5400 11.8310 0.0247
35.5600 11.8377 0.0123
35.5800 11.8444 0.0237
35.6000 11.8510 0.0165
35.6200 11.8577 0.0163
35.6400 11.8644 0.0188
35.6600 11.8711 0.0155
35.6800 11.8777 0.0191
35.7000 11.8843 0.0213
35.7200 11.8909 0.0170
35.7400 11.8977 0.0210
35.7600 11.9044 0.0145
35.7800 11.9111 0.0164
35.8000 11.9178 0.0180
35.8200 11.9244 0.0194
35.8400 11.9311 0.0170
35.8600 11.9377 0.0156
35.8800 11.9443 0.0236
35.9000 11.9510 0.0153
35.9200 11.9577 0.0177
35.9400 11.9644 0.0176
35.9600 11.9711 0.0183
35.9800 11.9777 0.0239
36.0000 11.9844 0.0181
36.0200 11.9911 0.0085
36.0400 11.9977 0.0267
36.0600 12.0043 0.0283
36.0800 12.0110 0.0105
36.1000 12.0177 0.0187
36.1200 12.0244 0.0226
36.1400 12.0311 0.0122
36.1600 12.0378 0.0241
36.1800 12.0444 0.0228
36.2000 12.0511 0.0156
36.2200 12.0577 0.0194
36.2400 12.0643 0.0209
36.2600 12.0710 0.0207
36.2800 12.0777 0.0236
36.3000 12.0844 0.0139
36.3200 12.0911 0.0179
36.3400 12.0978 0.0262
36.3600 12.1044 0.0129
36.3800 12.1110 0.0198
36.4000 12.1177 0.0208
36.4200 12.1243 0.0189
36.4400 12.1309 0.0200
36.4600 12.1376 0.0238
36.4800 12.1444 0.0183
36.5000 12.1510 0.0206
36.5200 12.1577 0.0182
36.5400 12.1644 0.0276
36.5600 12.1710 0.0184
36.5800 12.1777 0.0167
36.6000 12.1843 0.0254
36.6200 12.1910 0.0224
36.6400 12.1977 0.0156
36.6600 12.2044 0.0244
36.6800 12.2111 0.0182
36.7000 12.2178 0.0207
36.7200 12.2245 0.0228
36.7400 12.2311 0.0233
36.7600 12.2377 0.0164
36.7800 12.2443 0.0204
36.8000 12.2510 0.0202
36.8200 12.2577 0.0210
36.8400 12.2644 0.0233
36.8600 12.2711 0.0182
36.8800 12.2778 0.0228
36.9000 12.2844 0.0162
36.9200 12.2911 0.0239
36.9400 12.2977 0.0170
36.9600 12.3043 0.0158
36.9800 12.3109 0.0240
37.0000 12.3177 0.0152
37.0200 12.3244 0.0147
37.0400 12.3311 0.0218
37.0600 12.3377 0.0157
37.0800 12.3444 0.0220
37.1000 12.3511 0.0142
37.1200 12.3577 0.0120
37.1400 12.3643 0.0262
37.1600 12.3710 0.0265
37.1800 12.3776 0.0011
37.2000 12.3843 0.0222
37.2200 12.3910 0.0237
37.2400 12.3977 0.0089
37.2600 12.4044 0.0209
37.2800 12.4111 0.0200
37.3000 12.4177 0.0126
37.3200 12.4243 0.0224
37.3400 12.4310 0.0190
37.3600 12.4377 0.0103
37.3800 12.4444 0.0204
37.4000 12.4511 0.0141
37.4200 12.4578 0.0112
37.4400 12.4644 0.0228
37.4600 12.4711 0.0165
37.4800 12.4777 0.0065
37.5000 12.4843 0.0209
37.5200 12.4910 0.0197
37.5400 12.4977 0.0125
37.5600 12.5044 0.0165
37.5800 12.5111 0.0159
37.6000 12.5178 0.0071
37.6200 12.5244 0.0222
37.6400 12.5311 0.0158
37.6600 12.5377 0.0116
37.6800 12.5443 0.0185
37.7000 12.5510 0.0170
37.7200 12.5576 0.0054
37.7400 12.5643 0.0198
37.7600 12.5710 0.0177
37.7800 12.5777 0.0070
37.8000 12.5844 0.0172
37.8200 12.5911 0.0112
37.8400 12.5977 0.0109
37.8600 12.6043 0.0217
37.8800 12.6109 0.0160
37.9000 12.6176 0.0091
37.9200 12.6243 0.0194
37.9400 12.6310 0.0110
37.9600 12.6377 0.0108
37.9800 12.6444 0.0191
38.0000 12.6511 0.0130
38.0200 12.6577 0.0056
38.0400 12.6643 0.0205
38.0600 12.6710 0.0110
38.0800 12.6777 0.0075
38.1000 12.6844 0.0211
38.1200 12.6910 0.0107
38.1400 12.6977 0.0027
38.1600 12.7044 0.0236
38.1800 12.7111 0.0080
38.2000 12.7178 0.0087
38.2200 12.7243 0.0162
38.2400 12.7310 0.0063
38.2600 12.7376 0.0125
38.2800 12.7443 0.0165
38.3000 12.7511 0.0052
38.3200 12.7577 0.0108
38.3400 12.7644 0.0161
38.3600 12.7711 0.0031
38.3800 12.7777 0.0110
38.4000 12.7843 0.0162
38.4200 12.7910 0.0050
38.4400 12.7977 0.0065
38.4600 12.8044 0.0144
38.4800 12.8111 0.0063
38.5000 12.8178 0.0079
38.5200 12.8244 0.0166
38.5400 12.8311 0.0066
38.5600 12.8377 0.0052
38.5800 12.8443 0.0167
38.6000 12.8509 0.0067
38.6200 12.8576 0.0082
38.6400 12.8643 0.0120
38.6600 12.8710 0.0100
38.6800 12.8777 0.0039
38.7000 12.8844 0.0127
38.7200 12.8910 0.0075
38.7400 12.8977 0.0001
38.7600 12.9043 0.0170
38.7800 12.9109 0.0086
38.8000 12.9176 0.0045
38.8200 12.9244 0.0187
38.8400 12.9311 0.0061
38.8600 12.9378 0.0054
38.8800 12.9445 0.0114
38.9000 12.9511 0.0092
38.9200 12.9578 0.0022
38.9400 12.9644 0.0142
38.9600 12.9710 0.0132
38.9800 12.9777 -0.0006
39.0000 12.9844 0.0094
39.0200 12.9911 0.0065
39.0400 12.9978 0.0031
39.0600 13.0045 0.0130
39.0800 13.0111 0.0067
39.1000 13.0178 -0.0038
39.1200 13.0243 0.0138
39.1400 13.0310 0.0086
39.1600 13.0376 0.0004
39.1800 13.0443 0.0118
39.2000 13.0510 0.0088
39.2200 13.0577 -0.0032
39.2400 13.0644 0.0121
39.2600 13.0711 0.0044
39.2800 13.0777 0.0034
39.3000 13.0843 0.0105
39.3200 13.0909 0.0045
39.3400 13.0976 0.0041
39.3600 13.1043 0.0084
39.3800 13.1110 0.0058
39.4000 13.1177 0.0007
39.4200 13.1244 0.0058
39.4400 13.1311 0.0033
39.4600 13.1377 0.0039
39.4800 13.1443 0.0060
39.5000 13.1509 0.0083
39.5200 13.1576 0.0065
39.5400 13.1644 0.0041
39.5600 13.1711 0.0041
39.5800 13.1778 0.0058
39.6000 13.1844 0.0070
39.6200 13.1911 0.0071
39.6400 13.1978 -0.0059
39.6600 13.2044 0.0124
39.6800 13.2110 0.0045
39.7000 13.2177 0.0016
39.7200 13.2244 0.0082
39.7400 13.2311 0.0048
39.7600 13.2378 0.0003
39.7800 13.2444 0.0071
39.8000 13.2511 0.0049
39.8200 13.2578 0.0001
39.8400 13.2644 0.0062
39.8600 13.2710 0.0046
39.8800 13.2776 0.0036
39.9000 13.2843 0.0092
39.9200 13.2911 0.0055
39.9400 13.2977 0.0007
39.9600 13.3044 0.0058
39.9800 13.3111 0.0026
40.0000 13.3177 0.0054
40.0200 13.3243 0.0054
40.0400 13.3309 0.0013
40.0600 13.3376 0.0071
40.0800 13.3443 0.0135
40.1000 13.3510 -0.0001
40.1200 13.3577 0.0043
40.1400 13.3644 0.0117
40.1600 13.3711 -0.0019
40.1800 13.3777 0.0003
40.2000 13.3844 0.0159
40.2200 13.3910 0.0022
40.2400 13.3977 0.0037
40.2600 13.4044 0.0124
40.2800 13.4110 -0.0007
40.3000 13.4177 -0.0012
40.3200 13.4244 0.0261
40.3400 13.4311 -0.0017
40.3600 13.4378 -0.0080
40.3800 13.4444 0.0220
40.4000 13.4510 0.0013
40.4200 13.4576 -0.0055
40.4400 13.4644 0.0209
40.4600 13.4711 0.0045
40.4800 13.4778 -0.0142
40.5000 13.4844 0.0145
40.5200 13.4911 0.0072
40.5400 13.4977 -0.0067
40.5600 13.5044 0.0184
40.5800 13.5110 0.0013
40.6000 13.5177 -0.0100
40.6200 13.5244 0.0241
40.6400 13.5311 -0.0052
40.6600 13.5377 -0.0050
40.6800 13.5444 0.0205
40.7000 13.5511 -0.0058
40.7200 13.5577 -0.0075
40.7400 13.5643 0.0234
40.7600 13.5709 -0.0069
40.7800 13.5776 -0.0004
40.8000 13.5843 0.0188
40.8200 13.5910 -0.0153
40.8400 13.5977 0.0052
40.8600 13.6044 0.0210
40.8800 13.6111 -0.0162
40.9000 13.6177 0.0050
40.9200 13.6243 0.0130
40.9400 13.6310 -0.0138
40.9600 13.6376 0.0133
40.9800 13.6444 0.0105
41.0000 13.6511 -0.0120
41.0200 13.6578 0.0127
41.0400 13.6645 0.0015
41.0600 13.6711 -0.0090
41.0800 13.6778 0.0141
41.1000 13.6844 0.0024
41.1200 13.6910 -0.0039
41.1400 13.6977 0.0118
41.1600 13.7044 -0.0006
41.1800 13.7111 -0.0052
41.2000 13.7177 0.0149
41.2200 13.7244 -0.0023
41.2400 13.7311 0.0037
41.2600 13.7377 0.0052
41.2800 13.7444 0.0001
41.3000 13.7510 0.0043
41.3200 13.7576 0.0077
41.3400 13.7643 0.0014
41.3600 13.7710 -0.0005
41.3800 13.7777 0.0071
41.4000 13.7844 0.0041
41.4200 13.7911 0.0013
41.4400 13.7977 0.0041
41.4600 13.8044 0.0013
41.4800 13.8110 0.0031
41.5000 13.8176 0.0073
41.5200 13.8243 0.0025
41.5400 13.8310 -0.0015
41.5600 13.8377 0.0078
41.5800 13.8444 0.0066
41.6000 13.8511 -0.0007
41.6200 13.8577 0.0097
41.6400 13.8644 -0.0008
41.6600 13.8710 0.0012
41.6800 13.8776 0.0024
41.7000 13.8844 0.0043
41.7200 13.8911 -0.0026
41.7400 13.8978 0.0076
41.7600 13.9044 -0.0015
41.7800 13.9111 0.0040
41.8000 13.9178 0.0081
41.8200 13.9244 0.0005
41.8400 13.9310 -0.0011
41.8600 13.9377 0.0076
41.8800 13.9444 -0.0021
41.9000 13.9511 0.0006
41.9200 13.9578 0.0085
41.9400 13.9645 -0.0039
41.9600 13.9711 -0.0006
41.9800 13.9778 0.0088
42.0000 13.9844 -0.0038
42.0200 13.9910 0.0030
42.0400 13.9976 0.0076
42.0600 14.0043 -0.0088
42.0800 14.0110 0.0053
42.1000 14.0177 0.0074
42.1200 14.0244 -0.0061
42.1400 14.0311 0.0048
42.1600 14.0377 0.0058
42.1800 14.0444 -0.0144
42.2000 14.0510 0.0074
42.2200 14.0576 0.0094
42.2400 14.0643 -0.0087
42.2600 14.0710 0.0010
42.2800 14.0777 0.0067
42.3000 14.0844 -0.0063
42.3200 14.0910 0.0004
42.3400 14.0977 0.0058
42.3600 14.1044 0.0007
42.3800 14.1110 -0.0034
42.4000 14.1176 0.0036
42.4200 14.1243 0.0017
42.4400 14.1310 0.0058
42.4600 14.1377 0.0032
42.4800 14.1444 -0.0025
42.5000 14.1511 -0.0012
42.5200 14.1578 0.0054
42.5400 14.1644 0.0045
42.5600 14.1710 -0.0030
42.5800 14.1776 0.0079
42.6000 14.1843 0.0035
42.6200 14.1911 -0.0066
42.6400 14.1978 0.0069
42.6600 14.2044 0.0061
42.6800 14.2111 -0.0043
42.7000 14.2178 0.0060
42.7200 14.2244 0.0007
42.7400 14.2310 -0.0031
42.7600 14.2376 0.0094
42.7800 14.2443 -0.0003
42.8000 14.2510 -0.0101
42.8200 14.2577 0.0186
42.8400 14.2644 0.0020
42.8600 14.2711 -0.0092
42.8800 14.2778 0.0117
42.9000 14.2844 0.0001
42.9200 14.2910 0.0000
42.9400 14.2976 0.0083
42.9600 14.3042 -0.0055
42.9800 14.3110 -0.0024
43.0000 14.3177 0.0101
43.0200 14.3244 -0.0086
43.0400 14.3310 0.0044
43.0600 14.3377 0.0095
43.0800 14.3443 -0.0102
43.1000 14.3509 0.0079
43.1200 14.3576 0.0155
43.1400 14.3643 -0.0093
43.1600 14.3710 0.0064
43.1800 14.3777 0.0056
43.2000 14.3844 -0.0052
43.2200 14.3911 0.0030
43.2400 14.3978 0.0038
43.2600 14.4044 -0.0081
43.2800 14.4110 0.0045
43.3000 14.4177 0.0038
43.3200 14.4244 0.0001
43.3400 14.4311 0.0004
43.3600 14.4378 -0.0018
43.3800 14.4444 0.0018
43.4000 14.4511 -0.0023
43.4200 14.4578 -0.0035
43.4400 14.4644 0.0040
43.4600 14.4710 0.0008
43.4800 14.4776 0.0057
43.5000 14.4843 -0.0002
43.5200 14.4910 0.0003
43.5400 14.4977 0.0039
43.5600 14.5044 -0.0008
43.5800 14.5111 -0.0028
43.6000 14.5177 0.0039
43.6200 14.5243 -0.0012
43.6400 14.5310 -0.0055
43.6600 14.5376 0.0093
43.6800 14.5443 -0.0019
43.7000 14.5510 -0.0046
43.7200 14.5577 0.0005
43.7400 14.5644 -0.0008
43.7600 14.5710 -0.0015
43.7800 14.5777 -0.0017
43.8000 14.5844 -0.0051
43.8200 14.5910 -0.0019
43.8400 14.5977 -0.0008
43.8600 14.6043 -0.0038
43.8800 14.6110 0.0002
43.9000 14.6177 -0.0053
43.9200 14.6244 -0.0015
43.9400 14.6311 0.0038
43.9600 14.6378 -0.0025
43.9800 14.6445 0.0006
44.0000 14.6510 -0.0008
44.0200 14.6576 -0.0028
44.0400 14.6643 0.0013
44.0600 14.6710 -0.0034
44.0800 14.6777 -0.0048
44.1000 14.6844 0.0052
44.1200 14.6911 -0.0047
44.1400 14.6978 -0.0059
44.1600 14.7044 0.0027
44.1800 14.7110 -0.0077
44.2000 14.7176 -0.0024
44.2200 14.7243 0.0027
44.2400 14.7310 -0.0052
44.2600 14.7377 -0.0075
44.2800 14.7444 0.0030
44.3000 14.7511 -0.0062
44.3200 14.7577 -0.0015
44.3400 14.7644 -0.0016
44.3600 14.7710 -0.0044
44.3800 14.7776 -0.0026
44.4000 14.7843 -0.0022
44.4200 14.7910 -0.0113
44.4400 14.7977 0.0015
44.4600 14.8044 -0.0044
44.4800 14.8111 -0.0076
44.5000 14.8178 0.0021
44.5200 14.8244 -0.0061
44.5400 14.8310 -0.0111
44.5600 14.8376 -0.0040
44.5800 14.8443 -0.0040
44.6000 14.8510 -0.0102
44.6200 14.8578 -0.0035
44.6400 14.8644 -0.0018
44.6600 14.8711 -0.0090
44.6800 14.8778 -0.0080
44.7000 14.8844 -0.0070
44.7200 14.8910 -0.0102
44.7400 14.8976 -0.0009
44.7600 14.9043 -0.0051
44.7800 14.9110 -0.0126
44.8000 14.9178 -0.0108
44.8200 14.9244 -0.0009
44.8400 14.9311 -0.0141
44.8600 14.9378 -0.0067
44.8800 14.9444 -0.0065
44.9000 14.9510 -0.0071
44.9200 14.9576 -0.0085
44.9400 14.9643 -0.0060
44.9600 14.9710 -0.0075
44.9800 14.9777 -0.0103
45.0000 14.9844 -0.0090
45.0200 14.9911 -0.0090
45.0400 14.9977 -0.0041
45.0600 15.0044 -0.0087
45.0800 15.0110 -0.0126
45.1000 15.0176 -0.0056
45.1200 15.0242 -0.0047
45.1400 15.0310 -0.0100
45.1600 15.0377 -0.0092
45.1800 15.0444 -0.0104
45.2000 15.0511 -0.0061
45.2200 15.0577 -0.0156
45.2400 15.0644 -0.0070
45.2600 15.0710 -0.0081
45.2800 15.0776 -0.0078
45.3000 15.0843 -0.0104
45.3200 15.0910 -0.0077
45.3400 15.0977 -0.0076
45.3600 15.1044 -0.0100
45.3800 15.1111 -0.0100
45.4000 15.1178 -0.0113
45.4200 15.1244 -0.0123
45.4400 15.1311 -0.0092
45.4600 15.1377 -0.0119
45.4800 15.1443 -0.0080
45.5000 15.1510 -0.0127
45.5200 15.1577 -0.0092
45.5400 15.1644 -0.0135
45.5600 15.1711 -0.0104
45.5800 15.1778 -0.0057
45.6000 15.1844 -0.0148
45.6200 15.1910 -0.0088
45.6400 15.1976 -0.0104
45.6600 15.2043 -0.0144
45.6800 15.2110 -0.0114
45.7000 15.2177 -0.0072
45.7200 15.2244 -0.0128
45.7400 15.2311 -0.0093
45.7600 15.2377 -0.0109
45.7800 15.2444 -0.0123
45.8000 15.2510 -0.0136
45.8200 15.2576 -0.0080
45.8400 15.2643 -0.0129
45.8600 15.2710 -0.0106
45.8800 15.2777 -0.0131
45.9000 15.2844 -0.0142
45.9200 15.2910 -0.0106
45.9400 15.2977 -0.0120
45.9600 15.3044 -0.0171
45.9800 15.3110 -0.0114
46.0000 15.3177 -0.0131
46.0200 15.3243 -0.0132
46.0400 15.3310 -0.0082
46.0600 15.3377 -0.0198
46.0800 15.3444 -0.0159
46.1000 15.3511 -0.0075
46.1200 15.3578 -0.0158
46.1400 15.3644 -0.0107
46.1600 15.3710 -0.0080
46.1800 15.3776 -0.0200
46.2000 15.3843 -0.0093
46.2200 15.3910 -0.0059
46.2400 15.3977 -0.0213
46.2600 15.4044 -0.0176
46.2800 15.4111 -0.0049
46.3000 15.4178 -0.0194
46.3200 15.4245 -0.0146
46.3400 15.4311 -0.0079
46.3600 15.4376 -0.0179
46.3800 15.4443 -0.0096
46.4000 15.4510 -0.0054
46.4200 15.4577 -0.0230
46.4400 15.4644 -0.0107
46.4600 15.4710 -0.0132
46.4800 15.4777 -0.0226
46.5000 15.4844 -0.0130
46.5200 15.4910 -0.0078
46.5400 15.4976 -0.0270
46.5600 15.5043 -0.0108
46.5800 15.5109 -0.0095
46.6000 15.5177 -0.0248
46.6200 15.5244 -0.0097
46.6400 15.5310 -0.0145
46.6600 15.5377 -0.0266
46.6800 15.5444 -0.0109
46.7000 15.5510 -0.0163
46.7200 15.5577 -0.0303
46.7400 15.5643 -0.0073
46.7600 15.5710 -0.0133
46.7800 15.5777 -0.0265
46.8000 15.5844 -0.0092
46.8200 15.5911 -0.0161
46.8400 15.5978 -0.0322
46.8600 15.6044 -0.0068
46.8800 15.6111 -0.0207
46.9000 15.6177 -0.0268
46.9200 15.6243 -0.0103
46.9400 15.6310 -0.0163
46.9600 15.6377 -0.0288
46.9800 15.6444 -0.0110
47.0000 15.6511 -0.0173
47.0200 15.6578 -0.0263
47.0400 15.6644 -0.0181
47.0600 15.6711 -0.0207
47.0800 15.6777 -0.0274
47.1000 15.6843 -0.0106
47.1200 15.6910 -0.0268
47.1400 15.6977 -0.0270
47.1600 15.7044 -0.0129
47.1800 15.7111 -0.0235
47.2000 15.7178 -0.0260
47.2200 15.7244 -0.0200
47.2400 15.7310 -0.0182
47.2600 15.7376 -0.0269
47.2800 15.7442 -0.0183
47.3000 15.7509 -0.0205
47.3200 15.7577 -0.0277
47.3400 15.7644 -0.0223
47.3600 15.7710 -0.0202
47.3800 15.7777 -0.0249
47.4000 15.7844 -0.0218
47.4200 15.7910 -0.0244
47.4400 15.7976 -0.0257
47.4600 15.8043 -0.0189
47.4800 15.8110 -0.0173
47.5000 15.8177 -0.0296
47.5200 15.8244 -0.0211
47.5400 15.8311 -0.0208
47.5600 15.8378 -0.0287
47.5800 15.8445 -0.0233
47.6000 15.8511 -0.0171
47.6200 15.8577 -0.0262
47.6400 15.8643 -0.0216
47.6600 15.8710 -0.0145
47.6800 15.8777 -0.0295
47.7000 15.8844 -0.0261
47.7200 15.8911 -0.0171
47.7400 15.8978 -0.0296
47.7600 15.9044 -0.0289
47.7800 15.9110 -0.0136
47.8000 15.9176 -0.0284
47.8200 15.9243 -0.0244
47.8400 15.9310 -0.0162
47.8600 15.9377 -0.0255
47.8800 15.9444 -0.0261
47.9000 15.9510 -0.0149
47.9200 15.9577 -0.0255
47.9400 15.9644 -0.0262
47.9600 15.9710 -0.0179
47.9800 15.9776 -0.0194
48.0000 15.9843 -0.0191
48.0200 15.9910 -0.0206
48.0400 15.9977 -0.0224
48.0600 16.0044 -0.0163
48.0800 16.0111 -0.0223
48.1000 16.0177 -0.0215
48.1200 16.0244 -0.0180
48.1400 16.0311 -0.0214
48.1600 16.0377 -0.0216
48.1800 16.0443 -0.0182
48.2000 16.0510 -0.0101
48.2200 16.0577 -0.0261
48.2400 16.0644 -0.0291
48.2600 16.0711 -0.0082
48.2800 16.0778 -0.0171
48.3000 16.0844 -0.0338
48.3200 16.0911 -0.0057
48.3400 16.0977 -0.0166
48.3600 16.1043 -0.0284
48.3800 16.1110 -0.0077
48.4000 16.1177 -0.0168
48.4200 16.1244 -0.0254
48.4400 16.1311 -0.0061
48.4600 16.1377 -0.0257
48.4800 16.1444 -0.0222
48.5000 16.1511 -0.0037
48.5200 16.1577 -0.0217
48.5400 16.1643 -0.0262
48.5600 16.1710 0.0018
48.5800 16.1777 -0.0205
48.6000 16.1844 -0.0203
48.6200 16.1911 -0.0079
48.6400 16.1978 -0.0176
48.6600 16.2044 -0.0172
48.6800 16.2111 -0.0126
48.7000 16.2177 -0.0158
48.7200 16.2243 -0.0154
48.7400 16.2309 -0.0085
48.7600 16.2377 -0.0152
48.7800 16.2444 -0.0146
48.8000 16.2511 -0.0147
48.8200 16.2577 -0.0083
48.8400 16.2644 -0.0164
48.8600 16.2710 -0.0126
48.8800 16.2777 -0.0069
48.9000 16.2843 -0.0227
48.9200 16.2910 -0.0120
48.9400 16.2977 -0.0026
48.9600 16.3044 -0.0217
48.9800 16.3111 -0.0081
49.0000 16.3178 -0.0085
49.0200 16.3244 -0.0187
49.0400 16.3311 -0.0140
49.0600 16.3377 -0.0022
49.0800 16.3443 -0.0217
49.1000 16.3510 -0.0076
49.1200 16.3577 0.0002
49.1400 16.3644 -0.0246
49.1600 16.3711 -0.0055
49.1800 16.3778 0.0026
49.2000 16.3845 -0.0236
49.2200 16.3911 -0.0085
49.2400 16.3977 -0.0002
49.2600 16.4043 -0.0235
49.2800 16.4110 -0.0004
49.3000 16.4177 -0.0031
49.3200 16.4244 -0.0248
49.3400 16.4311 -0.0053
49.3600 16.4378 0.0014
49.3800 16.4444 -0.0251
49.4000 16.4510 -0.0008
49.4200 16.4576 -0.0035
49.4400 16.4643 -0.0268
49.4600 16.4709 -0.0041
49.4800 16.4777 -0.0062
49.5000 16.4844 -0.0248
49.5200 16.4910 -0.0014
49.5400 16.4977 -0.0089
49.5600 16.5044 -0.0206
49.5800 16.5110 -0.0045
49.6000 16.5177 -0.0074
49.6200 16.5243 -0.0194
49.6400 16.5310 -0.0070
49.6600 16.5377 -0.0116
49.6800 16.5444 -0.0183
49.7000 16.5511 -0.0074
49.7200 16.5578 -0.0121
49.7400 16.5645 -0.0181
49.7600 16.5711 -0.0191
49.7800 16.5777 -0.0127
49.8000 16.5843 -0.0124
49.8200 16.5910 -0.0148
49.8400 16.5977 -0.0149
49.8600 16.6044 -0.0196
49.8800 16.6111 -0.0230
49.9000 16.6178 -0.0119
49.9200 16.6244 -0.0206
49.9400 16.6311 -0.0211
49.9600 16.6377 -0.0145
49.9800 16.6443 -0.0238
50.0000 16.6510 -0.0275
50.0200 16.6577 -0.0080
50.0400 16.6644 -0.0282
50.0600 16.6710 -0.0282
50.0800 16.6777 -0.0125
50.1000 16.6844 -0.0288
50.1200 16.6911 -0.0326
50.1400 16.6977 -0.0157
50.1600 16.7043 -0.0334
50.1800 16.7109 -0.0338
50.2000 16.7176 -0.0177
50.2200 16.7244 -0.0378
50.2400 16.7311 -0.0293
50.2600 16.7378 -0.0172
50.2800 16.7444 -0.0457
50.3000 16.7511 -0.0301
50.3200 16.7577 -0.0176
50.3400 16.7643 -0.0403
50.3600 16.7709 -0.0265
50.3800 16.7777 -0.0230
50.4000 16.7844 -0.0424
50.4200 16.7911 -0.0277
50.4400 16.7977 -0.0198
50.4600 16.8044 -0.0453
50.4800 16.8111 -0.0247
50.5000 16.8177 -0.0282
50.5200 16.8243 -0.0413
50.5400 16.8310 -0.0235
50.5600 16.8377 -0.0265
50.5800 16.8444 -0.0453
50.6000 16.8511 -0.0268
50.6200 16.8578 -0.0311
50.6400 16.8644 -0.0402
50.6600 16.8711 -0.0264
50.6800 16.8777 -0.0305
50.7000 16.8843 -0.0404
50.7200 16.8910 -0.0292
50.7400 16.8976 -0.0325
50.7600 16.9044 -0.0409
50.7800 16.9111 -0.0292
50.8000 16.9177 -0.0334
50.8200 16.9244 -0.0397
50.8400 16.9311 -0.0308
50.8600 16.9377 -0.0336
50.8800 16.9443 -0.0362
50.9000 16.9509 -0.0251
50.9200 16.9576 -0.0341
50.9400 16.9643 -0.0397
50.9600 16.9710 -0.0251
50.9800 16.9777 -0.0309
51.0000 16.9844 -0.0446
51.0200 16.9910 -0.0267
51.0400 16.9977 -0.0318
51.0600 17.0043 -0.0397
51.0800 17.0110 -0.0248
51.1000 17.0177 -0.0356
51.1200 17.0244 -0.0455
51.1400 17.0311 -0.0225
51.1600 17.0378 -0.0356
51.1800 17.0445 -0.0388
51.2000 17.0511 -0.0213
51.2200 17.0578 -0.0423
51.2400 17.0643 -0.0400
51.2600 17.0710 -0.0188
51.2800 17.0777 -0.0383
51.3000 17.0844 -0.0408
51.3200 17.0911 -0.0228
51.3400 17.0978 -0.0395
51.3600 17.1045 -0.0344
51.3800 17.1111 -0.0226
51.4000 17.1177 -0.0380
51.4200 17.1243 -0.0361
51.4400 17.1309 -0.0216
51.4600 17.1377 -0.0327
51.4800 17.1444 -0.0342
51.5000 17.1511 -0.0275
51.5200 17.1577 -0.0334
51.5400 17.1644 -0.0316
51.5600 17.1711 -0.0285
51.5800 17.1777 -0.0349
51.6000 17.1843 -0.0199
51.6200 17.1910 -0.0331
51.6400 17.1976 -0.0390
51.6600 17.2043 -0.0209
51.6800 17.2110 -0.0337
51.7000 17.2177 -0.0351
51.7200 17.2244 -0.0180
51.7400 17.2311 -0.0362
51.7600 17.2377 -0.0399
51.7800 17.2443 -0.0164
51.8000 17.2510 -0.0342
51.8200 17.2577 -0.0340
51.8400 17.2644 -0.0177
51.8600 17.2711 -0.0393
51.8800 17.2778 -0.0312
51.9000 17.2845 -0.0158
51.9200 17.2911 -0.0406
51.9400 17.2977 -0.0286
51.9600 17.3043 -0.0219
51.9800 17.3110 -0.0348
52.0000 17.3177 -0.0302
52.0200 17.3244 -0.0207
52.0400 17.3311 -0.0402
52.0600 17.3378 -0.0253
52.0800 17.3444 -0.0246
52.1000 17.3511 -0.0356
52.1200 17.3577 -0.0289
52.1400 17.3643 -0.0232
52.1600 17.3710 -0.0337
52.1800 17.3777 -0.0265
52.2000 17.3844 -0.0238
52.2200 17.3910 -0.0276
52.2400 17.3977 -0.0281
52.2600 17.4044 -0.0246
52.2800 17.4111 -0.0296
52.3000 17.4177 -0.0329
52.3200 17.4243 -0.0224
52.3400 17.4309 -0.0263
52.3600 17.4376 -0.0309
52.3800 17.4443 -0.0306
52.4000 17.4511 -0.0223
52.4200 17.4577 -0.0315
52.4400 17.4644 -0.0253
52.4600 17.4711 -0.0263
52.4800 17.4777 -0.0373
52.5000 17.4843 -0.0248
52.5200 17.4910 -0.0250
52.5400 17.4977 -0.0368
52.5600 17.5044 -0.0201
52.5800 17.5111 -0.0319
52.6000 17.5177 -0.0361
52.6200 17.5244 -0.0203
52.6400 17.5311 -0.0263
52.6600 17.5378 -0.0392
52.6800 17.5444 -0.0215
52.7000 17.5510 -0.0302
52.7200 17.5576 -0.0380
52.7400 17.5643 -0.0178
52.7600 17.5711 -0.0319
52.7800 17.5777 -0.0365
52.8000 17.5844 -0.0155
52.8200 17.5911 -0.0402
52.8400 17.5978 -0.0341
52.8600 17.6043 -0.0138
52.8800 17.6110 -0.0350
52.9000 17.6177 -0.0282
52.9200 17.6244 -0.0238
52.9400 17.6311 -0.0297
52.9600 17.6377 -0.0296
52.9800 17.6444 -0.0233
53.0000 17.6511 -0.0324
53.0200 17.6577 -0.0293
53.0400 17.6643 -0.0278
53.0600 17.6709 -0.0290
53.0800 17.6776 -0.0252
53.1000 17.6843 -0.0253
53.1200 17.6910 -0.0361
53.1400 17.6977 -0.0282
53.1600 17.7043 -0.0242
53.1800 17.7110 -0.0254
53.2000 17.7177 -0.0327
53.2200 17.7243 -0.0306
53.2400 17.7310 -0.0268
53.2600 17.7376 -0.0330
53.2800 17.7444 -0.0239
53.3000 17.7511 -0.0282
53.3200 17.7578 -0.0384
53.3400 17.7645 -0.0246
53.3600 17.7712 -0.0274
53.3800 17.7778 -0.0380
53.4000 17.7844 -0.0260
53.4200 17.7910 -0.0242
53.4400 17.7976 -0.0370
53.4600 17.8044 -0.0274
53.4800 17.8111 -0.0234
53.5000 17.8178 -0.0398
53.5200 17.8245 -0.0273
53.5400 17.8311 -0.0285
53.5600 17.8377 -0.0340
53.5800 17.8443 -0.0291
53.6000 17.8510 -0.0253
53.6200 17.8576 -0.0401
53.6400 17.8643 -0.0272
53.6600 17.8710 -0.0256
53.6800 17.8777 -0.0408
53.7000 17.8844 -0.0301
53.7200 17.8911 -0.0249
53.7400 17.8977 -0.0431
53.7600 17.9043 -0.0253
53.7800 17.9109 -0.0256
53.8000 17.9176 -0.0381
53.8200 17.9243 -0.0304
53.8400 17.9310 -0.0320
53.8600 17.9377 -0.0409
53.8800 17.9444 -0.0314
53.9000 17.9511 -0.0284
53.9200 17.9577 -0.0363
53.9400 17.9643 -0.0307
53.9600 17.9709 -0.0328
53.9800 17.9776 -0.0310
54.0000 17.9844 -0.0335
54.0200 17.9911 -0.0353
54.0400 17.9978 -0.0354
54.0600 18.0044 -0.0303
54.0800 18.0111 -0.0369
54.1000 18.0178 -0.0359
54.1200 18.0244 -0.0342
54.1400 18.0310 -0.0302
54.1600 18.0377 -0.0395
54.1800 18.0444 -0.0320
54.2000 18.0511 -0.0330
54.2200 18.0577 -0.0374
54.2400 18.0644 -0.0344
54.2600 18.0711 -0.0341
54.2800 18.0778 -0.0382
54.3000 18.0844 -0.0356
54.3200 18.0909 -0.0316
54.3400 18.0976 -0.0376
54.3600 18.1043 -0.0379
54.3800 18.1110 -0.0319
54.4000 18.1177 -0.0437
54.4200 18.1244 -0.0381
54.4400 18.1311 -0.0297
54.4600 18.1377 -0.0428
54.4800 18.1443 -0.0409
54.5000 18.1509 -0.0337
54.5200 18.1576 -0.0377
54.5400 18.1643 -0.0409
54.5600 18.1710 -0.0315
54.5800 18.1777 -0.0426
54.6000 18.1844 -0.0391
54.6200 18.1911 -0.0374
54.6400 18.1977 -0.0432
54.6600 18.2044 -0.0387
54.6800 18.2110 -0.0345
54.7000 18.2177 -0.0408
54.7200 18.2243 -0.0400
54.7400 18.2310 -0.0373
54.7600 18.2377 -0.0374
54.7800 18.2444 -0.0417
54.8000 18.2511 -0.0349
54.8200 18.2578 -0.0413
54.8400 18.2644 -0.0459
54.8600 18.2710 -0.0350
54.8800 18.2776 -0.0400
54.9000 18.2843 -0.0454
54.9200 18.2911 -0.0320
54.9400 18.2978 -0.0392
54.9600 18.3044 -0.0477
54.9800 18.3111 -0.0351
55.0000 18.3178 -0.0431
55.0200 18.3244 -0.0444
55.0400 18.3310 -0.0344
55.0600 18.3377 -0.0408
55.0800 18.3444 -0.0462
55.1000 18.3511 -0.0340
55.1200 18.3577 -0.0471
55.1400 18.3644 -0.0418
55.1600 18.3711 -0.0392
55.1800 18.3777 -0.0477
55.2000 18.3844 -0.0410
55.2200 18.3910 -0.0318
55.2400 18.3976 -0.0462
55.2600 18.4043 -0.0366
55.2800 18.4110 -0.0378
55.3000 18.4177 -0.0479
55.3200 18.4244 -0.0396
55.3400 18.4311 -0.0388
55.3600 18.4378 -0.0457
55.3800 18.4444 -0.0376
55.4000 18.4510 -0.0402
55.4200 18.4576 -0.0393
55.4400 18.4643 -0.0429
55.4600 18.4711 -0.0445
55.4800 18.4778 -0.0334
55.5000 18.4845 -0.0452
55.5200 18.4911 -0.0451
55.5400 18.4978 -0.0384
55.5600 18.5044 -0.0432
55.5800 18.5110 -0.0442
55.6000 18.5177 -0.0337
55.6200 18.5244 -0.0460
55.6400 18.5311 -0.0430
55.6600 18.5378 -0.0362
55.6800 18.5444 -0.0475
55.7000 18.5511 -0.0426
55.7200 18.5577 -0.0378
55.7400 18.5644 -0.0482
55.7600 18.5710 -0.0467
55.7800 18.5776 -0.0388
55.8000 18.5843 -0.0401
55.8200 18.5910 -0.0492
55.8400 18.5977 -0.0390
55.8600 18.6044 -0.0446
55.8800 18.6111 -0.0452
55.9000 18.6178 -0.0383
55.9200 18.6244 -0.0488
55.9400 18.6310 -0.0444
55.9600 18.6376 -0.0370
55.9800 18.6443 -0.0436
56.0000 18.6510 -0.0500
56.0200 18.6577 -0.0338
56.0400 18.6644 -0.0485
56.0600 18.6711 -0.0510
56.0800 18.6777 -0.0384
56.1000 18.6844 -0.0482
56.1200 18.6910 -0.0487
56.1400 18.6976 -0.0353
56.1600 18.7043 -0.0473
56.1800 18.7110 -0.0465
56.2000 18.7177 -0.0395
56.2200 18.7244 -0.0490
56.2400 18.7311 -0.0472
56.2600 18.7378 -0.0360
56.2800 18.7444 -0.0556
56.3000 18.7510 -0.0470
56.3200 18.7576 -0.0365
56.3400 18.7643 -0.0514
56.3600 18.7710 -0.0442
56.3800 18.7778 -0.0379
56.4000 18.7845 -0.0534
56.4200 18.7911 -0.0444
56.4400 18.7978 -0.0348
56.4600 18.8044 -0.0576
56.4800 18.8110 -0.0461
56.5000 18.8176 -0.0299
56.5200 18.8243 -0.0564
56.5400 18.8310 -0.0443
56.5600 18.8377 -0.0295
56.5800 18.8444 -0.0592
56.6000 18.8511 -0.0424
56.6200 18.8577 -0.0333
56.6400 18.8644 -0.0537
56.6600 18.8710 -0.0430
56.6800 18.8776 -0.0317
56.7000 18.8843 -0.0544
56.7200 18.8910 -0.0396
56.7400 18.8977 -0.0354
56.7600 18.9043 -0.0519
56.7800 18.9110 -0.0377
56.8000 18.9177 -0.0375
56.8200 18.9244 -0.0583
56.8400 18.9310 -0.0357
56.8600 18.9376 -0.0348
56.8800 18.9443 -0.0546
56.9000 18.9510 -0.0393
56.9200 18.9577 -0.0344
56.9400 18.9644 -0.0520
56.9600 18.9711 -0.0375
56.9800 18.9778 -0.0373
57.0000 18.9844 -0.0527
57.0200 18.9910 -0.0343
57.0400 18.9976 -0.0376
57.0600 19.0043 -0.0521
57.0800 19.0111 -0.0319
57.1000 19.0178 -0.0369
57.1200 19.0244 -0.0547
57.1400 19.0311 -0.0315
57.1600 19.0378 -0.0368
57.1800 19.0444 -0.0519
57.2000 19.0510 -0.0368
57.2200 19.0576 -0.0374
57.2400 19.0643 -0.0533
57.2600 19.0710 -0.0319
57.2800 19.0777 -0.0363
57.3000 19.0844 -0.0500
57.3200 19.0911 -0.0346
57.3400 19.0978 -0.0371
57.3600 19.1044 -0.0482
57.3800 19.1110 -0.0373
57.4000 19.1176 -0.0375
57.4200 19.1242 -0.0459
57.4400 19.1309 -0.0377
57.4600 19.1377 -0.0383
57.4800 19.1443 -0.0486
57.5000 19.1510 -0.0383
57.5200 19.1577 -0.0353
57.5400 19.1644 -0.0519
57.5600 19.1710 -0.0417
57.5800 19.1776 -0.0360
57.6000 19.1843 -0.0451
57.6200 19.1910 -0.0422
57.6400 19.1977 -0.0393
57.6600 19.2044 -0.0461
57.6800 19.2111 -0.0419
57.7000 19.2178 -0.0404
57.7200 19.2244 -0.0457
57.7400 19.2311 -0.0443
57.7600 19.2377 -0.0428
57.7800 19.2444 -0.0422
57.8000 19.2511 -0.0417
57.8200 19.2578 -0.0471
57.8400 19.2644 -0.0401
57.8600 19.2711 -0.0509
57.8800 19.2778 -0.0438
57.9000 19.2844 -0.0448
57.9200 19.2910 -0.0500
57.9400 19.2976 -0.0458
57.9600 19.3043 -0.0413
57.9800 19.3110 -0.0527
58.0000 19.3177 -0.0435
58.0200 19.3244 -0.0404
58.0400 19.3311 -0.0565
58.0600 19.3377 -0.0428
58.0800 19.3444 -0.0461
58.1000 19.3510 -0.0575
58.1200 19.3576 -0.0468
58.1400 19.3643 -0.0455
58.1600 19.3710 -0.0571
58.1800 19.3778 -0.0472
58.2000 19.3844 -0.0513
58.2200 19.3911 -0.0530
58.2400 19.3977 -0.0462
58.2600 19.4044 -0.0475
58.2800 19.4110 -0.0547
58.3000 19.4177 -0.0448
58.3200 19.4243 -0.0521
58.3400 19.4310 -0.0523
58.3600 19.4377 -0.0486
58.3800 19.4444 -0.0531
58.4000 19.4511 -0.0529
58.4200 19.4578 -0.0511
58.4400 19.4644 -0.0583
58.4600 19.4710 -0.0527
58.4800 19.4776 -0.0506
58.5000 19.4843 -0.0529
58.5200 19.4910 -0.0526
58.5400 19.4977 -0.0567
58.5600 19.5044 -0.0514
58.5800 19.5111 -0.0497
58.6000 19.5177 -0.0535
58.6200 19.5244 -0.0530
58.6400 19.5310 -0.0554
58.6600 19.5376 -0.0549
58.6800 19.5443 -0.0515
58.7000 19.5510 -0.0531
58.7200 19.5577 -0.0574
58.7400 19.5644 -0.0548
58.7600 19.5711 -0.0546
58.7800 19.5777 -0.0611
58.8000 19.5844 -0.0470
58.8200 19.5910 -0.0617
58.8400 19.5976 -0.0591
58.8600 19.6043 -0.0510
58.8800 19.6110 -0.0598
58.9000 19.6177 -0.0552
58.9200 19.6244 -0.0467
58.9400 19.6310 -0.0630
58.9600 19.6378 -0.0591
58.9800 19.6444 -0.0500
59.0000 19.6510 -0.0595
59.0200 19.6576 -0.0476
59.0400 19.6643 -0.0518
59.0600 19.6710 -0.0652
59.0800 19.6777 -0.0504
59.1000 19.6844 -0.0539
59.1200 19.6911 -0.0640
59.1400 19.6978 -0.0494
59.1600 19.7044 -0.0560
59.1800 19.7110 -0.0595
59.2000 19.7176 -0.0548
59.2200 19.7243 -0.0533
59.2400 19.7310 -0.0626
59.2600 19.7377 -0.0527
59.2800 19.7444 -0.0568
59.3000 19.7511 -0.0566
59.3200 19.7578 -0.0519
59.3400 19.7644 -0.0592
59.3600 19.7710 -0.0642
59.3800 19.7776 -0.0522
59.4000 19.7843 -0.0553
59.4200 19.7910 -0.0520
59.4400 19.7977 -0.0609
59.4600 19.8044 -0.0571
59.4800 19.8111 -0.0507
59.5000 19.8178 -0.0569
59.5200 19.8244 -0.0567
59.5400 19.8310 -0.0547
59.5600 19.8376 -0.0602
59.5800 19.8442 -0.0491
59.6000 19.8509 -0.0509
59.6200 19.8577 -0.0626
59.6400 19.8644 -0.0511
59.6600 19.8710 -0.0536
59.6800 19.8777 -0.0645
59.7000 19.8844 -0.0475
59.7200 19.8910 -0.0474
59.7400 19.8976 -0.0682
59.7600 19.9043 -0.0474
59.7800 19.9110 -0.0518
59.8000 19.9177 -0.0622
59.8200 19.9244 -0.0459
59.8400 19.9311 -0.0554
59.8600 19.9378 -0.0638
59.8800 19.9445 -0.0394
59.9000 19.9511 -0.0585
59.9200 19.9577 -0.0606
59.9400 19.9643 -0.0411
59.9600 19.9710 -0.0547
59.9800 19.9777 -0.0611
60.0000 19.9844 -0.0438
60.0200 19.9911 -0.0548
60.0400 19.9978 -0.0574
60.0600 20.0044 -0.0476
60.0800 20.0110 -0.0562
60.1000 20.0176 -0.0546
60.1200 20.0243 -0.0452
60.1400 20.0310 -0.0602
60.1600 20.0377 -0.0615
60.1800 20.0444 -0.0409
60.2000 20.0511 -0.0564
60.2200 20.0577 -0.0560
60.2400 20.0644 -0.0457
60.2600 20.0710 -0.0598
60.2800 20.0776 -0.0522
60.3000 20.0843 -0.0438
60.3200 20.0910 -0.0609
60.3400 20.0977 -0.0536
60.3600 20.1044 -0.0490
60.3800 20.1110 -0.0572
60.4000 20.1177 -0.0588
60.4200 20.1244 -0.0484
60.4400 20.1310 -0.0596
60.4600 20.1376 -0.0596
60.4800 20.1443 -0.0489
60.5000 20.1510 -0.0565
60.5200 20.1577 -0.0622
60.5400 20.1644 -0.0537
60.5600 20.1711 -0.0537
60.5800 20.1778 -0.0578
60.6000 20.1844 -0.0529
60.6200 20.1911 -0.0615
60.6400 20.1977 -0.0574
60.6600 20.2043 -0.0499
60.6800 20.2110 -0.0638
60.7000 20.2177 -0.0598
60.7200 20.2244 -0.0479
60.7400 20.2311 -0.0654
60.7600 20.2378 -0.0604
60.7800 20.2444 -0.0555
60.8000 20.2510 -0.0644
60.8200 20.2576 -0.0566
60.8400 20.2643 -0.0532
60.8600 20.2710 -0.0661
60.8800 20.2777 -0.0560
60.9000 20.2844 -0.0592
60.9200 20.2910 -0.0600
60.9400 20.2977 -0.0551
60.9600 20.3044 -0.0628
60.9800 20.3110 -0.0655
61.0000 20.3176 -0.0507
61.0200 20.3243 -0.0622
61.0400 20.3309 -0.0637
61.0600 20.3377 -0.0512
61.0800 20.3444 -0.0619
61.1000 20.3510 -0.0626
61.1200 20.3577 -0.0595
61.1400 20.3644 -0.0580
61.1600 20.3710 -0.0605
61.1800 20.3776 -0.0612
61.2000 20.3843 -0.0552
61.2200 20.3910 -0.0382
61.2400 20.3978 -0.0158
61.2600 20.4045 0.0221
61.2800 20.4111 0.0596
61.3000 20.4178 0.0842
61.3200 20.4244 0.1112
61.3400 20.4311 0.1428
61.3600 20.4377 0.1639
61.3800 20.4443 0.1966
61.4000 20.4510 0.2207
61.4200 20.4577 0.2446
61.4400 20.4644 0.2764
61.4600 20.4711 0.3032
61.4800 20.4778 0.3233
61.5000 20.4844 0.3599
61.5200 20.4911 0.3865
61.5400 20.4977 0.4025
61.5600 20.5043 0.4292
61.5800 20.5109 0.4522
61.6000 20.5176 0.4654
61.6200 20.5244 0.4835
61.6400 20.5311 0.4807
61.6600 20.5377 0.4638
61.6800 20.5444 0.4630
61.7000 20.5510 0.4620
61.7200 20.5576 0.4547
61.7400 20.5642 0.4582
61.7600 20.5709 0.4613
61.7800 20.5777 0.4543
61.8000 20.5844 0.4536
61.8200 20.5910 0.4540
61.8400 20.5977 0.4554
61.8600 20.6044 0.4560
61.8800 20.6110 0.4607
61.9000 20.6177 0.4530
61.9200 20.6243 0.4624
61.9400 20.6310 0.4591
61.9600 20.6377 0.4524
61.9800 20.6444 0.4550
62.0000 20.6511 0.4644
62.0200 20.6578 0.4537
62.0400 20.6645 0.4534
62.0600 20.6711 0.4597
62.0800 20.6777 0.4543
62.1000 20.6843 0.4542
62.1200 20.6910 0.4589
62.1400 20.6977 0.4512
62.1600 20.7044 0.4479
62.1800 20.7111 0.4533
62.2000 20.7178 0.4523
62.2200 20.7244 0.4526
62.2400 20.7310 0.4517
62.2600 20.7376 0.4440
62.2800 20.7443 0.4455
62.3000 20.7510 0.4546
62.3200 20.7577 0.4466
62.3400 20.7644 0.4506
62.3600 20.7710 0.4442
62.3800 20.7777 0.4474
62.4000 20.7844 0.4458
62.4200 20.7910 0.4439
62.4400 20.7977 0.4469
62.4600 20.8043 0.4442
62.4800 20.8109 0.4390
62.5000 20.8177 0.4491
62.5200 20.8244 0.4423
62.5400 20.8311 0.4414
62.5600 20.8377 0.4451
62.5800 20.8444 0.4406
62.6000 20.8511 0.4352
62.6200 20.8577 0.4460
62.6400 20.8643 0.4371
62.6600 20.8710 0.4377
62.6800 20.8777 0.4466
62.7000 20.8844 0.4324
62.7200 20.8911 0.4409
62.7400 20.8978 0.4493
62.7600 20.9045 0.4352
62.7800 20.9111 0.4404
62.8000 20.9177 0.4502
62.8200 20.9243 0.4313
62.8400 20.9309 0.4394
62.8600 20.9377 0.4513
62.8800 20.9444 0.4291
62.9000 20.9511 0.4332
62.9200 20.9577 0.4479
62.9400 20.9644 0.4238
62.9600 20.9711 0.4374
62.9800 20.9777 0.4444
63.0000 20.9843 0.4293
63.0200 20.9910 0.4359
63.0400 20.9977 0.4442
63.0600 21.0044 0.4259
63.0800 21.0111 0.4394
63.1000 21.0178 0.4409
63.1200 21.0244 0.4221
63.1400 21.0311 0.4376
63.1600 21.0377 0.4370
63.1800 21.0443 0.4232
63.2000 21.0509 0.4345
63.2200 21.0576 0.4385
63.2400 21.0644 0.4189
63.2600 21.0711 0.4342
63.2800 21.0777 0.4378
63.3000 21.0844 0.4213
63.3200 21.0911 0.4278
63.3400 21.0977 0.4367
63.3600 21.1043 0.4223
63.3800 21.1110 0.4292
63.4000 21.1177 0.4339
63.4200 21.1244 0.4198
63.4400 21.1311 0.4261
63.4600 21.1377 0.4349
63.4800 21.1444 0.4140
63.5000 21.1511 0.4266
63.5200 21.1577 0.4340
63.5400 21.1643 0.4163
63.5600 21.1710 0.4193
63.5800 21.1777 0.4379
63.6000 21.1844 0.4186
63.6200 21.1911 0.4208
63.6400 21.1978 0.4365
63.6600 21.2045 0.4130
63.6800 21.2111 0.4180
63.7000 21.2177 0.4340
63.7200 21.2243 0.4194
63.7400 21.2309 0.4205
63.7600 21.2377 0.4357
63.7800 21.2444 0.4075
63.8000 21.2511 0.4185
63.8200 21.2578 0.4362
63.8400 21.2644 0.4086
63.8600 21.2711 0.4177
63.8800 21.2777 0.4326
63.9000 21.2843 0.4094
63.9200 21.2909 0.4261
63.9400 21.2976 0.4291
63.9600 21.3043 0.4056
63.9800 21.3110 0.4210
64.0000 21.3177 0.4299
64.0200 21.3244 0.4060
64.0400 21.3310 0.4219
64.0600 21.3377 0.4247
64.0800 21.3443 0.4080
64.1000 21.3510 0.4214
64.1200 21.3577 0.4270
64.1400 21.3644 0.4114
64.1600 21.3711 0.4220
64.1800 21.3778 0.4180
64.2000 21.3845 0.4048
64.2200 21.3911 0.4196
64.2400 21.3977 0.4249
64.2600 21.4043 0.4084
64.2800 21.4110 0.4151
64.3000 21.4177 0.4270
64.3200 21.4244 0.4043
64.3400 21.4311 0.4168
64.3600 21.4378 0.4196
64.3800 21.4444 0.4083
64.4000 21.4511 0.4140
64.4200 21.4577 0.4240
64.4400 21.4643 0.4147
64.4600 21.4710 0.4136
64.4800 21.4777 0.4150
64.5000 21.4844 0.4082
64.5200 21.4910 0.4090
64.5400 21.4977 0.4160
64.5600 21.5044 0.4135
64.5800 21.5111 0.4063
64.6000 21.5177 0.4074
64.6200 21.5243 0.4122
64.6400 21.5309 0.4129
64.6600 21.5376 0.4094
64.6800 21.5444 0.4083
64.7000 21.5511 0.4086
64.7200 21.5577 0.4134
64.7400 21.5644 0.4104
64.7600 21.5711 0.4050
64.7800 21.5777 0.4121
64.8000 21.5843 0.4137
64.8200 21.5910 0.4029
64.8400 21.5977 0.4092
64.8600 21.6044 0.4082
64.8800 21.6111 0.4041
64.9000 21.6177 0.4082
64.9200 21.6244 0.4097
64.9400 21.6311 0.4024
64.9600 21.6377 0.4107
64.9800 21.6444 0.4062
65.0000 21.6510 0.4052
65.0200 21.6577 0.4107
65.0400 21.6644 0.4048
65.0600 21.6711 0.4011
65.0800 21.6778 0.4148
65.1000 21.6844 0.4040
65.1200 21.6911 0.4034
65.1400 21.6977 0.4091
65.1600 21.7043 0.4061
65.1800 21.7110 0.4035
65.2000 21.7176 0.4103
65.2200 21.7243 0.4043
65.2400 21.7311 0.4064
65.2600 21.7377 0.4127
65.2800 21.7444 0.4006
65.3000 21.7511 0.4060
65.3200 21.7577 0.4110
65.3400 21.7643 0.4052
65.3600 21.7709 0.4045
65.3800 21.7776 0.4072
65.4000 21.7843 0.3996
65.4200 21.7910 0.4077
65.4400 21.7977 0.4042
65.4600 21.8044 0.4001
65.4800 21.8110 0.4072
65.5000 21.8177 0.4028
65.5200 21.8243 0.4006
65.5400 21.8310 0.4150
65.5600 21.8377 0.4009
65.5800 21.8444 0.4051
65.6000 21.8511 0.4036
65.6200 21.8578 0.3964
65.6400 21.8645 0.4048
65.6600 21.8711 0.4044
65.6800 21.8778 0.3978
65.7000 21.8844 0.4013
65.7200 21.8910 0.4053
65.7400 21.8977 0.3991
65.7600 21.9044 0.3981
65.7800 21.9111 0.4026
65.8000 21.9178 0.3956
65.8200 21.9245 0.3978
65.8400 21.9311 0.4041
65.8600 21.9377 0.3954
65.8800 21.9443 0.4002
65.9000 21.9509 0.4012
65.9200 21.9576 0.3955
65.9400 21.9644 0.3978
65.9600 21.9711 0.4037
65.9800 21.9777 0.3932
66.0000 21.9844 0.4012
66.0200 21.9911 0.3988
66.0400 21.9977 0.3935
66.0600 22.0044 0.3978
66.0800 22.0110 0.3957
66.1000 22.0176 0.3915
66.1200 22.0243 0.3978
66.1400 22.0310 0.3881
66.1600 22.0377 0.3926
66.1800 22.0444 0.3969
66.2000 22.0510 0.3917
66.2200 22.0577 0.3888
66.2400 22.0643 0.3964
66.2600 22.0710 0.3913
66.2800 22.0776 0.3883
66.3000 22.0844 0.3975
66.3200 22.0911 0.3856
66.3400 22.0978 0.3936
66.3600 22.1044 0.3941
66.3800 22.1111 0.3869
66.4000 22.1177 0.3902
66.4200 22.1243 0.3906
66.4400 22.1310 0.3959
66.4600 22.1377 0.3893
66.4800 22.1444 0.3857
66.5000 22.1511 0.3926
66.5200 22.1578 0.3813
66.5400 22.1644 0.3876
66.5600 22.1711 0.3863
66.5800 22.1777 0.3830
66.6000 22.1843 0.3877
66.6200 22.1910 0.3893
66.6400 22.1976 0.3785
66.6600 22.2043 0.3885
66.6800 22.2110 0.3865
66.7000 22.2177 0.3730
66.7200 22.2244 0.3922
66.7400 22.2311 0.3874
66.7600 22.2377 0.3762
66.7800 22.2443 0.3830
66.8000 22.2509 0.3851
66.8200 22.2576 0.3789
66.8400 22.2643 0.3846
66.8600 22.2710 0.3796
66.8800 22.2777 0.3759
66.9000 22.2844 0.3789
66.9200 22.2911 0.3816
66.9400 22.2977 0.3747
66.9600 22.3043 0.3805
66.9800 22.3110 0.3779
67.0000 22.3177 0.3742
67.0200 22.3244 0.3752
67.0400 22.3311 0.3824
67.0600 22.3377 0.3746
67.0800 22.3444 0.3767
67.1000 22.3511 0.3749
67.1200 22.3578 0.3697
67.1400 22.3644 0.3784
67.1600 22.3710 0.3835
67.1800 22.3776 0.3703
67.2000 22.3843 0.3759
67.2200 22.3910 0.3769
67.2400 22.3977 0.3710
67.2600 22.4044 0.3729
67.2800 22.4111 0.3780
67.3000 22.4178 0.3679
67.3200 22.4244 0.3711
67.3400 22.4310 0.3820
67.3600 22.4377 0.3669
67.3800 22.4444 0.3745
67.4000 22.4511 0.3826
67.4200 22.4578 0.3635
67.4400 22.4644 0.3746
67.4600 22.4711 0.3808
67.4800 22.4777 0.3591
67.5000 22.4843 0.3762
67.5200 22.4909 0.3754
67.5400 22.4976 0.3612
67.5600 22.5043 0.3736
67.5800 22.5110 0.3759
67.6000 22.5177 0.3583
67.6200 22.5244 0.3749
67.6400 22.5310 0.3723
67.6600 22.5377 0.3619
67.6800 22.5443 0.3724
67.7000 22.5509 0.3752
67.7200 22.5576 0.3613
67.7400 22.5643 0.3707
67.7600 22.5711 0.3690
67.7800 22.5778 0.3613
67.8000 22.5845 0.3744
67.8200 22.5911 0.3626
67.8400 22.5978 0.3596
67.8600 22.6044 0.3688
67.8800 22.6110 0.3680
67.9000 22.6177 0.3639
67.9200 22.6244 0.3693
67.9400 22.6311 0.3652
67.9600 22.6378 0.3596
67.9800 22.6445 0.3622
68.0000 22.6511 0.3674
68.0200 22.6578 0.3573
68.0400 22.6644 0.3691
68.0600 22.6710 0.3617
68.0800 22.6776 0.3529
68.1000 22.6843 0.3707
68.1200 22.6910 0.3695
68.1400 22.6977 0.3485
68.1600 22.7043 0.3678
68.1800 22.7110 0.3674
68.2000 22.7177 0.3525
68.2200 22.7243 0.3640
68.2400 22.7309 0.3646
68.2600 22.7376 0.3539
68.2800 22.7443 0.3645
68.3000 22.7510 0.3617
68.3200 22.7577 0.3551
68.3400 22.7644 0.3673
68.3600 22.7711 0.3547
68.3800 22.7777 0.3535
68.4000 22.7843 0.3667
68.4200 22.7910 0.3611
68.4400 22.7976 0.3529
68.4600 22.8043 0.3637
68.4800 22.8111 0.3568
68.5000 22.8178 0.3577
68.5200 22.8244 0.3597
68.5400 22.8311 0.3566
68.5600 22.8378 0.3553
68.5800 22.8444 0.3607
68.6000 22.8510 0.3516
68.6200 22.8577 0.3522
68.6400 22.8644 0.3610
68.6600 22.8711 0.3568
68.6800 22.8778 0.3502
68.7000 22.8844 0.3587
68.7200 22.8911 0.3540
68.7400 22.8978 0.3504
68.7600 22.9044 0.3600
68.7800 22.9110 0.3559
68.8000 22.9176 0.3462
68.8200 22.9243 0.3641
68.8400 22.9310 0.3527
68.8600 22.9377 0.3484
68.8800 22.9444 0.3621
68.9000 22.9511 0.3450
68.9200 22.9577 0.3495
68.9400 22.9643 0.3557
68.9600 22.9709 0.3501
68.9800 22.9776 0.3542
69.0000 22.9843 0.3535
69.0200 22.9910 0.3442
69.0400 22.9977 0.3524
69.0600 23.0044 0.3546
69.0800 23.0110 0.3473
69.1000 23.0177 0.3517
69.1200 23.0244 0.3509
69.1400 23.0310 0.3454
69.1600 23.0376 0.3595
69.1800 23.0443 0.3417
69.2000 23.0510 0.3480
69.2200 23.0577 0.3570
69.2400 23.0644 0.3413
69.2600 23.0711 0.3482
69.2800 23.0778 0.3568
69.3000 23.0844 0.3366
69.3200 23.0910 0.3443
69.3400 23.0976 0.3542
69.3600 23.1043 0.3390
69.3800 23.1111 0.3495
69.4000 23.1178 0.3493
69.4200 23.1244 0.3378
69.4400 23.1311 0.3502
69.4600 23.1378 0.3467
69.4800 23.1444 0.3360
69.5000 23.1510 0.3542
69.5200 23.1576 0.3438
69.5400 23.1643 0.3381
69.5600 23.1710 0.3429
69.5800 23.1777 0.3460
69.6000 23.1844 0.3419
69.6200 23.1911 0.3449
69.6400 23.1978 0.3438
69.6600 23.2044 0.3399
69.6800 23.2110 0.3432
69.7000 23.2176 0.3423
69.7200 23.2243 0.3403
69.7400 23.2310 0.3443
69.7600 23.2377 0.3407
69.7800 23.2444 0.3424
69.8000 23.2511 0.3391
69.8200 23.2577 0.3443
69.8400 23.2644 0.3390
69.8600 23.2710 0.3381
69.8800 23.2776 0.3419
69.9000 23.2843 0.3378
69.9200 23.2911 0.3417
69.9400 23.2978 0.3378
69.9600 23.3045 0.3373
69.9800 23.3111 0.3386
70.0000 23.3178 0.3431
70.0200 23.3244 0.3335
70.0400 23.3310 0.3414
70.0600 23.3376 0.3454
70.0800 23.3444 0.3317
70.1000 23.3511 0.3368
70.1200 23.3578 0.3415
70.1400 23.3644 0.3317
70.1600 23.3711 0.3438
70.1800 23.3778 0.3349
70.2000 23.3844 0.3281
70.2200 23.3910 0.3446
70.2400 23.3976 0.3383
70.2600 23.4043 0.3251
70.2800 23.4110 0.3408
70.3000 23.4177 0.3394
70.3200 23.4244 0.3314
70.3400 23.4311 0.3359
70.3600 23.4377 0.3384
70.3800 23.4444 0.3296
70.4000 23.4510 0.3359
70.4200 23.4576 0.3353
70.4400 23.4643 0.3311
70.4600 23.4710 0.3373
70.4800 23.4777 0.3308
70.5000 23.4844 0.3336
70.5200 23.4911 0.3346
70.5400 23.4977 0.3336
70.5600 23.5044 0.3305
70.5800 23.5110 0.3361
70.6000 23.5176 0.3315
70.6200 23.5243 0.3333
70.6400 23.5310 0.3354
70.6600 23.5377 0.3310
70.6800 23.5444 0.3285
70.7000 23.5511 0.3335
70.7200 23.5578 0.3285
70.7400 23.5644 0.3318
70.7600 23.5710 0.3288
70.7800 23.5777 0.3377
70.8000 23.5843 0.3266
70.8200 23.5910 0.3243
70.8400 23.5977 0.3372
70.8600 23.6044 0.3291
70.8800 23.6111 0.3248
70.9000 23.6178 0.3331
70.9200 23.6244 0.3278
70.9400 23.6310 0.3246
70.9600 23.6376 0.3367
70.9800 23.6443 0.3263
71.0000 23.6510 0.3243
71.0200 23.6577 0.3348
71.0400 23.6644 0.3243
71.0600 23.6711 0.3250
71.0800 23.6778 0.3367
71.1000 23.6844 0.3177
71.1200 23.6910 0.3209
71.1400 23.6976 0.3364
71.1600 23.7043 0.3270
71.1800 23.7110 0.3220
71.2000 23.7177 0.3322
71.2200 23.7244 0.3197
71.2400 23.7310 0.3271
71.2600 23.7377 0.3276
71.2800 23.7444 0.3224
71.3000 23.7510 0.3246
71.3200 23.7577 0.3311
71.3400 23.7643 0.3212
71.3600 23.7710 0.3212
71.3800 23.7777 0.3320
71.4000 23.7844 0.3201
71.4200 23.7911 0.3198
71.4400 23.7978 0.3273
71.4600 23.8045 0.3199
71.4800 23.8110 0.3207
71.5000 23.8176 0.3264
71.5200 23.8243 0.3172
71.5400 23.8310 0.3231
71.5600 23.8377 0.3265
71.5800 23.8444 0.3195
71.6000 23.8511 0.3153
71.6200 23.8577 0.3282
71.6400 23.8644 0.3141
71.6600 23.8710 0.3189
71.6800 23.8777 0.3284
71.7000 23.8843 0.3181
71.7200 23.8910 0.3114
71.7400 23.8977 0.3281
71.7600 23.9044 0.3159
71.7800 23.9111 0.3142
71.8000 23.9177 0.3251
71.8200 23.9244 0.3137
71.8400 23.9310 0.3108
71.8600 23.9376 0.3270
71.8800 23.9442 0.3166
71.9000 23.9509 0.3146
71.9200 23.9577 0.3214
71.9400 23.9644 0.3079
71.9600 23.9710 0.3173
71.9800 23.9777 0.3219
72.0000 23.9843 0.3139
72.0200 23.9910 0.3130
72.0400 23.9976 0.3193
72.0600 24.0043 0.3145
72.0800 24.0110 0.3162
72.1000 24.0177 0.3139
72.1200 24.0244 0.3163
72.1400 24.0311 0.3149
72.1600 24.0378 0.3151
72.1800 24.0445 0.3168
72.2000 24.0511 0.3172
72.2200 24.0577 0.3126
72.2400 24.0643 0.3174
72.2600 24.0710 0.3100
72.2800 24.0777 0.3132
72.3000 24.0844 0.3193
72.3200 24.0911 0.3095
72.3400 24.0978 0.3120
72.3600 24.1044 0.3203
72.3800 24.1110 0.3069
72.4000 24.1176 0.3120
72.4200 24.1243 0.3177
72.4400 24.1310 0.3060
72.4600 24.1377 0.3143
72.4800 24.1444 0.3158
72.5000 24.1510 0.3040
72.5200 24.1577 0.3159
72.5400 24.1644 0.3196
72.5600 24.1710 0.2994
72.5800 24.1776 0.3145
72.6000 24.1843 0.3202
72.6200 24.1910 0.3002
72.6400 24.1977 0.3099
72.6600 24.2044 0.3145
72.6800 24.2111 0.2957
72.7000 24.2177 0.3171
72.7200 24.2244 0.3105
72.7400 24.2310 0.2989
72.7600 24.2377 0.3141
72.7800 24.2443 0.3093
72.8000 24.2510 0.2956
72.8200 24.2577 0.3192
72.8400 24.2644 0.3075
72.8600 24.2711 0.2942
72.8800 24.2778 0.3126
72.9000 24.2844 0.3060
72.9200 24.2910 0.2967
72.9400 24.2976 0.3171
72.9600 24.3043 0.3022
72.9800 24.3110 0.2978
73.0000 24.3177 0.3171
73.0200 24.3244 0.2957
73.0400 24.3311 0.2981
73.0600 24.3378 0.3082
73.0800 24.3444 0.2956
73.1000 24.3510 0.3016
73.1200 24.3576 0.3103
73.1400 24.3643 0.2932
73.1600 24.3710 0.2999
73.1800 24.3777 0.3081
73.2000 24.3844 0.3013
73.2200 24.3910 0.2966
73.2400 24.3977 0.3046
73.2600 24.4044 0.2947
73.2800 24.4110 0.2989
73.3000 24.4176 0.3065
73.3200 24.4243 0.2988
73.3400 24.4310 0.2943
73.3600 24.4377 0.3055
73.3800 24.4444 0.2924
73.4000 24.4511 0.2955
73.4200 24.4578 0.3038
73.4400 24.4644 0.2923
73.4600 24.4711 0.2937
73.4800 24.4777 0.3036
73.5000 24.4843 0.2934
73.5200 24.4910 0.2933
73.5400 24.4977 0.3021
73.5600 24.5044 0.2894
73.5800 24.5111 0.2941
73.6000 24.5178 0.3036
73.6200 24.5244 0.2919
73.6400 24.5310 0.2927
73.6600 24.5377 0.3003
73.6800 24.5443 0.2914
73.7000 24.5510 0.2953
73.7200 24.5577 0.2944
73.7400 24.5644 0.2891
73.7600 24.5711 0.2914
73.7800 24.5778 0.3010
73.8000 24.5844 0.2846
73.8200 24.5911 0.2932
73.8400 24.5977 0.2990
73.8600 24.6043 0.2894
73.8800 24.6110 0.2904
73.9000 24.6177 0.2963
73.9200 24.6244 0.2898
73.9400 24.6311 0.2904
73.9600 24.6378 0.2954
73.9800 24.6444 0.2861
74.0000 24.6510 0.2975
74.0200 24.6576 0.2931
74.0400 24.6642 0.2851
74.0600 24.6709 0.3003
74.0800 24.6777 0.2874
74.1000 24.6844 0.2854
74.1200 24.6911 0.2999
74.1400 24.6977 0.2881
74.1600 24.7044 0.2897
74.1800 24.7110 0.2939
74.2000 24.7176 0.2854
74.2200 24.7243 0.2882
74.2400 24.7310 0.2992
74.2600 24.7377 0.2845
74.2800 24.7444 0.2935
74.3000 24.7511 0.2930
74.3200 24.7578 0.2797
74.3400 24.7645 0.2956
74.3600 24.7711 0.2942
74.3800 24.7777 0.2834
74.4000 24.7843 0.2961
74.4200 24.7910 0.2896
74.4400 24.7977 0.2860
74.4600 24.8044 0.2948
74.4800 24.8111 0.2884
74.5000 24.8178 0.2844
74.5200 24.8244 0.2929
74.5400 24.8310 0.2858
74.5600 24.8376 0.2868
74.5800 24.8443 0.2995
74.6000 24.8510 0.2822
74.6200 24.8577 0.2795
74.6400 24.8644 0.2920
74.6600 24.8711 0.2878
74.6800 24.8777 0.2799
74.7000 24.8844 0.2954
74.7200 24.8910 0.2875
74.7400 24.8976 0.2805
74.7600 24.9043 0.2942
74.7800 24.9110 0.2865
74.8000 24.9177 0.2821
74.8200 24.9244 0.2967
74.8400 24.9310 0.2797
74.8600 24.9377 0.2821
74.8800 24.9444 0.2940
74.9000 24.9511 0.2790
74.9200 24.9577 0.2796
74.9400 24.9643 0.2952
74.9600 24.9710 0.2774
74.9800 24.9777 0.2841
75.0000 24.9844 0.2928
75.0200 24.9911 0.2743
75.0400 24.9978 0.2835
75.0600 25.0044 0.2936
75.0800 25.0111 0.2746
75.1000 25.0177 0.2855
75.1200 25.0243 0.2950
75.1400 25.0310 0.2714
75.1600 25.0377 0.2860
75.1800 25.0444 0.2868
75.2000 25.0511 0.2763
75.2200 25.0578 0.2884
75.2400 25.0644 0.2861
75.2600 25.0711 0.2700
75.2800 25.0777 0.2891
75.3000 25.0843 0.2840
75.3200 25.0910 0.2770
75.3400 25.0977 0.2890
75.3600 25.1044 0.2824
75.3800 25.1110 0.2754
75.4000 25.1177 0.2872
75.4200 25.1244 0.2787
75.4400 25.1311 0.2763
75.4600 25.1377 0.2840
75.4800 25.1443 0.2790
75.5000 25.1509 0.2799
75.5200 25.1576 0.2812
75.5400 25.1643 0.2759
75.5600 25.1710 0.2800
75.5800 25.1777 0.2766
75.6000 25.1844 0.2738
75.6200 25.1910 0.2803
75.6400 25.1977 0.2787
75.6600 25.2043 0.2771
75.6800 25.2110 0.2798
75.7000 25.2177 0.2779
75.7200 25.2245 0.2769
75.7400 25.2311 0.2807
75.7600 25.2378 0.2712
75.7800 25.2444 0.2833
75.8000 25.2511 0.2755
75.8200 25.2577 0.2645
75.8400 25.2643 0.2842
75.8600 25.2710 0.2768
75.8800 25.2777 0.2633
75.9000 25.2844 0.2797
75.9200 25.2911 0.2755
75.9400 25.2978 0.2650
75.9600 25.3044 0.2748
75.9800 25.3111 0.2747
76.0000 25.3177 0.2701
76.0200 25.3243 0.2818
76.0400 25.3310 0.2669
76.0600 25.3377 0.2740
76.0800 25.3444 0.2790
76.1000 25.3510 0.2668
76.1200 25.3577 0.2710
76.1400 25.3644 0.2718
76.1600 25.3711 0.2695
76.1800 25.3777 0.2716
76.2000 25.3843 0.2733
76.2200 25.3909 0.2696
76.2400 25.3976 0.2747
76.2600 25.4044 0.2651
76.2800 25.4111 0.2644
76.3000 25.4177 0.2739
76.3200 25.4244 0.2684
76.3400 25.4310 0.2633
76.3600 25.4377 0.2739
76.3800 25.4443 0.2662
76.4000 25.4510 0.2655
76.4200 25.4577 0.2648
76.4400 25.4644 0.2710
76.4600 25.4711 0.2651
76.4800 25.4778 0.2650
76.5000 25.4845 0.2649
76.5200 25.4911 0.2659
76.5400 25.4977 0.2714
76.5600 25.5043 0.2697
76.5800 25.5110 0.2646
76.6000 25.5177 0.2623
76.6200 25.5244 0.2636
76.6400 25.5311 0.2647
76.6600 25.5378 0.2575
76.6800 25.5444 0.2633
76.7000 25.5511 0.2646
76.7200 25.5577 0.2599
76.7400 25.5643 0.2676
76.7600 25.5709 0.2587
76.7800 25.5777 0.2618
76.8000 25.5844 0.2650
76.8200 25.5910 0.2559
76.8400 25.5977 0.2597
76.8600 25.6044 0.2674
76.8800 25.6110 0.2553
76.9000 25.6177 0.2594
76.9200 25.6243 0.2618
76.9400 25.6309 0.2589
76.9600 25.6376 0.2558
76.9800 25.6444 0.2577
77.0000 25.6511 0.2565
77.0200 25.6577 0.2595
77.0400 25.6644 0.2550
77.0600 25.6711 0.2559
77.0800 25.6777 0.2562
77.1000 25.6843 0.2570
77.1200 25.6910 0.2574
77.1400 25.6977 0.2509
77.1600 25.7044 0.2582
77.1800 25.7111 0.2526
77.2000 25.7178 0.2534
77.2200 25.7244 0.2567
77.2400 25.7311 0.2482
77.2600 25.7377 0.2523
77.2800 25.7443 0.2560
77.3000 25.7510 0.2496
77.3200 25.7577 0.2558
77.3400 25.7644 0.2547
77.3600 25.7711 0.2488
77.3800 25.7777 0.2521
77.4000 25.7844 0.2572
77.4200 25.7911 0.2443
77.4400 25.7977 0.2554
77.4600 25.8043 0.2552
77.4800 25.8110 0.2501
77.5000 25.8177 0.2511
77.5200 25.8244 0.2551
77.5400 25.8310 0.2498
77.5600 25.8377 0.2524
77.5800 25.8444 0.2534
77.6000 25.8511 0.2488
77.6200 25.8577 0.2471
77.6400 25.8643 0.2584
77.6600 25.8709 0.2448
77.6800 25.8776 0.2455
77.7000 25.8844 0.2609
77.7200 25.8911 0.2473
77.7400 25.8977 0.2453
77.7600 25.9044 0.2529
77.7800 25.9110 0.2496
77.8000 25.9177 0.2504
77.8200 25.9243 0.2544
77.8400 25.9310 0.2438
77.8600 25.9377 0.2500
77.8800 25.9444 0.2452
77.9000 25.9511 0.2438
77.9200 25.9577 0.2480
77.9400 25.9644 0.2523
77.9600 25.9711 0.2419
77.9800 25.9777 0.2457
78.0000 25.9843 0.2509
78.0200 25.9910 0.2460
78.0400 25.9977 0.2471
78.0600 26.0043 0.2498
78.0800 26.0110 0.2391
78.1000 26.0177 0.2459
78.1200 26.0244 0.2505
78.1400 26.0311 0.2358
78.1600 26.0377 0.2447
78.1800 26.0443 0.2535
78.2000 26.0509 0.2389
78.2200 26.0577 0.2448
78.2400 26.0644 0.2451
78.2600 26.0711 0.2382
78.2800 26.0778 0.2455
78.3000 26.0844 0.2462
78.3200 26.0911 0.2384
78.3400 26.0977 0.2446
78.3600 26.1043 0.2421
78.3800 26.1109 0.2379
78.4000 26.1176 0.2471
78.4200 26.1243 0.2393
78.4400 26.1310 0.2395
78.4600 26.1377 0.2395
78.4800 26.1444 0.2428
78.5000 26.1510 0.2357
78.5200 26.1577 0.2390
78.5400 26.1643 0.2373
78.5600 26.1710 0.2434
78.5800 26.1777 0.2391
78.6000 26.1844 0.2381
78.6200 26.1911 0.2376
78.6400 26.1978 0.2359
78.6600 26.2045 0.2370
78.6800 26.2111 0.2377
78.7000 26.2177 0.2392
78.7200 26.2243 0.2394
78.7400 26.2310 0.2389
78.7600 26.2377 0.2360
78.7800 26.2444 0.2405
78.8000 26.2511 0.2348
78.8200 26.2578 0.2357
78.8400 26.2644 0.2362
78.8600 26.2711 0.2318
78.8800 26.2777 0.2398
78.9000 26.2843 0.2354
78.9200 26.2910 0.2303
78.9400 26.2977 0.2446
78.9600 26.3044 0.2329
78.9800 26.3110 0.2273
79.0000 26.3177 0.2405
79.0200 26.3244 0.2350
79.0400 26.3311 0.2282
79.0600 26.3377 0.2392
79.0800 26.3443 0.2303
79.1000 26.3509 0.2349
79.1200 26.3576 0.2405
79.1400 26.3643 0.2334
79.1600 26.3710 0.2283
79.1800 26.3777 0.2339
79.2000 26.3844 0.2342
79.2200 26.3911 0.2326
79.2400 26.3977 0.2327
79.2600 26.4043 0.2266
79.2800 26.4110 0.2311
79.3000 26.4177 0.2369
79.3200 26.4244 0.2340
79.3400 26.4311 0.2294
79.3600 26.4377 0.2242
79.3800 26.4444 0.2253
79.4000 26.4511 0.2344
79.4200 26.4578 0.2392
79.4400 26.4644 0.2329
79.4600 26.4710 0.2177
79.4800 26.4777 0.2351
79.5000 26.4844 0.2357
79.5200 26.4911 0.2310
79.5400 26.4978 0.2306
79.5600 26.5044 0.2291
79.5800 26.5111 0.2215
79.6000 26.5178 0.2336
79.6200 26.5243 0.2366
79.6400 26.5310 0.2240
79.6600 26.5376 0.2343
79.6800 26.5443 0.2371
79.7000 26.5510 0.2194
79.7200 26.5577 0.2405
79.7400 26.5644 0.2369
79.7600 26.5711 0.2159
79.7800 26.5777 0.2371
79.8000 26.5843 0.2359
79.8200 26.5909 0.2241
79.8400 26.5976 0.2331
79.8600 26.6043 0.2342
79.8800 26.6110 0.2253
79.9000 26.6177 0.2327
79.9200 26.6244 0.2324
79.9400 26.6310 0.2300
79.9600 26.6377 0.2332
79.9800 26.6443 0.2271
80.0000 26.6510 0.2290
80.0200 26.6577 0.2392
80.0400 26.6644 0.2317
80.0600 26.6711 0.2270
80.0800 26.6778 0.2260
80.1000 26.6844 0.2328
80.1200 26.6911 0.2347
80.1400 26.6978 0.2346
80.1600 26.7044 0.2188
80.1800 26.7110 0.2252
80.2000 26.7176 0.2326
80.2200 26.7244 0.2354
80.2400 26.7311 0.2291
80.2600 26.7378 0.2219
80.2800 26.7444 0.2209
80.3000 26.7511 0.2282
80.3200 26.7577 0.2365
80.3400 26.7643 0.2283
80.3600 26.7709 0.2189
80.3800 26.7776 0.2270
80.4000 26.7844 0.2203
80.4200 26.7911 0.2305
80.4400 26.7977 0.2392
80.4600 26.8044 0.2165
80.4800 26.8111 0.2126
80.5000 26.8177 0.2300
80.5200 26.8244 0.2327
80.5400 26.8310 0.2250
80.5600 26.8376 0.2241
80.5800 26.8443 0.2095
80.6000 26.8510 0.2285
80.6200 26.8577 0.2321
80.6400 26.8644 0.2172
80.6600 26.8710 0.2178
80.6800 26.8777 0.2278
80.7000 26.8843 0.2187
80.7200 26.8909 0.2218
80.7400 26.8976 0.2243
80.7600 26.9044 0.2133
80.7800 26.9111 0.2146
80.8000 26.9178 0.2214
80.8200 26.9244 0.2150
80.8400 26.9311 0.2185
80.8600 26.9377 0.2191
80.8800 26.9443 0.2121
80.9000 26.9510 0.2173
80.9200 26.9576 0.2223
80.9400 26.9644 0.2157
80.9600 26.9711 0.2113
80.9800 26.9778 0.2168
81.0000 26.9844 0.2142
81.0200 26.9911 0.2172
81.0400 26.9978 0.2186
81.0600 27.0044 0.2187
81.0800 27.0110 0.2087
81.1000 27.0176 0.2128
81.1200 27.0243 0.2173
81.1400 27.0310 0.2134
81.1600 27.0377 0.2123
81.1800 27.0444 0.2209
81.2000 27.0511 0.2047
81.2200 27.0577 0.2134
81.2400 27.0643 0.2188
81.2600 27.0709 0.2130
81.2800 27.0776 0.2147
81.3000 27.0843 0.2089
81.3200 27.0910 0.2077
81.3400 27.0977 0.2164
81.3600 27.1044 0.2110
81.3800 27.1111 0.2130
81.4000 27.1177 0.2171
81.4200 27.1244 0.2053
81.4400 27.1310 0.2062
81.4600 27.1377 0.2183
81.4800 27.1444 0.2085
81.5000 27.1511 0.2075
81.5200 27.1577 0.2162
81.5400 27.1644 0.2031
81.5600 27.1711 0.2093
81.5800 27.1777 0.2153
81.6000 27.1844 0.2084
81.6200 27.1910 0.2098
81.6400 27.1976 0.2130
81.6600 27.2043 0.1992
81.6800 27.2111 0.2203
81.7000 27.2177 0.2141
81.7200 27.2244 0.1978
81.7400 27.2311 0.2151
81.7600 27.2378 0.2130
81.7800 27.2444 0.1990
81.8000 27.2510 0.2223
81.8200 27.2577 0.2074
81.8400 27.2644 0.2003
81.8600 27.2711 0.2260
81.8800 27.2778 0.2029
81.9000 27.2844 0.1976
81.9200 27.2911 0.2256
81.9400 27.2977 0.2071
81.9600 27.3044 0.1951
81.9800 27.3110 0.2180
82.0000 27.3176 0.2096
82.0200 27.3243 0.2022
82.0400 27.3310 0.2126
82.0600 27.3377 0.2056
82.0800 27.3443 0.2071
82.1000 27.3510 0.2069
82.1200 27.3577 0.2085
82.1400 27.3644 0.2131
82.1600 27.3710 0.2034
82.1800 27.3776 0.2091
82.2000 27.3843 0.2054
82.2200 27.3911 0.2102
82.2400 27.3978 0.2154
82.2600 27.4045 0.2040
82.2800 27.4112 0.1979
82.3000 27.4178 0.2158
82.3200 27.4244 0.2067
82.3400 27.4310 0.2009
82.3600 27.4376 0.2133
82.3800 27.4444 0.2030
82.4000 27.4511 0.2033
82.4200 27.4578 0.2154
82.4400 27.4644 0.1917
82.4600 27.4711 0.2056
82.4800 27.4778 0.2205
82.5000 27.4844 0.1915
82.5200 27.4910 0.2033
82.5400 27.4976 0.2196
82.5600 27.5043 0.1946
82.5800 27.5110 0.2022
82.6000 27.5177 0.2191
82.6200 27.5244 0.1933
82.6400 27.5311 0.1990
82.6600 27.5377 0.2045
82.6800 27.5444 0.2060
82.7000 27.5510 0.2066
82.7200 27.5576 0.1991
82.7400 27.5643 0.2016
82.7600 27.5710 0.2064
82.7800 27.5777 0.1971
82.8000 27.5844 0.2127
82.8200 27.5911 0.2013
82.8400 27.5977 0.1779
82.8600 27.6043 0.2060
82.8800 27.6109 0.2190
82.9000 27.6176 0.1834
82.9200 27.6243 0.2033
82.9400 27.6311 0.2070
82.9600 27.6378 0.1852
82.9800 27.6444 0.2034
83.0000 27.6511 0.2130
83.0200 27.6578 0.1894
83.0400 27.6644 0.1932
83.0600 27.6710 0.1991
83.0800 27.6777 0.1947
83.1000 27.6844 0.2129
83.1200 27.6910 0.1948
83.1400 27.6977 0.1850
83.1600 27.7044 0.2017
83.1800 27.7111 0.2005
83.2000 27.7178 0.1976
83.2200 27.7244 0.2032
83.2400 27.7310 0.1816
83.2600 27.7376 0.1934
83.2800 27.7443 0.2067
83.3000 27.7510 0.1929
83.3200 27.7577 0.1923
83.3400 27.7644 0.2020
83.3600 27.7711 0.1872
83.3800 27.7777 0.1843
83.4000 27.7844 0.2031
83.4200 27.7909 0.2065
83.4400 27.7976 0.1870
83.4600 27.8043 0.1850
83.4800 27.8110 0.1970
83.5000 27.8177 0.1941
83.5200 27.8244 0.1916
83.5400 27.8311 0.2026
83.5600 27.8377 0.1839
83.5800 27.8444 0.1837
83.6000 27.8510 0.2020
83.6200 27.8577 0.1955
83.6400 27.8643 0.1936
83.6600 27.8710 0.1918
83.6800 27.8777 0.1836
83.7000 27.8844 0.1825
83.7200 27.8911 0.2033
83.7400 27.8978 0.1865
83.7600 27.9044 0.1822
83.7800 27.9110 0.1994
83.8000 27.9176 0.1864
83.8200 27.9243 0.1887
83.8400 27.9311 0.2074
83.8600 27.9378 0.1782
83.8800 27.9445 0.1820
83.9000 27.9511 0.2048
83.9200 27.9578 0.1852
83.9400 27.9644 0.1792
83.9600 27.9710 0.1982
83.9800 27.9776 0.1886
84.0000 27.9843 0.1833
84.0200 27.9911 0.1979
84.0400 27.9977 0.1834
84.0600 28.0044 0.1896
84.0800 28.0110 0.1980
84.1000 28.0177 0.1812
84.1200 28.0244 0.1836
84.1400 28.0310 0.1993
84.1600 28.0376 0.1890
84.1800 28.0443 0.1769
84.2000 28.0510 0.1919
84.2200 28.0577 0.1964
84.2400 28.0644 0.1773
84.2600 28.0710 0.1886
84.2800 28.0777 0.1927
84.3000 28.0844 0.1867
84.3200 28.0910 0.1709
84.3400 28.0976 0.1996
84.3600 28.1043 0.2001
84.3800 28.1110 0.1700
84.4000 28.1178 0.1835
84.4200 28.1245 0.1887
84.4400 28.1311 0.1870
84.4600 28.1378 0.1834
84.4800 28.1444 0.1785
84.5000 28.1510 0.1914
84.5200 28.1576 0.1862
84.5400 28.1643 0.1756
84.5600 28.1711 0.1840
84.5800 28.1778 0.1957
84.6000 28.1844 0.1786
84.6200 28.1911 0.1777
84.6400 28.1977 0.1974
84.6600 28.2044 0.1754
84.6800 28.2110 0.1814
84.7000 28.2176 0.1896
84.7200 28.2243 0.1787
84.7400 28.2310 0.1860
84.7600 28.2377 0.1824
84.7800 28.2444 0.1752
84.8000 28.2511 0.1827
84.8200 28.2578 0.1852
84.8400 28.2644 0.1833
84.8600 28.2710 0.1815
84.8800 28.2776 0.1798
84.9000 28.2843 0.1775
84.9200 28.2910 0.1944
84.9400 28.2977 0.1776
84.9600 28.3044 0.1760
84.9800 28.3111 0.1827
85.0000 28.3177 0.1815
85.0200 28.3244 0.1812
85.0400 28.3310 0.1870
85.0600 28.3376 0.1771
85.0800 28.3443 0.1701
85.1000 28.3510 0.1886
85.1200 28.3577 0.1770
85.1400 28.3644 0.1799
85.1600 28.3711 0.1859
85.1800 28.3778 0.1707
85.2000 28.3844 0.1749
85.2200 28.3910 0.1866
85.2400 28.3977 0.1766
85.2600 28.4043 0.1727
85.2800 28.4110 0.1844
85.3000 28.4178 0.1753
85.3200 28.4244 0.1753
85.3400 28.4311 0.1867
85.3600 28.4378 0.1669
85.3800 28.4444 0.1750
85.4000 28.4510 0.1842
85.4200 28.4576 0.1765
85.4400 28.4643 0.1747
85.4600 28.4710 0.1831
85.4800 28.4777 0.1702
85.5000 28.4844 0.1807
85.5200 28.4911 0.1789
85.5400 28.4977 0.1657
85.5600 28.5044 0.1818
85.5800 28.5110 0.1748
85.6000 28.5176 0.1640
85.6200 28.5243 0.1914
85.6400 28.5310 0.1768
85.6600 28.5377 0.1625
85.6800 28.5443 0.1869
85.7000 28.5510 0.1719
85.7200 28.5577 0.1670
85.7400 28.5644 0.1895
85.7600 28.5710 0.1692
85.7800 28.5777 0.1624
85.8000 28.5843 0.1905
85.8200 28.5910 0.1616
85.8400 28.5977 0.1730
85.8600 28.6044 0.1876
85.8800 28.6111 0.1617
85.9000 28.6178 0.1671
85.9200 28.6244 0.1842
85.9400 28.6310 0.1664
85.9600 28.6376 0.1743
85.9800 28.6443 0.1763
86.0000 28.6510 0.1665
86.0200 28.6577 0.1676
86.0400 28.6644 0.1760
86.0600 28.6711 0.1649
86.0800 28.6778 0.1706
86.1000 28.6844 0.1738
86.1200 28.6910 0.1639
86.1400 28.6977 0.1717
86.1600 28.7043 0.1774
86.1800 28.7110 0.1663
86.2000 28.7177 0.1652
86.2200 28.7244 0.1747
86.2400 28.7311 0.1664
86.2600 28.7377 0.1692
86.2800 28.7444 0.1775
86.3000 28.7510 0.1601
86.3200 28.7576 0.1652
86.3400 28.7642 0.1836
86.3600 28.7709 0.1607
86.3800 28.7777 0.1623
86.4000 28.7844 0.1785
86.4200 28.7910 0.1618
86.4400 28.7977 0.1562
86.4600 28.8043 0.1815
86.4800 28.8110 0.1539
86.5000 28.8176 0.1674
86.5200 28.8243 0.1788
86.5400 28.8310 0.1488
86.5600 28.8377 0.1668
86.5800 28.8444 0.1791
86.6000 28.8511 0.1498
86.6200 28.8578 0.1661
86.6400 28.8645 0.1754
86.6600 28.8711 0.1539
86.6800 28.8777 0.1645
86.7000 28.8844 0.1741
86.7200 28.8911 0.1562
86.7400 28.8978 0.1639
86.7600 28.9044 0.1712
86.7800 28.9111 0.1524
86.8000 28.9178 0.1690
86.8200 28.9244 0.1667
86.8400 28.9310 0.1517
86.8600 28.9376 0.1660
86.8800 28.9443 0.1712
86.9000 28.9510 0.1506
86.9200 28.9577 0.1624
86.9400 28.9644 0.1694
86.9600 28.9710 0.1542
86.9800 28.9777 0.1637
87.0000 28.9844 0.1629
87.0200 28.9910 0.1502
87.0400 28.9976 0.1679
87.0600 29.0043 0.1646
87.0800 29.0110 0.1492
87.1000 29.0177 0.1594
87.1200 29.0244 0.1664
87.1400 29.0311 0.1518
87.1600 29.0377 0.1609
87.1800 29.0444 0.1602
87.2000 29.0511 0.1552
87.2200 29.0577 0.1610
87.2400 29.0643 0.1601
87.2600 29.0710 0.1521
87.2800 29.0777 0.1566
87.3000 29.0844 0.1611
87.3200 29.0911 0.1528
87.3400 29.0978 0.1634
87.3600 29.1045 0.1597
87.3800 29.1111 0.1516
87.4000 29.1177 0.1572
87.4200 29.1243 0.1632
87.4400 29.1310 0.1549
87.4600 29.1377 0.1571
87.4800 29.1444 0.1534
87.5000 29.1511 0.1548
87.5200 29.1578 0.1574
87.5400 29.1644 0.1592
87.5600 29.1710 0.1531
87.5800 29.1776 0.1606
87.6000 29.1843 0.1504
87.6200 29.1910 0.1544
87.6400 29.1977 0.1680
87.6600 29.2044 0.1501
87.6800 29.2110 0.1472
87.7000 29.2177 0.1692
87.7200 29.2244 0.1497
87.7400 29.2310 0.1458
87.7600 29.2376 0.1678
87.7800 29.2443 0.1521
87.8000 29.2510 0.1487
87.8200 29.2577 0.1616
87.8400 29.2643 0.1509
87.8600 29.2710 0.1530
87.8800 29.2777 0.1598
87.9000 29.2844 0.1502
87.9200 29.2911 0.1560
87.9400 29.2977 0.1589
87.9600 29.3043 0.1481
87.9800 29.3110 0.1552
88.0000 29.3177 0.1652
88.0200 29.3244 0.1480
88.0400 29.3311 0.1519
88.0600 29.3378 0.1629
88.0800 29.3444 0.1537
88.1000 29.3511 0.1465
88.1200 29.3577 0.1591
88.1400 29.3643 0.1553
88.1600 29.3710 0.1424
88.1800 29.3777 0.1595
88.2000 29.3844 0.1542
88.2200 29.3911 0.1394
88.2400 29.3978 0.1548
88.2600 29.4044 0.1576
88.2800 29.4111 0.1500
88.3000 29.4177 0.1511
88.3200 29.4243 0.1481
88.3400 29.4310 0.1671
88.3600 29.4377 0.1514
88.3800 29.4444 0.1289
88.4000 29.4510 0.1563
88.4200 29.4577 0.1762
88.4400 29.4644 0.1393
88.4600 29.4710 0.1260
88.4800 29.4776 0.1677
88.5000 29.4842 0.1600
88.5200 29.4909 0.1459
88.5400 29.4977 0.1488
88.5600 29.5044 0.1363
88.5800 29.5111 0.1510
88.6000 29.5177 0.1591
88.6200 29.5244 0.1375
88.6400 29.5310 0.1416
88.6600 29.5377 0.1674
88.6800 29.5443 0.1365
88.7000 29.5510 0.1297
88.7200 29.5577 0.1634
88.7400 29.5644 0.1611
88.7600 29.5711 0.1358
88.7800 29.5778 0.1340
88.8000 29.5844 0.1564
88.8200 29.5911 0.1372
88.8400 29.5977 0.1523
88.8600 29.6043 0.1612
88.8800 29.6110 0.1170
88.9000 29.6177 0.1485
88.9200 29.6244 0.1707
88.9400 29.6311 0.1284
88.9600 29.6378 0.1476
88.9800 29.6444 0.1492
89.0000 29.6510 0.1333
89.0200 29.6576 0.1495
89.0400 29.6643 0.1489
89.0600 29.6710 0.1212
89.0800 29.6777 0.1846
89.1000 29.6844 0.1355
89.1200 29.6911 0.0977
89.1400 29.6977 0.1886
89.1600 29.7044 0.1343
89.1800 29.7110 0.1206
89.2000 29.7177 0.1915
89.2200 29.7243 0.1063
89.2400 29.7310 0.1264
89.2600 29.7377 0.1897
89.2800 29.7444 0.1016
89.3000 29.7510 0.1403
89.3200 29.7577 0.1854
89.3400 29.7644 0.0957
89.3600 29.7711 0.1381
89.3800 29.7777 0.1713
89.4000 29.7843 0.1090
89.4200 29.7910 0.1657
89.4400 29.7977 0.1406
89.4600 29.8044 0.1050
89.4800 29.8111 0.1707
89.5000 29.8178 0.1444
89.5200 29.8244 0.1161
89.5400 29.8311 0.1541
89.5600 29.8377 0.1417
89.5800 29.8443 0.1296
89.6000 29.8510 0.1425
89.6200 29.8577 0.1484
89.6400 29.8644 0.1425
89.6600 29.8711 0.1352
89.6800 29.8778 0.1260
89.7000 29.8844 0.1426
89.7200 29.8911 0.1350
89.7400 29.8977 0.1407
89.7600 29.9043 0.1464
89.7800 29.9110 0.1131
89.8000 29.9177 0.1535
89.8200 29.9244 0.1421
89.8400 29.9310 0.1080
89.8600 29.9377 0.1677
89.8800 29.9444 0.1336
89.9000 29.9511 0.1028
89.9200 29.9577 0.1620
89.9400 29.9643 0.1332
89.9600 29.9709 0.1237
89.9800 29.9776 0.1607
90.0000 29.9844 0.1172
90.0200 29.9911 0.1198
90.0400 29.9977 0.1752
90.0600 30.0044 0.1132
90.0800 30.0111 0.1235
90.1000 30.0177 0.1622
90.1200 30.0243 0.1099
90.1400 30.0310 0.1383
90.1600 30.0377 0.1556
90.1800 30.0444 0.1044
90.2000 30.0511 0.1437
90.2200 30.0578 0.1469
90.2400 30.0644 0.1076
90.2600 30.0711 0.1511
90.2800 30.0777 0.1410
90.3000 30.0843 0.1054
90.3200 30.0910 0.1555
90.3400 30.0977 0.1369
90.3600 30.1044 0.1122
90.3800 30.1111 0.1554
90.4000 30.1178 0.1227
90.4200 30.1244 0.1126
90.4400 30.1311 0.1536
90.4600 30.1377 0.1308
90.4800 30.1443 0.1196
90.5000 30.1509 0.1427
90.5200 30.1576 0.1283
90.5400 30.1643 0.1227
90.5600 30.1710 0.1365
90.5800 30.1777 0.1360
90.6000 30.1844 0.1254
90.6200 30.1911 0.1272
90.6400 30.1977 0.1288
90.6600 30.2043 0.1368
90.6800 30.2109 0.1275
90.7000 30.2176 0.1271
90.7200 30.2244 0.1276
90.7400 30.2310 0.1282
90.7600 30.2377 0.1260
90.7800 30.2444 0.1295
90.8000 30.2510 0.1272
90.8200 30.2577 0.1291
90.8400 30.2643 0.1314
90.8600 30.2710 0.1236
90.8800 30.2777 0.1268
90.9000 30.2844 0.1300
90.9200 30.2911 0.1281
90.9400 30.2978 0.1192
90.9600 30.3045 0.1283
90.9800 30.3111 0.1312
91.0000 30.3177 0.1254
91.0200 30.3243 0.1194
91.0400 30.3310 0.1319
91.0600 30.3377 0.1241
91.0800 30.3444 0.1212
91.1000 30.3511 0.1292
91.1200 30.3578 0.1317
91.1400 30.3644 0.1156
91.1600 30.3711 0.1257
91.1800 30.3777 0.1257
91.2000 30.3843 0.1253
91.2200 30.3909 0.1289
91.2400 30.3976 0.1275
91.2600 30.4043 0.1115
91.2800 30.4110 0.1248
91.3000 30.4177 0.1288
91.3200 30.4244 0.1138
91.3400 30.4310 0.1308
91.3600 30.4377 0.1276
91.3800 30.4443 0.1031
91.4000 30.4509 0.1291
91.4200 30.4576 0.1292
91.4400 30.4643 0.1065
91.4600 30.4710 0.1390
91.4800 30.4777 0.1175
91.5000 30.4844 0.0971
91.5200 30.4911 0.1389
91.5400 30.4977 0.1245
91.5600 30.5043 0.1116
91.5800 30.5110 0.1345
91.6000 30.5177 0.1043
91.6200 30.5244 0.1092
91.6400 30.5311 0.1445
91.6600 30.5378 0.1114
91.6800 30.5444 0.1048
91.7000 30.5511 0.1349
91.7200 30.5577 0.1068
91.7400 30.5643 0.1134
91.7600 30.5710 0.1304
91.7800 30.5777 0.1213
91.8000 30.5844 0.1100
91.8200 30.5911 0.1209
91.8400 30.5977 0.1093
91.8600 30.6044 0.1222
91.8800 30.6111 0.1203
91.9000 30.6178 0.1134
91.9200 30.6244 0.1138
91.9400 30.6310 0.1158
91.9600 30.6377 0.1224
91.9800 30.6444 0.1131
92.0000 30.6511 0.1037
92.0200 30.6577 0.1310
92.0400 30.6644 0.1217
92.0600 30.6711 0.0884
92.0800 30.6777 0.1345
92.1000 30.6843 0.1232
92.1200 30.6909 0.0914
92.1400 30.6976 0.1332
92.1600 30.7043 0.1247
92.1800 30.7110 0.0838
92.2000 30.7177 0.1334
92.2200 30.7244 0.1188
92.2400 30.7311 0.0965
92.2600 30.7377 0.1347
92.2800 30.7443 0.0960
92.3000 30.7510 0.0912
92.3200 30.7577 0.1477
92.3400 30.7644 0.1000
92.3600 30.7710 0.0971
92.3800 30.7777 0.1370
92.4000 30.7844 0.0972
92.4200 30.7911 0.0964
92.4400 30.7977 0.1276
92.4600 30.8044 0.1130
92.4800 30.8110 0.1123
92.5000 30.8177 0.1060
92.5200 30.8244 0.0897
92.5400 30.8311 0.1330
92.5600 30.8378 0.1198
92.5800 30.8445 0.0867
92.6000 30.8511 0.1227
92.6200 30.8577 0.1120
92.6400 30.8643 0.0969
92.6600 30.8710 0.1275
92.6800 30.8777 0.1098
92.7000 30.8844 0.1062
92.7200 30.8911 0.1088
92.7400 30.8978 0.1034
92.7600 30.9044 0.1179
92.7800 30.9111 0.1090
92.8000 30.9177 0.0942
92.8200 30.9243 0.1256
92.8400 30.9309 0.1092
92.8600 30.9376 0.0921
92.8800 30.9443 0.1310
92.9000 30.9510 0.1090
92.9200 30.9577 0.0939
92.9400 30.9644 0.1192
92.9600 30.9710 0.1081
92.9800 30.9777 0.1029
93.0000 30.9843 0.1150
93.0200 30.9910 0.1061
93.0400 30.9977 0.1032
93.0600 31.0044 0.1071
93.0800 31.0111 0.1069
93.1000 31.0178 0.1148
93.1200 31.0245 0.1006
93.1400 31.0311 0.0950
93.1600 31.0377 0.1183
93.1800 31.0443 0.0980
93.2000 31.0510 0.0950
93.2200 31.0577 0.1240
93.2400 31.0644 0.1096
93.2600 31.0711 0.0857
93.2800 31.0778 0.1164
93.3000 31.0844 0.1138
93.3200 31.0911 0.0917
93.3400 31.0977 0.1076
93.3600 31.1043 0.1198
93.3800 31.1110 0.0841
93.4000 31.1176 0.1015
93.4200 31.1243 0.1267
93.4400 31.1310 0.0977
93.4600 31.1377 0.1039
93.4800 31.1444 0.1065
93.5000 31.1511 0.0918
93.5200 31.1577 0.1139
93.5400 31.1643 0.1109
93.5600 31.1709 0.0977
93.5800 31.1776 0.1066
93.6000 31.1843 0.0948
93.6200 31.1910 0.1043
93.6400 31.1977 0.1122
93.6600 31.2044 0.0918
93.6800 31.2111 0.0991
93.7000 31.2177 0.1121
93.7200 31.2243 0.0875
93.7400 31.2310 0.1092
93.7600 31.2376 0.1118
93.7800 31.2444 0.0885
93.8000 31.2511 0.1061
93.8200 31.2577 0.1056
93.8400 31.2644 0.0881
93.8600 31.2711 0.1136
93.8800 31.2778 0.0998
93.9000 31.2844 0.0821
93.9200 31.2910 0.1135
93.9400 31.2977 0.0995
93.9600 31.3044 0.0806
93.9800 31.3111 0.1170
94.0000 31.3177 0.0941
94.0200 31.3244 0.0793
94.0400 31.3311 0.1197
94.0600 31.3378 0.0896
94.0800 31.3444 0.0805
94.1000 31.3510 0.1158
94.1200 31.3576 0.0929
94.1400 31.3643 0.0833
94.1600 31.3711 0.1117
94.1800 31.3777 0.0895
94.2000 31.3844 0.0884
94.2200 31.3911 0.1041
94.2400 31.3977 0.0894
94.2600 31.4043 0.0934
94.2800 31.4109 0.1039
94.3000 31.4176 0.0867
94.3200 31.4243 0.0960
94.3400 31.4310 0.0938
94.3600 31.4377 0.0933
94.3800 31.4443 0.0978
94.4000 31.4510 0.0931
94.4200 31.4577 0.0901
94.4400 31.4643 0.0934
94.4600 31.4710 0.0936
94.4800 31.4776 0.0971
94.5000 31.4844 0.0876
94.5200 31.4911 0.0895
94.5400 31.4977 0.0981
94.5600 31.5044 0.0868
94.5800 31.5111 0.0959
94.6000 31.5178 0.0927
94.6200 31.5244 0.0854
94.6400 31.5310 0.0938
94.6600 31.5376 0.0937
94.6800 31.5444 0.0823
94.7000 31.5511 0.0983
94.7200 31.5578 0.0896
94.7400 31.5644 0.0797
94.7600 31.5711 0.0973
94.7800 31.5778 0.0936
94.8000 31.5843 0.0764
94.8200 31.5910 0.1032
94.8400 31.5976 0.0872
94.8600 31.6043 0.0762
94.8800 31.6111 0.1016
94.9000 31.6177 0.0893
94.9200 31.6244 0.0756
94.9400 31.6311 0.1006
94.9600 31.6377 0.0878
94.9800 31.6444 0.0799
95.0000 31.6510 0.1009
95.0200 31.6576 0.0871
95.0400 31.6643 0.0814
95.0600 31.6710 0.0981
95.0800 31.6777 0.0856
95.1000 31.6844 0.0885
95.1200 31.6911 0.0982
95.1400 31.6977 0.0809
95.1600 31.7043 0.0867
95.1800 31.7110 0.0956
95.2000 31.7176 0.0837
95.2200 31.7244 0.0897
95.2400 31.7311 0.0887
95.2600 31.7378 0.0774
95.2800 31.7445 0.0979
95.3000 31.7511 0.0880
95.3200 31.7578 0.0828
95.3400 31.7644 0.0918
95.3600 31.7710 0.0872
95.3800 31.7777 0.0802
95.4000 31.7844 0.0955
95.4200 31.7911 0.0851
95.4400 31.7978 0.0825
95.4600 31.8044 0.0853
95.4800 31.8111 0.0851
95.5000 31.8177 0.0881
95.5200 31.8244 0.0855
95.5400 31.8310 0.0816
95.5600 31.8376 0.0916
95.5800 31.8443 0.0875
95.6000 31.8510 0.0710
95.6200 31.8577 0.0917
95.6400 31.8644 0.0892
95.6600 31.8711 0.0773
95.6800 31.8777 0.0847
95.7000 31.8843 0.0872
95.7200 31.8909 0.0796
95.7400 31.8976 0.0889
95.7600 31.9043 0.0861
95.7800 31.9110 0.0799
95.8000 31.9177 0.0814
95.8200 31.9244 0.0877
95.8400 31.9311 0.0760
95.8600 31.9377 0.0836
95.8800 31.9444 0.0841
95.9000 31.9510 0.0815
95.9200 31.9576 0.0758
95.9400 31.9643 0.0834
95.9600 31.9710 0.0807
95.9800 31.9777 0.0741
96.0000 31.9844 0.0923
96.0200 31.9911 0.0739
96.0400 31.9978 0.0734
96.0600 32.0044 0.0884
96.0800 32.0110 0.0762
96.1000 32.0176 0.0792
96.1200 32.0243 0.0842
96.1400 32.0310 0.0729
96.1600 32.0377 0.0780
96.1800 32.0444 0.0876
96.2000 32.0511 0.0742
96.2200 32.0578 0.0820
96.2400 32.0644 0.0801
96.2600 32.0710 0.0618
96.2800 32.0776 0.0959
96.3000 32.0843 0.0780
96.3200 32.0911 0.0612
96.3400 32.0978 0.0858
96.3600 32.1044 0.0787
96.3800 32.1111 0.0633
96.4000 32.1177 0.0840
96.4200 32.1244 0.0749
96.4400 32.1310 0.0685
96.4600 32.1376 0.0823
96.4800 32.1443 0.0710
96.5000 32.1510 0.0713
96.5200 32.1577 0.0862
96.5400 32.1643 0.0621
96.5600 32.1710 0.0727
96.5800 32.1777 0.0809
96.6000 32.1844 0.0688
96.6200 32.1910 0.0779
96.6400 32.1976 0.0759
96.6600 32.2043 0.0707
96.6800 32.2110 0.0789
96.7000 32.2177 0.0747
96.7200 32.2244 0.0611
96.7400 32.2311 0.0858
96.7600 32.2378 0.0744
96.7800 32.2444 0.0580
96.8000 32.2510 0.0804
96.8200 32.2576 0.0829
96.8400 32.2643 0.0625
96.8600 32.2711 0.0790
96.8800 32.2778 0.0791
96.9000 32.2845 0.0653
96.9200 32.2911 0.0753
96.9400 32.2978 0.0773
96.9600 32.3044 0.0650
96.9800 32.3110 0.0798
97.0000 32.3176 0.0793
97.0200 32.3243 0.0700
97.0400 32.3310 0.0728
97.0600 32.3377 0.0807
97.0800 32.3444 0.0689
97.1000 32.3510 0.0690
97.1200 32.3577 0.0780
97.1400 32.3644 0.0664
97.1600 32.3710 0.0698
97.1800 32.3776 0.0826
97.2000 32.3843 0.0681
97.2200 32.3910 0.0665
97.2400 32.3977 0.0793
97.2600 32.4044 0.0665
97.2800 32.4111 0.0681
97.3000 32.4177 0.0761
97.3200 32.4244 0.0686
97.3400 32.4310 0.0712
97.3600 32.4376 0.0759
97.3800 32.4443 0.0622
97.4000 32.4511 0.0713
97.4200 32.4578 0.0738
97.4400 32.4644 0.0637
97.4600 32.4711 0.0740
97.4800 32.4778 0.0655
97.5000 32.4844 0.0582
97.5200 32.4911 0.0806
97.5400 32.4977 0.0666
97.5600 32.5044 0.0574
97.5800 32.5111 0.0755
97.6000 32.5178 0.0646
97.6200 32.5244 0.0631
97.6400 32.5311 0.0692
97.6600 32.5378 0.0701
97.6800 32.5444 0.0672
97.7000 32.5510 0.0635
97.7200 32.5576 0.0680
97.7400 32.5643 0.0686
97.7600 32.5710 0.0668
97.7800 32.5777 0.0663
97.8000 32.5844 0.0662
97.8200 32.5911 0.0622
97.8400 32.5978 0.0610
97.8600 32.6044 0.0704
97.8800 32.6110 0.0580
97.9000 32.6176 0.0665
97.9200 32.6243 0.0689
97.9400 32.6310 0.0624
97.9600 32.6377 0.0643
97.9800 32.6444 0.0652
98.0000 32.6510 0.0599
98.0200 32.6577 0.0654
98.0400 32.6644 0.0635
98.0600 32.6710 0.0597
98.0800 32.6777 0.0674
98.1000 32.6843 0.0595
98.1200 32.6910 0.0612
98.1400 32.6977 0.0675
98.1600 32.7044 0.0571
98.1800 32.7111 0.0583
98.2000 32.7178 0.0663
98.2200 32.7244 0.0571
98.2400 32.7310 0.0690
98.2600 32.7376 0.0610
98.2800 32.7443 0.0525
98.3000 32.7510 0.0679
98.3200 32.7577 0.0626
98.3400 32.7644 0.0549
98.3600 32.7711 0.0674
98.3800 32.7778 0.0530
98.4000 32.7844 0.0573
98.4200 32.7910 0.0701
98.4400 32.7976 0.0610
98.4600 32.8043 0.0532
98.4800 32.8110 0.0652
98.5000 32.8177 0.0522
98.5200 32.8244 0.0625
98.5400 32.8311 0.0664
98.5600 32.8377 0.0438
98.5800 32.8444 0.0627
98.6000 32.8510 0.0666
98.6200 32.8576 0.0507
98.6400 32.8642 0.0634
98.6600 32.8709 0.0649
98.6800 32.8777 0.0477
98.7000 32.8844 0.0580
98.7200 32.8910 0.0615
98.7400 32.8977 0.0495
98.7600 32.9044 0.0587
98.7800 32.9110 0.0610
98.8000 32.9176 0.0488
98.8200 32.9243 0.0663
98.8400 32.9310 0.0545
98.8600 32.9378 0.0479
98.8800 32.9445 0.0624
98.9000 32.9511 0.0571
98.9200 32.9578 0.0463
98.9400 32.9644 0.0623
98.9600 32.9710 0.0530
98.9800 32.9776 0.0520
99.0000 32.9843 0.0582
99.0200 32.9910 0.0489
99.0400 32.9978 0.0518
99.0600 33.0044 0.0597
99.0800 33.0111 0.0494
99.1000 33.0177 0.0502
99.1200 33.0244 0.0535
99.1400 33.0310 0.0544
99.1600 33.0376 0.0545
99.1800 33.0443 0.0560
99.2000 33.0510 0.0567
99.2200 33.0577 0.0455
99.2400 33.0644 0.0520
99.2600 33.0711 0.0586
99.2800 33.0778 0.0485
99.3000 33.0844 0.0495
99.3200 33.0910 0.0576
99.3400 33.0976 0.0438
99.3600 33.1043 0.0572
99.3800 33.1110 0.0579
99.4000 33.1177 0.0406
99.4200 33.1244 0.0501
99.4400 33.1310 0.0573
99.4600 33.1377 0.0358
99.4800 33.1444 0.0574
99.5000 33.1510 0.0555
99.5200 33.1576 0.0324
99.5400 33.1643 0.0586
99.5600 33.1710 0.0541
99.5800 33.1777 0.0333
99.6000 33.1844 0.0573
99.6200 33.1911 0.0508
99.6400 33.1978 0.0395
99.6600 33.2044 0.0615
99.6800 33.2111 0.0405
99.7000 33.2177 0.0392
99.7200 33.2243 0.0709
99.7400 33.2310 0.0380
99.7600 33.2377 0.0328
99.7800 33.2444 0.0767
99.8000 33.2511 0.0351
99.8200 33.2578 0.0277
99.8400 33.2645 0.0733
99.8600 33.2710 0.0400
99.8800 33.2776 0.0242
99.9000 33.2843 0.0702
99.9200 33.2910 0.0435
99.9400 33.2977 0.0248
99.9600 33.3044 0.0668
99.9800 33.3111 0.0435
100.0000 33.3177 0.0264
100.0200 33.3244 0.0614
100.0400 33.3310 0.0431
100.0600 33.3376 0.0330
100.0800 33.3443 0.0565
100.1000 33.3510 0.0347
100.1200 33.3577 0.0397
100.1400 33.3644 0.0641
100.1600 33.3710 0.0243
100.1800 33.3777 0.0462
100.2000 33.3844 0.0626
100.2200 33.3910 0.0101
100.2400 33.3977 0.0533
100.2600 33.4043 0.0692
100.2800 33.4110 0.0093
100.3000 33.4177 0.0460
100.3200 33.4244 0.0647
100.3400 33.4311 0.0127
100.3600 33.4378 0.0565
100.3800 33.4445 0.0561
100.4000 33.4511 0.0138
100.4200 33.4577 0.0569
100.4400 33.4643 0.0547
100.4600 33.4710 0.0156
100.4800 33.4777 0.0571
100.5000 33.4844 0.0432
100.5200 33.4911 0.0161
100.5400 33.4978 0.0639
100.5600 33.5044 0.0355
100.5800 33.5110 0.0240
100.6000 33.5176 0.0610
100.6200 33.5243 0.0299
100.6400 33.5310 0.0329
100.6600 33.5377 0.0567
100.6800 33.5444 0.0276
100.7000 33.5511 0.0319
100.7200 33.5577 0.0522
100.7400 33.5644 0.0240
100.7600 33.5710 0.0346
100.7800 33.5776 0.0531
100.8000 33.5843 0.0242
100.8200 33.5909 0.0367
100.8400 33.5977 0.0445
100.8600 33.6044 0.0344
100.8800 33.6110 0.0377
100.9000 33.6177 0.0362
100.9200 33.6244 0.0281
100.9400 33.6310 0.0419
100.9600 33.6376 0.0408
100.9800 33.6443 0.0264
101.0000 33.6510 0.0393
101.0200 33.6577 0.0369
101.0400 33.6644 0.0281
101.0600 33.6711 0.0413
101.0800 33.6778 0.0331
101.1000 33.6845 0.0313
101.1200 33.6911 0.0360
101.1400 33.6977 0.0343
101.1600 33.7044 0.0376
101.1800 33.7110 0.0401
101.2000 33.7177 0.0268
101.2200 33.7244 0.0317
101.2400 33.7311 0.0451
101.2600 33.7378 0.0308
101.2800 33.7444 0.0294
101.3000 33.7511 0.0350
101.3200 33.7577 0.0335
101.3400 33.7643 0.0324
101.3600 33.7710 0.0356
101.3800 33.7777 0.0319
101.4000 33.7844 0.0371
101.4200 33.7910 0.0311
101.4400 33.7977 0.0271
101.4600 33.8044 0.0397
101.4800 33.8110 0.0363
101.5000 33.8176 0.0297
101.5200 33.8243 0.0322
101.5400 33.8310 0.0327
101.5600 33.8377 0.0277
101.5800 33.8444 0.0313
101.6000 33.8511 0.0385
101.6200 33.8577 0.0278
101.6400 33.8644 0.0336
101.6600 33.8710 0.0313
101.6800 33.8777 0.0306
101.7000 33.8843 0.0390
101.7200 33.8910 0.0305
101.7400 33.8977 0.0303
101.7600 33.9044 0.0308
101.7800 33.9111 0.0317
101.8000 33.9178 0.0301
101.8200 33.9244 0.0360
101.8400 33.9311 0.0238
101.8600 33.9377 0.0285
101.8800 33.9443 0.0366
101.9000 33.9510 0.0269
101.9200 33.9577 0.0251
101.9400 33.9644 0.0349
101.9600 33.9711 0.0231
101.9800 33.9778 0.0275
102.0000 33.9844 0.0313
102.0200 33.9910 0.0275
102.0400 33.9976 0.0247
102.0600 34.0043 0.0342
102.0800 34.0110 0.0255
102.1000 34.0177 0.0268
102.1200 34.0244 0.0275
102.1400 34.0311 0.0206
102.1600 34.0377 0.0305
102.1800 34.0444 0.0315
102.2000 34.0510 0.0151
102.2200 34.0577 0.0238
102.2400 34.0643 0.0338
102.2600 34.0710 0.0232
102.2800 34.0777 0.0280
102.3000 34.0844 0.0271
102.3200 34.0910 0.0190
102.3400 34.0977 0.0259
102.3600 34.1044 0.0328
102.3800 34.1111 0.0167
102.4000 34.1177 0.0257
102.4200 34.1243 0.0302
102.4400 34.1310 0.0199
102.4600 34.1377 0.0265
102.4800 34.1444 0.0274
102.5000 34.1511 0.0136
102.5200 34.1578 0.0279
102.5400 34.1644 0.0259
102.5600 34.1711 0.0157
102.5800 34.1777 0.0322
102.6000 34.1843 0.0278
102.6200 34.1910 0.0074
102.6400 34.1977 0.0382
102.6600 34.2044 0.0296
102.6800 34.2111 0.0090
102.7000 34.2178 0.0290
102.7200 34.2244 0.0268
102.7400 34.2311 0.0158
102.7600 34.2377 0.0281
102.7800 34.2443 0.0160
102.8000 34.2510 0.0253
102.8200 34.2577 0.0378
102.8400 34.2644 0.0087
102.8600 34.2711 0.0233
102.8800 34.2778 0.0347
102.9000 34.2844 0.0053
102.9200 34.2911 0.0178
102.9400 34.2976 0.0376
102.9600 34.3042 0.0068
102.9800 34.3109 0.0205
103.0000 34.3176 0.0279
103.0200 34.3244 0.0142
103.0400 34.3311 0.0211
103.0600 34.3377 0.0207
103.0800 34.3444 0.0122
103.1000 34.3511 0.0299
103.1200 34.3577 0.0175
103.1400 34.3643 0.0067
103.1600 34.3710 0.0290
103.1800 34.3777 0.0161
103.2000 34.3844 0.0079
103.2200 34.3911 0.0273
103.2400 34.3978 0.0174
103.2600 34.4045 0.0089
103.2800 34.4111 0.0258
103.3000 34.4177 0.0187
103.3200 34.4244 0.0095
103.3400 34.4310 0.0186
103.3600 34.4377 0.0271
103.3800 34.4444 0.0093
103.4000 34.4511 0.0119
103.4200 34.4578 0.0221
103.4400 34.4644 0.0152
103.4600 34.4711 0.0103
103.4800 34.4777 0.0270
103.5000 34.4843 0.0155
103.5200 34.4909 0.0136
103.5400 34.4977 0.0225
103.5600 34.5044 0.0127
103.5800 34.5111 0.0157
103.6000 34.5177 0.0234
103.6200 34.5244 0.0094
103.6400 34.5311 0.0126
103.6600 34.5377 0.0256
103.6800 34.5443 0.0084
103.7000 34.5510 0.0089
103.7200 34.5577 0.0222
103.7400 34.5644 0.0147
103.7600 34.5710 0.0085
103.7800 34.5777 0.0187
103.8000 34.5844 0.0123
103.8200 34.5910 0.0072
103.8400 34.5977 0.0206
103.8600 34.6043 0.0176
103.8800 34.6109 0.0044
103.9000 34.6176 0.0196
103.9200 34.6244 0.0157
103.9400 34.6311 0.0046
103.9600 34.6378 0.0187
103.9800 34.6444 0.0151
104.0000 34.6511 -0.0001
104.0200 34.6577 0.0189
104.0400 34.6643 0.0121
104.0600 34.6710 0.0031
104.0800 34.6777 0.0169
104.1000 34.6844 0.0165
104.1200 34.6911 -0.0035
104.1400 34.6978 0.0170
104.1600 34.7044 0.0143
104.1800 34.7111 -0.0012
104.2000 34.7177 0.0152
104.2200 34.7243 0.0119
104.2400 34.7310 0.0043
104.2600 34.7377 0.0076
104.2800 34.7444 0.0119
104.3000 34.7510 0.0069
104.3200 34.7577 0.0052
104.3400 34.7644 0.0095
104.3600 34.7711 0.0051
104.3800 34.7777 0.0065
104.4000 34.7843 0.0126
104.4200 34.7909 0.0021
104.4400 34.7976 0.0135
104.4600 34.8043 0.0110
104.4800 34.8110 -0.0010
104.5000 34.8177 0.0094
104.5200 34.8244 0.0093
104.5400 34.8311 -0.0046
104.5600 34.8377 0.0132
104.5800 34.8443 0.0087
104.6000 34.8510 0.0012
104.6200 34.8577 0.0087
104.6400 34.8644 0.0057
104.6600 34.8711 0.0026
104.6800 34.8778 0.0102
104.7000 34.8844 0.0017
104.7200 34.8911 0.0040
104.7400 34.8977 0.0092
104.7600 34.9043 0.0012
104.7800 34.9110 0.0037
104.8000 34.9177 0.0072
104.8200 34.9244 0.0024
104.8400 34.9311 -0.0007
104.8600 34.9378 0.0079
104.8800 34.9445 0.0001
104.9000 34.9511 0.0049
104.9200 34.9577 0.0027
104.9400 34.9643 0.0086
104.9600 34.9709 0.0033
104.9800 34.9776 -0.0018
105.0000 34.9844 0.0049
105.0200 34.9911 0.0118
105.0400 34.9977 -0.0042
105.0600 35.0044 0.0034
105.0800 35.0111 0.0111
105.1000 35.0177 -0.0052
105.1200 35.0243 -0.0013
105.1400 35.0309 0.0102
105.1600 35.0376 -0.0019
105.1800 35.0443 0.0010
105.2000 35.0510 -0.0020
105.2200 35.0577 -0.0071
105.2400 35.0644 0.0148
105.2600 35.0710 -0.0030
105.2800 35.0777 -0.0147
105.3000 35.0843 0.0099
105.3200 35.0910 0.0061
105.3400 35.0977 -0.0143
105.3600 35.1044 0.0048
105.3800 35.1111 0.0089
105.4000 35.1178 -0.0090
105.4200 35.1245 -0.0021
105.4400 35.1311 -0.0017
105.4600 35.1377 -0.0032
105.4800 35.1443 0.0089
105.5000 35.1510 -0.0049
105.5200 35.1577 -0.0094
105.5400 35.1644 0.0003
105.5600 35.1711 0.0001
105.5800 35.1778 -0.0149
105.6000 35.1844 0.0051
105.6200 35.1911 0.0003
105.6400 35.1977 -0.0152
105.6600 35.2043 0.0015
105.6800 35.2109 -0.0002
105.7000 35.2176 -0.0079
105.7200 35.2244 -0.0014
105.7400 35.2310 -0.0089
105.7600 35.2377 -0.0103
105.7800 35.2444 0.0089
105.8000 35.2510 -0.0129
105.8200 35.2577 -0.0159
105.8400 35.2643 0.0131
105.8600 35.2709 -0.0155
105.8800 35.2776 -0.0136
105.9000 35.2843 0.0112
105.9200 35.2910 -0.0165
105.9400 35.2977 -0.0084
105.9600 35.3044 0.0033
105.9800 35.3111 -0.0198
106.0000 35.3178 -0.0138
106.0200 35.3244 0.0115
106.0400 35.3310 -0.0151
106.0600 35.3377 -0.0121
106.0800 35.3444 0.0041
106.1000 35.3511 -0.0131
106.1200 35.3578 -0.0155
106.1400 35.3645 0.0021
106.1600 35.3711 -0.0166
106.1800 35.3777 -0.0151
106.2000 35.3843 0.0041
106.2200 35.3910 -0.0125
106.2400 35.3977 -0.0198
106.2600 35.4044 0.0011
106.2800 35.4111 -0.0122
106.3000 35.4177 -0.0190
106.3200 35.4244 0.0018
106.3400 35.4311 -0.0144
106.3600 35.4377 -0.0179
106.3800 35.4444 -0.0030
106.4000 35.4510 -0.0128
106.4200 35.4577 -0.0167
106.4400 35.4643 -0.0005
106.4600 35.4710 -0.0121
106.4800 35.4777 -0.0187
106.5000 35.4844 -0.0061
106.5200 35.4911 -0.0149
106.5400 35.4977 -0.0190
106.5600 35.5043 -0.0023
106.5800 35.5109 -0.0160
106.6000 35.5176 -0.0201
106.6200 35.5243 -0.0056
106.6400 35.5310 -0.0134
106.6600 35.5377 -0.0191
106.6800 35.5444 -0.0076
106.7000 35.5511 -0.0164
106.7200 35.5577 -0.0197
106.7400 35.5643 -0.0132
106.7600 35.5710 -0.0104
106.7800 35.5776 -0.0199
106.8000 35.5844 -0.0225
106.8200 35.5911 -0.0056
106.8400 35.5977 -0.0163
106.8600 35.6044 -0.0246
106.8800 35.6111 -0.0142
106.9000 35.6178 -0.0138
106.9200 35.6244 -0.0191
106.9400 35.6310 -0.0200
106.9600 35.6377 -0.0145
106.9800 35.6444 -0.0133
107.0000 35.6511 -0.0246
107.0200 35.6577 -0.0172
107.0400 35.6644 -0.0108
107.0600 35.6711 -0.0194
107.0800 35.6777 -0.0274
107.1000 35.6843 -0.0109
107.1200 35.6909 -0.0132
107.1400 35.6976 -0.0254
107.1600 35.7044 -0.0180
107.1800 35.7111 -0.0161
107.2000 35.7178 -0.0194
107.2200 35.7244 -0.0259
107.2400 35.7311 -0.0222
107.2600 35.7377 -0.0171
107.2800 35.7443 -0.0233
107.3000 35.7509 -0.0199
107.3200 35.7576 -0.0175
107.3400 35.7643 -0.0229
107.3600 35.7710 -0.0216
107.3800 35.7777 -0.0202
107.4000 35.7844 -0.0193
107.4200 35.7910 -0.0219
107.4400 35.7977 -0.0183
107.4600 35.8043 -0.0225
107.4800 35.8110 -0.0216
107.5000 35.8176 -0.0249
107.5200 35.8244 -0.0165
107.5400 35.8311 -0.0219
107.5600 35.8378 -0.0271
107.5800 35.8444 -0.0208
107.6000 35.8511 -0.0178
107.6200 35.8577 -0.0337
107.6400 35.8643 -0.0174
107.6600 35.8710 -0.0113
107.6800 35.8777 -0.0285
107.7000 35.8844 -0.0274
107.7200 35.8911 -0.0133
107.7400 35.8978 -0.0318
107.7600 35.9044 -0.0186
107.7800 35.9111 -0.0162
107.8000 35.9177 -0.0354
107.8200 35.9244 -0.0165
107.8400 35.9310 -0.0225
107.8600 35.9376 -0.0362
107.8800 35.9443 -0.0147
107.9000 35.9510 -0.0186
107.9200 35.9577 -0.0399
107.9400 35.9644 -0.0197
107.9600 35.9711 -0.0184
107.9800 35.9777 -0.0328
108.0000 35.9843 -0.0248
108.0200 35.9909 -0.0210
108.0400 35.9976 -0.0338
108.0600 36.0043 -0.0181
108.0800 36.0110 -0.0291
108.1000 36.0177 -0.0313
108.1200 36.0244 -0.0188
108.1400 36.0311 -0.0313
108.1600 36.0377 -0.0338
108.1800 36.0443 -0.0214
108.2000 36.0510 -0.0298
108.2200 36.0576 -0.0282
108.2400 36.0644 -0.0279
108.2600 36.0711 -0.0334
108.2800 36.0777 -0.0248
108.3000 36.0844 -0.0290
108.3200 36.0911 -0.0386
108.3400 36.0977 -0.0241
108.3600 36.1044 -0.0303
108.3800 36.1110 -0.0323
108.4000 36.1177 -0.0265
108.4200 36.1244 -0.0334
108.4400 36.1311 -0.0394
108.4600 36.1378 -0.0262
108.4800 36.1444 -0.0280
108.5000 36.1511 -0.0457
108.5200 36.1578 -0.0175
108.5400 36.1644 -0.0342
108.5600 36.1710 -0.0426
108.5800 36.1776 -0.0158
108.6000 36.1843 -0.0339
108.6200 36.1910 -0.0471
108.6400 36.1977 -0.0204
108.6600 36.2044 -0.0345
108.6800 36.2111 -0.0432
108.7000 36.2177 -0.0210
108.7200 36.2243 -0.0390
108.7400 36.2309 -0.0453
108.7600 36.2376 -0.0120
108.7800 36.2443 -0.0391
108.8000 36.2510 -0.0437
108.8200 36.2577 -0.0207
108.8400 36.2644 -0.0417
108.8600 36.2710 -0.0380
108.8800 36.2777 -0.0282
108.9000 36.2844 -0.0453
108.9200 36.2910 -0.0376
108.9400 36.2976 -0.0213
108.9600 36.3044 -0.0512
108.9800 36.3111 -0.0348
109.0000 36.3178 -0.0235
109.0200 36.3245 -0.0525
109.0400 36.3311 -0.0326
109.0600 36.3378 -0.0206
109.0800 36.3444 -0.0483
109.1000 36.3510 -0.0383
109.1200 36.3576 -0.0248
109.1400 36.3643 -0.0424
109.1600 36.3711 -0.0438
109.1800 36.3778 -0.0263
109.2000 36.3844 -0.0462
109.2200 36.3911 -0.0397
109.2400 36.3978 -0.0303
109.2600 36.4044 -0.0452
109.2800 36.4110 -0.0363
109.3000 36.4176 -0.0277
109.3200 36.4243 -0.0487
109.3400 36.4311 -0.0403
109.3600 36.4377 -0.0300
109.3800 36.4444 -0.0468
109.4000 36.4511 -0.0351
109.4200 36.4577 -0.0304
109.4400 36.4644 -0.0570
109.4600 36.4710 -0.0364
109.4800 36.4776 -0.0286
109.5000 36.4843 -0.0560
109.5200 36.4910 -0.0324
109.5400 36.4977 -0.0355
109.5600 36.5044 -0.0594
109.5800 36.5110 -0.0360
109.6000 36.5177 -0.0250
109.6200 36.5244 -0.0578
109.6400 36.5310 -0.0368
109.6600 36.5376 -0.0320
109.6800 36.5443 -0.0538
109.7000 36.5511 -0.0397
109.7200 36.5578 -0.0361
109.7400 36.5644 -0.0515
109.7600 36.5711 -0.0376
109.7800 36.5778 -0.0419
109.8000 36.5844 -0.0490
109.8200 36.5910 -0.0412
109.8400 36.5976 -0.0322
109.8600 36.6043 -0.0520
109.8800 36.6111 -0.0455
109.9000 36.6178 -0.0346
109.9200 36.6244 -0.0553
109.9400 36.6311 -0.0419
109.9600 36.6377 -0.0393
109.9800 36.6444 -0.0517
110.0000 36.6510 -0.0425
110.0200 36.6576 -0.0402
110.0400 36.6643 -0.0552
110.0600 36.6710 -0.0408
110.0800 36.6777 -0.0392
110.1000 36.6844 -0.0557
110.1200 36.6910 -0.0422
110.1400 36.6977 -0.0410
110.1600 36.7043 -0.0547
110.1800 36.7109 -0.0426
110.2000 36.7176 -0.0410
110.2200 36.7243 -0.0517
110.2400 36.7310 -0.0476
110.2600 36.7377 -0.0411
110.2800 36.7444 -0.0602
110.3000 36.7511 -0.0442
110.3200 36.7577 -0.0446
110.3400 36.7644 -0.0589
110.3600 36.7710 -0.0440
110.3800 36.7776 -0.0417
110.4000 36.7843 -0.0562
110.4200 36.7910 -0.0485
110.4400 36.7977 -0.0443
110.4600 36.8044 -0.0581
110.4800 36.8111 -0.0473
110.5000 36.8178 -0.0421
110.5200 36.8244 -0.0614
110.5400 36.8310 -0.0473
110.5600 36.8376 -0.0367
110.5800 36.8443 -0.0637
110.6000 36.8510 -0.0452
110.6200 36.8577 -0.0379
110.6400 36.8644 -0.0591
110.6600 36.8711 -0.0499
110.6800 36.8778 -0.0379
110.7000 36.8844 -0.0616
110.7200 36.8910 -0.0458
110.7400 36.8976 -0.0400
110.7600 36.9043 -0.0648
110.7800 36.9111 -0.0473
110.8000 36.9178 -0.0380
110.8200 36.9244 -0.0658
110.8400 36.9311 -0.0489
110.8600 36.9378 -0.0408
110.8800 36.9444 -0.0620
110.9000 36.9510 -0.0491
110.9200 36.9576 -0.0391
110.9400 36.9643 -0.0589
110.9600 36.9710 -0.0517
110.9800 36.9777 -0.0418
111.0000 36.9843 -0.0629
111.0200 36.9910 -0.0464
111.0400 36.9977 -0.0451
111.0600 37.0043 -0.0611
111.0800 37.0110 -0.0530
111.1000 37.0176 -0.0493
111.1200 37.0243 -0.0615
111.1400 37.0311 -0.0462
111.1600 37.0378 -0.0533
111.1800 37.0445 -0.0580
111.2000 37.0512 -0.0519
111.2200 37.0578 -0.0550
111.2400 37.0644 -0.0580
111.2600 37.0710 -0.0448
111.2800 37.0777 -0.0618
111.3000 37.0843 -0.0541
111.3200 37.0911 -0.0501
111.3400 37.0978 -0.0650
111.3600 37.1044 -0.0491
111.3800 37.1111 -0.0511
111.4000 37.1178 -0.0669
111.4200 37.1244 -0.0527
111.4400 37.1310 -0.0540
111.4600 37.1376 -0.0637
111.4800 37.1443 -0.0482
111.5000 37.1510 -0.0597
111.5200 37.1577 -0.0637
111.5400 37.1644 -0.0505
111.5600 37.1711 -0.0601
111.5800 37.1777 -0.0678
111.6000 37.1844 -0.0487
111.6200 37.1910 -0.0667
111.6400 37.1976 -0.0612
111.6600 37.2042 -0.0485
111.6800 37.2110 -0.0643
111.7000 37.2177 -0.0654
111.7200 37.2244 -0.0543
111.7400 37.2311 -0.0680
111.7600 37.2377 -0.0639
111.7800 37.2444 -0.0535
111.8000 37.2510 -0.0628
111.8200 37.2576 -0.0649
111.8400 37.2643 -0.0547
111.8600 37.2711 -0.0645
111.8800 37.2778 -0.0622
111.9000 37.2844 -0.0562
111.9200 37.2911 -0.0659
111.9400 37.2978 -0.0664
111.9600 37.3044 -0.0564
111.9800 37.3110 -0.0623
112.0000 37.3177 -0.0683
112.0200 37.3244 -0.0577
112.0400 37.3310 -0.0629
112.0600 37.3377 -0.0632
112.0800 37.3444 -0.0568
112.1000 37.3511 -0.0638
112.1200 37.3578 -0.0673
112.1400 37.3644 -0.0581
112.1600 37.3710 -0.0633
112.1800 37.3776 -0.0617
112.2000 37.3843 -0.0616
112.2200 37.3910 -0.0613
112.2400 37.3977 -0.0722
112.2600 37.4044 -0.0584
112.2800 37.4111 -0.0654
112.3000 37.4177 -0.0712
112.3200 37.4244 -0.0575
112.3400 37.4310 -0.0689
112.3600 37.4376 -0.0734
112.3800 37.4443 -0.0505
112.4000 37.4510 -0.0663
112.4200 37.4577 -0.0813
112.4400 37.4644 -0.0548
112.4600 37.4710 -0.0624
112.4800 37.4777 -0.0759
112.5000 37.4844 -0.0592
112.5200 37.4910 -0.0667
112.5400 37.4977 -0.0720
112.5600 37.5043 -0.0565
112.5800 37.5110 -0.0720
112.6000 37.5177 -0.0738
112.6200 37.5244 -0.0619
112.6400 37.5311 -0.0673
112.6600 37.5378 -0.0760
112.6800 37.5444 -0.0592
112.7000 37.5510 -0.0703
112.7200 37.5576 -0.0747
112.7400 37.5643 -0.0619
112.7600 37.5710 -0.0649
112.7800 37.5777 -0.0768
112.8000 37.5844 -0.0674
112.8200 37.5911 -0.0716
112.8400 37.5978 -0.0772
112.8600 37.6044 -0.0647
112.8800 37.6110 -0.0683
112.9000 37.6176 -0.0772
112.9200 37.6243 -0.0670
112.9400 37.6310 -0.0700
112.9600 37.6377 -0.0783
112.9800 37.6444 -0.0682
113.0000 37.6511 -0.0710
113.0200 37.6577 -0.0800
113.0400 37.6644 -0.0663
113.0600 37.6710 -0.0711
113.0800 37.6776 -0.0853
113.1000 37.6843 -0.0623
113.1200 37.6909 -0.0761
113.1400 37.6977 -0.0821
113.1600 37.7044 -0.0652
113.1800 37.7110 -0.0709
113.2000 37.7177 -0.0810
113.2200 37.7244 -0.0684
113.2400 37.7310 -0.0751
113.2600 37.7376 -0.0813
113.2800 37.7443 -0.0609
113.3000 37.7510 -0.0779
113.3200 37.7577 -0.0856
113.3400 37.7644 -0.0607
113.3600 37.7711 -0.0791
113.3800 37.7778 -0.0848
113.4000 37.7844 -0.0627
113.4200 37.7910 -0.0782
113.4400 37.7977 -0.0851
113.4600 37.8043 -0.0668
113.4800 37.8110 -0.0778
113.5000 37.8177 -0.0825
113.5200 37.8244 -0.0645
113.5400 37.8311 -0.0828
113.5600 37.8377 -0.0804
113.5800 37.8444 -0.0685
113.6000 37.8510 -0.0816
113.6200 37.8576 -0.0818
113.6400 37.8643 -0.0678
113.6600 37.8710 -0.0800
113.6800 37.8777 -0.0811
113.7000 37.8844 -0.0743
113.7200 37.8911 -0.0735
113.7400 37.8977 -0.0804
113.7600 37.9044 -0.0746
113.7800 37.9110 -0.0787
113.8000 37.9176 -0.0825
113.8200 37.9243 -0.0763
113.8400 37.9310 -0.0738
113.8600 37.9377 -0.0869
113.8800 37.9444 -0.0778
113.9000 37.9511 -0.0768
113.9200 37.9577 -0.0897
113.9400 37.9644 -0.0771
113.9600 37.9710 -0.0743
113.9800 37.9776 -0.0845
114.0000 37.9843 -0.0839
114.0200 37.9910 -0.0744
114.0400 37.9977 -0.0846
114.0600 38.0044 -0.0840
114.0800 38.0111 -0.0754
114.1000 38.0178 -0.0868
114.1200 38.0244 -0.0852
114.1400 38.0311 -0.0729
114.1600 38.0377 -0.0884
114.1800 38.0443 -0.0850
114.2000 38.0510 -0.0771
114.2200 38.0577 -0.0860
114.2400 38.0644 -0.0901
114.2600 38.0711 -0.0753
114.2800 38.0778 -0.0861
114.3000 38.0845 -0.0914
114.3200 38.0911 -0.0759
114.3400 38.0977 -0.0866
114.3600 38.1043 -0.0908
114.3800 38.1110 -0.0718
114.4000 38.1177 -0.0971
114.4200 38.1244 -0.0976
114.4400 38.1310 -0.0685
114.4600 38.1377 -0.0955
114.4800 38.1444 -0.0935
114.5000 38.1510 -0.0762
114.5200 38.1576 -0.0961
114.5400 38.1643 -0.0933
114.5600 38.1710 -0.0760
114.5800 38.1777 -0.1014
114.6000 38.1844 -0.0893
114.6200 38.1910 -0.0769
114.6400 38.1977 -0.1026
114.6600 38.2044 -0.0899
114.6800 38.2110 -0.0747
114.7000 38.2177 -0.1031
114.7200 38.2243 -0.0893
114.7400 38.2310 -0.0811
114.7600 38.2377 -0.0954
114.7800 38.2444 -0.0914
114.8000 38.2511 -0.0822
114.8200 38.2578 -0.0998
114.8400 38.2645 -0.0929
114.8600 38.2711 -0.0842
114.8800 38.2777 -0.0939
114.9000 38.2843 -0.0912
114.9200 38.2910 -0.0900
114.9400 38.2977 -0.0977
114.9600 38.3044 -0.0946
114.9800 38.3111 -0.0874
115.0000 38.3178 -0.0970
115.0200 38.3244 -0.0968
115.0400 38.3311 -0.0871
115.0600 38.3377 -0.0985
115.0800 38.3443 -0.0989
115.1000 38.3510 -0.0883
115.1200 38.3577 -0.0979
115.1400 38.3644 -0.0987
115.1600 38.3711 -0.0944
115.1800 38.3777 -0.0976
115.2000 38.3844 -0.1031
115.2200 38.3910 -0.0911
115.2400 38.3976 -0.0995
115.2600 38.4042 -0.1021
115.2800 38.4109 -0.0893
115.3000 38.4177 -0.0986
115.3200 38.4244 -0.1092
115.3400 38.4310 -0.0940
115.3600 38.4377 -0.1023
115.3800 38.4444 -0.1035
115.4000 38.4510 -0.0966
115.4200 38.4576 -0.1019
115.4400 38.4643 -0.1040
115.4600 38.4710 -0.0947
115.4800 38.4777 -0.1004
115.5000 38.4844 -0.1081
115.5200 38.4911 -0.0982
115.5400 38.4978 -0.1032
115.5600 38.5044 -0.1073
115.5800 38.5111 -0.0992
115.6000 38.5177 -0.1026
115.6200 38.5244 -0.1092
115.6400 38.5310 -0.0995
115.6600 38.5377 -0.1017
115.6800 38.5444 -0.1072
115.7000 38.5511 -0.1026
115.7200 38.5578 -0.1004
115.7400 38.5645 -0.1060
115.7600 38.5711 -0.1018
115.7800 38.5777 -0.1028
115.8000 38.5843 -0.1002
115.8200 38.5909 -0.1084
115.8400 38.5976 -0.0998
115.8600 38.6044 -0.1078
115.8800 38.6111 -0.1083
115.9000 38.6177 -0.0983
115.9200 38.6244 -0.1121
115.9400 38.6310 -0.1083
115.9600 38.6376 -0.0963
115.9800 38.6443 -0.1098
116.0000 38.6510 -0.1122
116.0200 38.6577 -0.0983
116.0400 38.6643 -0.1123
116.0600 38.6710 -0.1068
116.0800 38.6777 -0.0994
116.1000 38.6844 -0.1143
116.1200 38.6911 -0.1073
116.1400 38.6977 -0.0966
116.1600 38.7044 -0.1217
116.1800 38.7110 -0.0993
116.2000 38.7177 -0.0970
116.2200 38.7244 -0.1195
116.2400 38.7311 -0.1021
116.2600 38.7378 -0.0978
116.2800 38.7445 -0.1249
116.3000 38.7511 -0.1055
116.3200 38.7577 -0.1009
116.3400 38.7643 -0.1132
116.3600 38.7710 -0.1060
116.3800 38.7777 -0.1070
116.4000 38.7844 -0.1139
116.4200 38.7911 -0.1025
116.4400 38.7978 -0.1051
116.4600 38.8044 -0.1124
116.4800 38.8111 -0.1051
116.5000 38.8177 -0.1070
116.5200 38.8243 -0.1098
116.5400 38.8310 -0.1068
116.5600 38.8377 -0.1040
116.5800 38.8444 -0.1148
116.6000 38.8511 -0.1077
116.6200 38.8577 -0.1044
116.6400 38.8644 -0.1117
116.6600 38.8711 -0.1115
116.6800 38.8777 -0.1051
116.7000 38.8843 -0.1165
116.7200 38.8910 -0.1109
116.7400 38.8977 -0.1044
116.7600 38.9043 -0.1164
116.7800 38.9110 -0.1112
116.8000 38.9177 -0.1067
116.8200 38.9244 -0.1189
116.8400 38.9311 -0.1082
116.8600 38.9377 -0.1089
116.8800 38.9443 -0.1188
116.9000 38.9510 -0.1106
116.9200 38.9577 -0.1109
116.9400 38.9644 -0.1213
116.9600 38.9711 -0.1112
116.9800 38.9778 -0.1104
117.0000 38.9844 -0.1212
117.0200 38.9911 -0.1111
117.0400 38.9977 -0.1101
117.0600 39.0043 -0.1221
117.0800 39.0110 -0.1092
117.1000 39.0177 -0.1124
117.1200 39.0244 -0.1284
117.1400 39.0311 -0.1097
117.1600 39.0378 -0.1163
117.1800 39.0445 -0.1265
117.2000 39.0511 -0.1093
117.2200 39.0577 -0.1116
117.2400 39.0643 -0.1316
117.2600 39.0709 -0.1059
117.2800 39.0776 -0.1127
117.3000 39.0844 -0.1326
117.3200 39.0911 -0.1063
117.3400 39.0977 -0.1155
117.3600 39.1044 -0.1353
117.3800 39.1111 -0.1097
117.4000 39.1176 -0.1204
117.4200 39.1242 -0.1242
117.4400 39.1309 -0.1077
117.4600 39.1376 -0.1251
117.4800 39.1444 -0.1256
117.5000 39.1511 -0.1130
117.5200 39.1577 -0.1237
117.5400 39.1644 -0.1283
117.5600 39.1711 -0.1107
117.5800 39.1777 -0.1282
117.6000 39.1843 -0.1247
117.6200 39.1910 -0.1140
117.6400 39.1977 -0.1294
117.6600 39.2044 -0.1239
117.6800 39.2110 -0.1188
117.7000 39.2177 -0.1303
117.7200 39.2244 -0.1197
117.7400 39.2312 -0.1291
117.7600 39.2378 -0.1315
117.7800 39.2444 -0.1202
117.8000 39.2510 -0.1235
117.8200 39.2577 -0.1326
117.8400 39.2644 -0.1178
117.8600 39.2711 -0.1303
117.8800 39.2778 -0.1312
117.9000 39.2844 -0.1197
117.9200 39.2911 -0.1334
117.9400 39.2977 -0.1309
117.9600 39.3043 -0.1187
117.9800 39.3109 -0.1339
118.0000 39.3177 -0.1287
118.0200 39.3244 -0.1233
118.0400 39.3310 -0.1370
118.0600 39.3377 -0.1277
118.0800 39.3444 -0.1240
118.1000 39.3510 -0.1419
118.1200 39.3577 -0.1278
118.1400 39.3643 -0.1214
118.1600 39.3709 -0.1441
118.1800 39.3777 -0.1239
118.2000 39.3844 -0.1299
118.2200 39.3911 -0.1395
118.2400 39.3977 -0.1290
118.2600 39.4044 -0.1331
118.2800 39.4111 -0.1407
118.3000 39.4177 -0.1292
118.3200 39.4243 -0.1376
118.3400 39.4310 -0.1367
118.3600 39.4376 -0.1309
118.3800 39.4444 -0.1399
118.4000 39.4511 -0.1364
118.4200 39.4577 -0.1297
118.4400 39.4644 -0.1435
118.4600 39.4711 -0.1342
118.4800 39.4777 -0.1320
118.5000 39.4843 -0.1405
118.5200 39.4910 -0.1333
118.5400 39.4977 -0.1391
118.5600 39.5044 -0.1409
118.5800 39.5111 -0.1344
118.6000 39.5178 -0.1395
118.6200 39.5244 -0.1423
118.6400 39.5311 -0.1344
118.6600 39.5377 -0.1428
118.6800 39.5443 -0.1394
118.7000 39.5510 -0.1324
118.7200 39.5577 -0.1393
118.7400 39.5644 -0.1441
118.7600 39.5710 -0.1342
118.7800 39.5777 -0.1422
118.8000 39.5844 -0.1363
118.8200 39.5911 -0.1425
118.8400 39.5977 -0.1439
118.8600 39.6043 -0.1390
118.8800 39.6109 -0.1409
118.9000 39.6176 -0.1463
118.9200 39.6243 -0.1410
118.9400 39.6310 -0.1364
118.9600 39.6377 -0.1502
118.9800 39.6444 -0.1410
119.0000 39.6511 -0.1352
119.0200 39.6577 -0.1511
119.0400 39.6643 -0.1359
119.0600 39.6710 -0.1385
119.0800 39.6777 -0.1516
119.1000 39.6844 -0.1379
119.1200 39.6911 -0.1441
119.1400 39.6978 -0.1505
119.1600 39.7045 -0.1420
119.1800 39.7111 -0.1408
119.2000 39.7177 -0.1539
119.2200 39.7243 -0.1383
119.2400 39.7310 -0.1481
119.2600 39.7376 -0.1456
119.2800 39.7443 -0.1416
119.3000 39.7510 -0.1500
119.3200 39.7577 -0.1475
119.3400 39.7644 -0.1417
119.3600 39.7712 -0.1510
119.3800 39.7778 -0.1531
119.4000 39.7844 -0.1458
119.4200 39.7910 -0.1487
119.4400 39.7976 -0.1525
119.4600 39.8043 -0.1460
119.4800 39.8110 -0.1476
119.5000 39.8177 -0.1512
119.5200 39.8244 -0.1446
119.5400 39.8311 -0.1478
119.5600 39.8377 -0.1554
119.5800 39.8443 -0.1459
119.6000 39.8509 -0.1422
119.6200 39.8576 -0.1578
119.6400 39.8643 -0.1455
119.6600 39.8710 -0.1510
119.6800 39.8777 -0.1606
119.7000 39.8844 -0.1425
119.7200 39.8910 -0.1501
119.7400 39.8977 -0.1623
119.7600 39.9043 -0.1411
119.7800 39.9110 -0.1530
119.8000 39.9177 -0.1620
119.8200 39.9244 -0.1407
119.8400 39.9311 -0.1607
119.8600 39.9378 -0.1659
119.8800 39.9445 -0.1380
119.9000 39.9511 -0.1591
119.9200 39.9578 -0.1645
119.9400 39.9644 -0.1399
119.9600 39.9710 -0.1569
119.9800 39.9777 -0.1609
120.0000 39.9844 -0.1454
120.0200 39.9911 -0.1618
120.0400 39.9977 -0.1623
120.0470 40.0000 -0.1641
