Raw Data
Time Displacement Force
(s) (mm) (N)
0.0000 0.0000 0.1681
0.0200 0.0000 0.1819
0.0400 0.0010 0.2145
0.0600 0.0047 0.2067
0.0800 0.0102 0.1729
0.1000 0.0160 0.1794
0.1200 0.0221 0.1957
0.1400 0.0289 0.1843
0.1600 0.0363 0.1790
0.1800 0.0437 0.1805
0.2000 0.0509 0.1769
0.2200 0.0577 0.1741
0.2400 0.0643 0.1821
0.2600 0.0709 0.1857
0.2800 0.0775 0.1781
0.3000 0.0843 0.1906
0.3200 0.0911 0.1824
0.3400 0.0978 0.1759
0.3600 0.1044 0.1841
0.3800 0.1111 0.1879
0.4000 0.1178 0.1794
0.4200 0.1244 0.1879
0.4400 0.1310 0.1880
0.4600 0.1377 0.1805
0.4800 0.1444 0.1860
0.5000 0.1511 0.1900
0.5200 0.1578 0.1803
0.5400 0.1645 0.1915
0.5600 0.1712 0.1875
0.5800 0.1778 0.1803
0.6000 0.1844 0.1908
0.6200 0.1910 0.1895
0.6400 0.1977 0.1832
0.6600 0.2044 0.1894
0.6800 0.2111 0.1894
0.7000 0.2178 0.1822
0.7200 0.2245 0.1920
0.7400 0.2311 0.1844
0.7600 0.2378 0.1834
0.7800 0.2444 0.1932
0.8000 0.2510 0.1852
0.8200 0.2576 0.1861
0.8400 0.2644 0.1925
0.8600 0.2711 0.1808
0.8800 0.2778 0.1855
0.9000 0.2844 0.1909
0.9200 0.2911 0.1899
0.9400 0.2978 0.1839
0.9600 0.3044 0.1930
0.9800 0.3110 0.1864
1.0000 0.3177 0.1868
1.0200 0.3244 0.1905
1.0400 0.3311 0.1882
1.0600 0.3377 0.1840
1.0800 0.3444 0.1886
1.1000 0.3511 0.1873
1.1200 0.3578 0.1824
1.1400 0.3644 0.1903
1.1600 0.3710 0.1855
1.1800 0.3776 0.1815
1.2000 0.3844 0.1895
1.2200 0.3911 0.1849
1.2400 0.3978 0.1826
1.2600 0.4045 0.1927
1.2800 0.4112 0.1815
1.3000 0.4178 0.1840
1.3200 0.4244 0.1863
1.3400 0.4311 0.1845
1.3600 0.4377 0.1862
1.3800 0.4444 0.1895
1.4000 0.4511 0.1792
1.4200 0.4578 0.1848
1.4400 0.4645 0.1863
1.4600 0.4711 0.1794
1.4800 0.4778 0.1843
1.5000 0.4845 0.1843
1.5200 0.4911 0.1755
1.5400 0.4977 0.1919
1.5600 0.5044 0.1818
1.5800 0.5111 0.1778
1.6000 0.5178 0.1847
1.6200 0.5244 0.1809
1.6400 0.5311 0.1817
1.6600 0.5378 0.1860
1.6800 0.5444 0.1722
1.7000 0.5510 0.1844
1.7200 0.5576 0.1878
1.7400 0.5643 0.1720
1.7600 0.5710 0.1805
1.7800 0.5777 0.1864
1.8000 0.5844 0.1743
1.8200 0.5911 0.1765
1.8400 0.5978 0.1819
1.8600 0.6044 0.1766
1.8800 0.6110 0.1817
1.9000 0.6177 0.1768
1.9200 0.6244 0.1790
1.9400 0.6311 0.1764
1.9600 0.6378 0.1747
1.9800 0.6445 0.1779
2.0000 0.6512 0.1763
2.0200 0.6579 0.1731
2.0400 0.6645 0.1777
2.0600 0.6711 0.1748
2.0800 0.6777 0.1739
2.1000 0.6844 0.1780
2.1200 0.6911 0.1698
2.1400 0.6978 0.1709
2.1600 0.7045 0.1766
2.1800 0.7111 0.1725
2.2000 0.7178 0.1770
2.2200 0.7244 0.1738
2.2400 0.7310 0.1739
2.2600 0.7377 0.1769
2.2800 0.7444 0.1720
2.3000 0.7511 0.1663
2.3200 0.7578 0.1771
2.3400 0.7644 0.1656
2.3600 0.7711 0.1701
2.3800 0.7778 0.1768
2.4000 0.7844 0.1651
2.4200 0.7910 0.1772
2.4400 0.7977 0.1722
2.4600 0.8044 0.1643
2.4800 0.8111 0.1723
2.5000 0.8177 0.1748
2.5200 0.8244 0.1639
2.5400 0.8311 0.1768
2.5600 0.8378 0.1671
2.5800 0.8444 0.1665
2.6000 0.8511 0.1728
2.6200 0.8577 0.1694
2.6400 0.8644 0.1706
2.6600 0.8711 0.1731
2.6800 0.8778 0.1632
2.7000 0.8845 0.1742
2.7200 0.8912 0.1698
2.7400 0.8978 0.1663
2.7600 0.9045 0.1736
2.7800 0.9110 0.1691
2.8000 0.9177 0.1670
2.8200 0.9244 0.1764
2.8400 0.9311 0.1667
2.8600 0.9378 0.1619
2.8800 0.9445 0.1797
2.9000 0.9512 0.1608
2.9200 0.9578 0.1665
2.9400 0.9645 0.1727
2.9600 0.9711 0.1652
2.9800 0.9777 0.1736
3.0000 0.9844 0.1708
3.0200 0.9911 0.1643
3.0400 0.9978 0.1661
3.0600 1.0044 0.1696
3.0800 1.0111 0.1688
3.1000 1.0178 0.1628
3.1200 1.0244 0.1677
3.1400 1.0310 0.1662
3.1600 1.0376 0.1656
3.1800 1.0443 0.1653
3.2000 1.0510 0.1683
3.2200 1.0577 0.1628
3.2400 1.0644 0.1647
3.2600 1.0711 0.1660
3.2800 1.0778 0.1616
3.3000 1.0844 0.1629
3.3200 1.0910 0.1683
3.3400 1.0977 0.1628
3.3600 1.1044 0.1680
3.3800 1.1111 0.1590
3.4000 1.1178 0.1577
3.4200 1.1245 0.1694
3.4400 1.1312 0.1610
3.4600 1.1379 0.1597
3.4800 1.1445 0.1656
3.5000 1.1511 0.1573
3.5200 1.1577 0.1589
3.5400 1.1644 0.1655
3.5600 1.1711 0.1562
3.5800 1.1778 0.1567
3.6000 1.1845 0.1653
3.6200 1.1911 0.1585
3.6400 1.1978 0.1587
3.6600 1.2045 0.1646
3.6800 1.2111 0.1525
3.7000 1.2177 0.1646
3.7200 1.2243 0.1617
3.7400 1.2310 0.1524
3.7600 1.2377 0.1619
3.7800 1.2444 0.1664
3.8000 1.2511 0.1493
3.8200 1.2578 0.1596
3.8400 1.2645 0.1636
3.8600 1.2710 0.1481
3.8800 1.2776 0.1600
3.9000 1.2843 0.1676
3.9200 1.2910 0.1467
3.9400 1.2978 0.1609
3.9600 1.3044 0.1627
3.9800 1.3111 0.1532
4.0000 1.3178 0.1582
4.0200 1.3244 0.1602
4.0400 1.3311 0.1524
4.0600 1.3377 0.1577
4.0800 1.3444 0.1602
4.1000 1.3511 0.1497
4.1200 1.3578 0.1600
4.1400 1.3645 0.1582
4.1600 1.3712 0.1533
4.1800 1.3779 0.1574
4.2000 1.3845 0.1564
4.2200 1.3911 0.1537
4.2400 1.3977 0.1566
4.2600 1.4044 0.1601
4.2800 1.4111 0.1514
4.3000 1.4178 0.1450
4.3200 1.4245 0.1614
4.3400 1.4312 0.1492
4.3600 1.4378 0.1513
4.3800 1.4444 0.1595
4.4000 1.4510 0.1524
4.4200 1.4577 0.1505
4.4400 1.4643 0.1617
4.4600 1.4711 0.1533
4.4800 1.4777 0.1499
4.5000 1.4844 0.1564
4.5200 1.4911 0.1545
4.5400 1.4977 0.1546
4.5600 1.5044 0.1582
4.5800 1.5110 0.1546
4.6000 1.5177 0.1494
4.6200 1.5243 0.1530
4.6400 1.5310 0.1504
4.6600 1.5378 0.1488
4.6800 1.5445 0.1467
4.7000 1.5511 0.1567
4.7200 1.5578 0.1494
4.7400 1.5645 0.1473
4.7600 1.5711 0.1494
4.7800 1.5777 0.1563
4.8000 1.5844 0.1519
4.8200 1.5911 0.1487
4.8400 1.5978 0.1497
4.8600 1.6045 0.1491
4.8800 1.6111 0.1513
4.9000 1.6178 0.1531
4.9200 1.6245 0.1442
4.9400 1.6311 0.1546
4.9600 1.6377 0.1499
4.9800 1.6444 0.1474
5.0000 1.6511 0.1523
5.0200 1.6578 0.1512
5.0400 1.6645 0.1440
5.0600 1.6711 0.1504
5.0800 1.6778 0.1501
5.1000 1.6845 0.1447
5.1200 1.6911 0.1512
5.1400 1.6977 0.1466
5.1600 1.7044 0.1436
5.1800 1.7111 0.1493
5.2000 1.7178 0.1493
5.2200 1.7244 0.1378
5.2400 1.7311 0.1513
5.2600 1.7378 0.1473
5.2800 1.7445 0.1418
5.3000 1.7511 0.1482
5.3200 1.7577 0.1481
5.3400 1.7643 0.1447
5.3600 1.7710 0.1520
5.3800 1.7778 0.1422
5.4000 1.7845 0.1413
5.4200 1.7911 0.1523
5.4400 1.7978 0.1426
5.4600 1.8044 0.1422
5.4800 1.8111 0.1528
5.5000 1.8177 0.1433
5.5200 1.8244 0.1453
5.5400 1.8311 0.1456
5.5600 1.8378 0.1462
5.5800 1.8444 0.1460
5.6000 1.8511 0.1495
5.6200 1.8578 0.1457
5.6400 1.8645 0.1458
5.6600 1.8711 0.1488
5.6800 1.8777 0.1429
5.7000 1.8844 0.1480
5.7200 1.8910 0.1453
5.7400 1.8978 0.1447
5.7600 1.9045 0.1452
5.7800 1.9111 0.1459
5.8000 1.9178 0.1453
5.8200 1.9245 0.1423
5.8400 1.9311 0.1383
5.8600 1.9377 0.1493
5.8800 1.9443 0.1409
5.9000 1.9511 0.1444
5.9200 1.9578 0.1425
5.9400 1.9645 0.1405
5.9600 1.9711 0.1411
5.9800 1.9778 0.1480
6.0000 1.9844 0.1370
6.0200 1.9911 0.1453
6.0400 1.9977 0.1470
6.0600 2.0043 0.1406
6.0800 2.0110 0.1436
6.1000 2.0177 0.1480
6.1200 2.0244 0.1352
6.1400 2.0311 0.1487
6.1600 2.0378 0.1448
6.1800 2.0444 0.1335
6.2000 2.0511 0.1498
6.2200 2.0577 0.1429
6.2400 2.0644 0.1332
6.2600 2.0711 0.1476
6.2800 2.0778 0.1404
6.3000 2.0845 0.1319
6.3200 2.0912 0.1456
6.3400 2.0979 0.1361
6.3600 2.1045 0.1347
6.3800 2.1111 0.1440
6.4000 2.1177 0.1411
6.4200 2.1244 0.1327
6.4400 2.1311 0.1439
6.4600 2.1378 0.1377
6.4800 2.1445 0.1311
6.5000 2.1512 0.1417
6.5200 2.1578 0.1424
6.5400 2.1645 0.1293
6.5600 2.1711 0.1382
6.5800 2.1777 0.1387
6.6000 2.1844 0.1368
6.6200 2.1910 0.1330
6.6400 2.1977 0.1378
6.6600 2.2044 0.1326
6.6800 2.2111 0.1316
6.7000 2.2178 0.1400
6.7200 2.2245 0.1267
6.7400 2.2311 0.1346
6.7600 2.2377 0.1418
6.7800 2.2443 0.1276
6.8000 2.2510 0.1347
6.8200 2.2577 0.1391
6.8400 2.2644 0.1258
6.8600 2.2711 0.1357
6.8800 2.2778 0.1345
6.9000 2.2845 0.1244
6.9200 2.2911 0.1385
6.9400 2.2977 0.1336
6.9600 2.3044 0.1245
6.9800 2.3110 0.1486
7.0000 2.3178 0.1325
7.0200 2.3245 0.1245
7.0400 2.3311 0.1406
7.0600 2.3378 0.1347
7.0800 2.3445 0.1265
7.1000 2.3511 0.1413
7.1200 2.3578 0.1292
7.1400 2.3644 0.1323
7.1600 2.3711 0.1388
7.1800 2.3778 0.1266
7.2000 2.3845 0.1303
7.2200 2.3911 0.1366
7.2400 2.3978 0.1286
7.2600 2.4045 0.1293
7.2800 2.4112 0.1350
7.3000 2.4178 0.1300
7.3200 2.4244 0.1285
7.3400 2.4311 0.1322
7.3600 2.4377 0.1313
7.3800 2.4444 0.1288
7.4000 2.4511 0.1336
7.4200 2.4578 0.1280
7.4400 2.4645 0.1254
7.4600 2.4711 0.1295
7.4800 2.4777 0.1348
7.5000 2.4843 0.1275
7.5200 2.4910 0.1334
7.5400 2.4977 0.1303
7.5600 2.5044 0.1235
7.5800 2.5111 0.1316
7.6000 2.5177 0.1368
7.6200 2.5244 0.1214
7.6400 2.5311 0.1283
7.6600 2.5377 0.1312
7.6800 2.5443 0.1262
7.7000 2.5510 0.1341
7.7200 2.5578 0.1320
7.7400 2.5645 0.1218
7.7600 2.5712 0.1330
7.7800 2.5778 0.1358
7.8000 2.5845 0.1201
7.8200 2.5912 0.1343
7.8400 2.5978 0.1317
7.8600 2.6044 0.1188
7.8800 2.6110 0.1366
7.9000 2.6178 0.1322
7.9200 2.6245 0.1199
7.9400 2.6312 0.1339
7.9600 2.6378 0.1321
7.9800 2.6445 0.1202
8.0000 2.6511 0.1318
8.0200 2.6577 0.1361
8.0400 2.6643 0.1185
8.0600 2.6710 0.1356
8.0800 2.6777 0.1312
8.1000 2.6844 0.1249
8.1200 2.6911 0.1333
8.1400 2.6978 0.1353
8.1600 2.7045 0.1241
8.1800 2.7111 0.1325
8.2000 2.7177 0.1275
8.2200 2.7244 0.1263
8.2400 2.7310 0.1336
8.2600 2.7377 0.1297
8.2800 2.7444 0.1227
8.3000 2.7511 0.1317
8.3200 2.7577 0.1288
8.3400 2.7644 0.1231
8.3600 2.7711 0.1299
8.3800 2.7777 0.1284
8.4000 2.7843 0.1268
8.4200 2.7910 0.1265
8.4400 2.7977 0.1195
8.4600 2.8045 0.1270
8.4800 2.8111 0.1300
8.5000 2.8178 0.1217
8.5200 2.8245 0.1257
8.5400 2.8311 0.1259
8.5600 2.8377 0.1268
8.5800 2.8444 0.1226
8.6000 2.8511 0.1276
8.6200 2.8578 0.1209
8.6400 2.8645 0.1246
8.6600 2.8712 0.1215
8.6800 2.8778 0.1243
8.7000 2.8845 0.1215
8.7200 2.8911 0.1235
8.7400 2.8977 0.1237
8.7600 2.9044 0.1189
8.7800 2.9110 0.1220
8.8000 2.9177 0.1223
8.8200 2.9244 0.1181
8.8400 2.9311 0.1243
8.8600 2.9378 0.1209
8.8800 2.9445 0.1190
8.9000 2.9511 0.1208
8.9200 2.9577 0.1185
8.9400 2.9643 0.1223
8.9600 2.9710 0.1240
8.9800 2.9777 0.1157
9.0000 2.9844 0.1231
9.0200 2.9911 0.1219
9.0400 2.9978 0.1151
9.0600 3.0045 0.1274
9.0800 3.0111 0.1114
9.1000 3.0177 0.1130
9.1200 3.0244 0.1290
9.1400 3.0310 0.1156
9.1600 3.0377 0.1095
9.1800 3.0444 0.1267
9.2000 3.0511 0.1146
9.2200 3.0578 0.1156
9.2400 3.0645 0.1260
9.2600 3.0711 0.1104
9.2800 3.0778 0.1160
9.3000 3.0844 0.1284
9.3200 3.0910 0.1073
9.3400 3.0977 0.1200
9.3600 3.1044 0.1254
9.3800 3.1111 0.1031
9.4000 3.1178 0.1155
9.4200 3.1245 0.1260
9.4400 3.1312 0.1071
9.4600 3.1378 0.1190
9.4800 3.1444 0.1297
9.5000 3.1510 0.1031
9.5200 3.1578 0.1188
9.5400 3.1645 0.1282
9.5600 3.1712 0.0986
9.5800 3.1778 0.1220
9.6000 3.1845 0.1291
9.6200 3.1911 0.0912
9.6400 3.1977 0.1226
9.6600 3.2043 0.1275
9.6800 3.2110 0.0969
9.7000 3.2177 0.1206
9.7200 3.2244 0.1249
9.7400 3.2311 0.0938
9.7600 3.2377 0.1258
9.7800 3.2444 0.1216
9.8000 3.2511 0.0935
9.8200 3.2577 0.1240
9.8400 3.2644 0.1240
9.8600 3.2710 0.0924
9.8800 3.2777 0.1275
9.9000 3.2844 0.1185
9.9200 3.2912 0.0983
9.9400 3.2979 0.1239
9.9600 3.3046 0.1177
9.9800 3.3112 0.0994
10.0000 3.3178 0.1218
10.0200 3.3244 0.1164
10.0400 3.3310 0.1022
10.0600 3.3378 0.1221
10.0800 3.3445 0.1139
10.1000 3.3512 0.1041
10.1200 3.3578 0.1159
10.1400 3.3645 0.1160
10.1600 3.3711 0.1050
10.1800 3.3778 0.1151
10.2000 3.3844 0.1169
10.2200 3.3910 0.1095
10.2400 3.3977 0.1141
10.2600 3.4044 0.1156
10.2800 3.4111 0.1109
10.3000 3.4178 0.1137
10.3200 3.4245 0.1120
10.3400 3.4311 0.1099
10.3600 3.4377 0.1107
10.3800 3.4443 0.1177
10.4000 3.4510 0.1114
10.4200 3.4577 0.1106
10.4400 3.4644 0.1111
10.4600 3.4711 0.1132
10.4800 3.4778 0.1091
10.5000 3.4845 0.1139
10.5200 3.4911 0.1097
10.5400 3.4977 0.1036
10.5600 3.5044 0.1170
10.5800 3.5110 0.1142
10.6000 3.5177 0.1034
10.6200 3.5244 0.1165
10.6400 3.5311 0.1105
10.6600 3.5378 0.0996
10.6800 3.5445 0.1211
10.7000 3.5512 0.1058
10.7200 3.5578 0.1026
10.7400 3.5644 0.1213
10.7600 3.5711 0.1063
10.7800 3.5778 0.1013
10.8000 3.5844 0.1215
10.8200 3.5911 0.1040
10.8400 3.5978 0.1059
10.8600 3.6045 0.1181
10.8800 3.6112 0.1005
10.9000 3.6178 0.1071
10.9200 3.6244 0.1222
10.9400 3.6310 0.1013
10.9600 3.6377 0.1080
10.9800 3.6444 0.1161
11.0000 3.6511 0.1000
11.0200 3.6578 0.1093
11.0400 3.6645 0.1151
11.0600 3.6711 0.0994
11.0800 3.6777 0.1118
11.1000 3.6843 0.1124
11.1200 3.6910 0.1008
11.1400 3.6977 0.1090
11.1600 3.7044 0.1080
11.1800 3.7111 0.1034
11.2000 3.7178 0.1077
11.2200 3.7244 0.1090
11.2400 3.7311 0.1013
11.2600 3.7378 0.1090
11.2800 3.7444 0.1092
11.3000 3.7510 0.1060
11.3200 3.7577 0.1101
11.3400 3.7644 0.1095
11.3600 3.7711 0.0974
11.3800 3.7778 0.1102
11.4000 3.7845 0.1071
11.4200 3.7912 0.1040
11.4400 3.7978 0.0988
11.4600 3.8044 0.1154
11.4800 3.8110 0.1015
11.5000 3.8177 0.1027
11.5200 3.8244 0.1161
11.5400 3.8312 0.0951
11.5600 3.8378 0.1051
11.5800 3.8445 0.1122
11.6000 3.8512 0.0945
11.6200 3.8578 0.1073
11.6400 3.8644 0.1164
11.6600 3.8710 0.0958
11.6800 3.8777 0.1025
11.7000 3.8844 0.1157
11.7200 3.8911 0.0945
11.7400 3.8978 0.1037
11.7600 3.9044 0.1101
11.7800 3.9111 0.0864
11.8000 3.9178 0.1057
11.8200 3.9244 0.1100
11.8400 3.9310 0.0921
11.8600 3.9376 0.1051
11.8800 3.9444 0.1093
11.9000 3.9511 0.0883
11.9200 3.9578 0.1051
11.9400 3.9645 0.1038
11.9600 3.9712 0.0928
11.9800 3.9778 0.1042
12.0000 3.9844 0.1016
12.0200 3.9910 0.0930
12.0400 3.9977 0.1066
12.0600 4.0044 0.0968
12.0800 4.0112 0.0938
12.1000 4.0178 0.0999
12.1200 4.0245 0.0994
12.1400 4.0312 0.0958
12.1600 4.0378 0.0996
12.1800 4.0444 0.0966
12.2000 4.0510 0.0957
12.2200 4.0577 0.0968
12.2400 4.0644 0.0935
12.2600 4.0711 0.0979
12.2800 4.0778 0.0963
12.3000 4.0845 0.0945
12.3200 4.0911 0.0964
12.3400 4.0978 0.0945
12.3600 4.1044 0.0972
12.3800 4.1110 0.0988
12.4000 4.1177 0.0897
12.4200 4.1244 0.0988
12.4400 4.1311 0.0965
12.4600 4.1378 0.0887
12.4800 4.1445 0.1000
12.5000 4.1511 0.0990
12.5200 4.1578 0.0853
12.5400 4.1644 0.1031
12.5600 4.1710 0.0998
12.5800 4.1777 0.0857
12.6000 4.1844 0.0942
12.6200 4.1911 0.0981
12.6400 4.1978 0.0891
12.6600 4.2044 0.0989
12.6800 4.2111 0.0941
12.7000 4.2177 0.0854
12.7200 4.2244 0.0996
12.7400 4.2310 0.0939
12.7600 4.2377 0.0943
12.7800 4.2444 0.1010
12.8000 4.2511 0.0902
12.8200 4.2578 0.0947
12.8400 4.2645 0.0974
12.8600 4.2712 0.0918
12.8800 4.2778 0.0964
12.9000 4.2844 0.0913
12.9200 4.2910 0.0895
12.9400 4.2977 0.0974
12.9600 4.3044 0.0943
12.9800 4.3111 0.0913
13.0000 4.3178 0.0989
13.0200 4.3245 0.0887
13.0400 4.3312 0.0946
13.0600 4.3378 0.0955
13.0800 4.3444 0.0915
13.1000 4.3510 0.0958
13.1200 4.3577 0.0967
13.1400 4.3644 0.0909
13.1600 4.3711 0.0961
13.1800 4.3778 0.0936
13.2000 4.3844 0.0909
13.2200 4.3911 0.0949
13.2400 4.3978 0.0906
13.2600 4.4044 0.0885
13.2800 4.4110 0.1009
13.3000 4.4177 0.0919
13.3200 4.4244 0.0882
13.3400 4.4311 0.1008
13.3600 4.4377 0.0899
13.3800 4.4444 0.0908
13.4000 4.4511 0.0977
13.4200 4.4578 0.0931
13.4400 4.4644 0.0880
13.4600 4.4710 0.0981
13.4800 4.4777 0.0948
13.5000 4.4844 0.0905
13.5200 4.4911 0.0948
13.5400 4.4978 0.0952
13.5600 4.5045 0.0838
13.5800 4.5112 0.1009
13.6000 4.5178 0.0982
13.6200 4.5244 0.0879
13.6400 4.5310 0.0996
13.6600 4.5377 0.0948
13.6800 4.5444 0.0864
13.7000 4.5511 0.1016
13.7200 4.5578 0.0971
13.7400 4.5645 0.0813
13.7600 4.5711 0.1017
13.7800 4.5778 0.0981
13.8000 4.5844 0.0864
13.8200 4.5910 0.1050
13.8400 4.5977 0.0941
13.8600 4.6044 0.0856
13.8800 4.6111 0.1039
13.9000 4.6178 0.0926
13.9200 4.6244 0.0895
13.9400 4.6311 0.1055
13.9600 4.6378 0.0917
13.9800 4.6444 0.0853
14.0000 4.6510 0.1074
14.0200 4.6576 0.0930
14.0400 4.6643 0.0888
14.0600 4.6710 0.1030
14.0800 4.6777 0.0929
14.1000 4.6844 0.0881
14.1200 4.6911 0.1046
14.1400 4.6977 0.0898
14.1600 4.7044 0.0926
14.1800 4.7110 0.1035
14.2000 4.7177 0.0928
14.2200 4.7244 0.0892
14.2400 4.7311 0.1034
14.2600 4.7378 0.0935
14.2800 4.7445 0.0884
14.3000 4.7512 0.0999
14.3200 4.7578 0.0932
14.3400 4.7645 0.0888
14.3600 4.7711 0.1006
14.3800 4.7778 0.0887
14.4000 4.7845 0.0901
14.4200 4.7911 0.1018
14.4400 4.7978 0.0908
14.4600 4.8045 0.0913
14.4800 4.8112 0.0985
14.5000 4.8178 0.0883
14.5200 4.8244 0.0897
14.5400 4.8310 0.0989
14.5600 4.8377 0.0862
14.5800 4.8444 0.0947
14.6000 4.8511 0.0958
14.6200 4.8578 0.0877
14.6400 4.8644 0.0922
14.6600 4.8711 0.0938
14.6800 4.8778 0.0875
14.7000 4.8844 0.0951
14.7200 4.8910 0.0925
14.7400 4.8977 0.0907
14.7600 4.9044 0.0944
14.7800 4.9111 0.0906
14.8000 4.9178 0.0881
14.8200 4.9245 0.0945
14.8400 4.9311 0.0880
14.8600 4.9378 0.0891
14.8800 4.9444 0.0916
14.9000 4.9511 0.0892
14.9200 4.9577 0.0928
14.9400 4.9644 0.0872
14.9600 4.9711 0.0888
14.9800 4.9778 0.0896
15.0000 4.9845 0.0892
15.0200 4.9912 0.0848
15.0400 4.9978 0.0892
15.0600 5.0045 0.0906
15.0800 5.0111 0.0858
15.1000 5.0177 0.0880
15.1200 5.0244 0.0960
15.1400 5.0311 0.0850
15.1600 5.0378 0.0883
15.1800 5.0445 0.0877
15.2000 5.0512 0.0901
15.2200 5.0578 0.0863
15.2400 5.0644 0.0914
15.2600 5.0710 0.0859
15.2800 5.0777 0.0897
15.3000 5.0844 0.0923
15.3200 5.0911 0.0879
15.3400 5.0978 0.0856
15.3600 5.1044 0.0952
15.3800 5.1111 0.0859
15.4000 5.1178 0.0824
15.4200 5.1244 0.0890
15.4400 5.1310 0.0902
15.4600 5.1377 0.0884
15.4800 5.1443 0.0890
15.5000 5.1510 0.0859
15.5200 5.1577 0.0880
15.5400 5.1644 0.0960
15.5600 5.1711 0.0848
15.5800 5.1778 0.0882
15.6000 5.1844 0.0916
15.6200 5.1910 0.0824
15.6400 5.1977 0.0893
15.6600 5.2044 0.0975
15.6800 5.2111 0.0829
15.7000 5.2178 0.0894
15.7200 5.2245 0.0879
15.7400 5.2312 0.0862
15.7600 5.2378 0.0889
15.7800 5.2444 0.0919
15.8000 5.2511 0.0802
15.8200 5.2577 0.0910
15.8400 5.2644 0.0900
15.8600 5.2711 0.0804
15.8800 5.2778 0.0875
15.9000 5.2845 0.0881
15.9200 5.2911 0.0844
15.9400 5.2978 0.0878
15.9600 5.3045 0.0858
15.9800 5.3111 0.0847
16.0000 5.3177 0.0913
16.0200 5.3244 0.0857
16.0400 5.3311 0.0845
16.0600 5.3378 0.0870
16.0800 5.3445 0.0820
16.1000 5.3511 0.0807
16.1200 5.3578 0.0886
16.1400 5.3644 0.0791
16.1600 5.3710 0.0846
16.1800 5.3776 0.0870
16.2000 5.3843 0.0819
16.2200 5.3911 0.0841
16.2400 5.3978 0.0833
16.2600 5.4044 0.0782
16.2800 5.4111 0.0880
16.3000 5.4178 0.0797
16.3200 5.4244 0.0829
16.3400 5.4310 0.0846
16.3600 5.4377 0.0809
16.3800 5.4444 0.0839
16.4000 5.4511 0.0866
16.4200 5.4578 0.0757
16.4400 5.4645 0.0872
16.4600 5.4712 0.0837
16.4800 5.4779 0.0770
16.5000 5.4845 0.0856
16.5200 5.4911 0.0801
16.5400 5.4977 0.0829
16.5600 5.5044 0.0827
16.5800 5.5111 0.0773
16.6000 5.5178 0.0833
16.6200 5.5245 0.0818
16.6400 5.5312 0.0768
16.6600 5.5378 0.0816
16.6800 5.5444 0.0811
16.7000 5.5510 0.0820
16.7200 5.5577 0.0820
16.7400 5.5644 0.0824
16.7600 5.5711 0.0801
16.7800 5.5778 0.0794
16.8000 5.5845 0.0775
16.8200 5.5911 0.0850
16.8400 5.5978 0.0782
16.8600 5.6044 0.0819
16.8800 5.6111 0.0784
16.9000 5.6177 0.0791
16.9200 5.6244 0.0844
16.9400 5.6311 0.0826
16.9600 5.6378 0.0758
16.9800 5.6444 0.0835
17.0000 5.6511 0.0803
17.0200 5.6578 0.0789
17.0400 5.6645 0.0815
17.0600 5.6711 0.0818
17.0800 5.6777 0.0757
17.1000 5.6844 0.0833
17.1200 5.6911 0.0771
17.1400 5.6978 0.0735
17.1600 5.7045 0.0866
17.1800 5.7111 0.0788
17.2000 5.7178 0.0741
17.2200 5.7245 0.0848
17.2400 5.7311 0.0757
17.2600 5.7377 0.0761
17.2800 5.7444 0.0884
17.3000 5.7511 0.0696
17.3200 5.7578 0.0801
17.3400 5.7645 0.0851
17.3600 5.7712 0.0676
17.3800 5.7778 0.0763
17.4000 5.7845 0.0867
17.4200 5.7911 0.0670
17.4400 5.7977 0.0822
17.4600 5.8044 0.0822
17.4800 5.8111 0.0692
17.5000 5.8177 0.0818
17.5200 5.8244 0.0837
17.5400 5.8311 0.0678
17.5600 5.8378 0.0809
17.5800 5.8444 0.0801
17.6000 5.8511 0.0692
17.6200 5.8577 0.0836
17.6400 5.8643 0.0798
17.6600 5.8710 0.0746
17.6800 5.8777 0.0767
17.7000 5.8844 0.0790
17.7200 5.8911 0.0732
17.7400 5.8978 0.0776
17.7600 5.9045 0.0733
17.7800 5.9111 0.0744
17.8000 5.9177 0.0762
17.8200 5.9244 0.0744
17.8400 5.9311 0.0713
17.8600 5.9378 0.0808
17.8800 5.9445 0.0706
17.9000 5.9512 0.0707
17.9200 5.9578 0.0744
17.9400 5.9645 0.0783
17.9600 5.9711 0.0727
17.9800 5.9777 0.0745
18.0000 5.9844 0.0750
18.0200 5.9911 0.0724
18.0400 5.9978 0.0710
18.0600 6.0045 0.0749
18.0800 6.0112 0.0703
18.1000 6.0178 0.0704
18.1200 6.0245 0.0714
18.1400 6.0311 0.0743
18.1600 6.0377 0.0690
18.1800 6.0443 0.0765
18.2000 6.0510 0.0737
18.2200 6.0577 0.0650
18.2400 6.0644 0.0704
18.2600 6.0711 0.0730
18.2800 6.0778 0.0675
18.3000 6.0845 0.0699
18.3200 6.0911 0.0700
18.3400 6.0976 0.0666
18.3600 6.1043 0.0778
18.3800 6.1110 0.0700
18.4000 6.1178 0.0640
18.4200 6.1244 0.0677
18.4400 6.1311 0.0719
18.4600 6.1378 0.0633
18.4800 6.1444 0.0770
18.5000 6.1511 0.0647
18.5200 6.1577 0.0677
18.5400 6.1644 0.0736
18.5600 6.1711 0.0661
18.5800 6.1778 0.0672
18.6000 6.1845 0.0751
18.6200 6.1912 0.0666
18.6400 6.1978 0.0676
18.6600 6.2045 0.0697
18.6800 6.2111 0.0727
18.7000 6.2177 0.0671
18.7200 6.2244 0.0695
18.7400 6.2311 0.0718
18.7600 6.2378 0.0624
18.7800 6.2445 0.0691
18.8000 6.2512 0.0724
18.8200 6.2578 0.0660
18.8400 6.2644 0.0695
18.8600 6.2711 0.0697
18.8800 6.2777 0.0654
18.9000 6.2843 0.0717
18.9200 6.2910 0.0713
18.9400 6.2978 0.0662
18.9600 6.3044 0.0682
18.9800 6.3111 0.0736
19.0000 6.3178 0.0664
19.0200 6.3244 0.0704
19.0400 6.3311 0.0684
19.0600 6.3377 0.0671
19.0800 6.3443 0.0729
19.1000 6.3510 0.0703
19.1200 6.3577 0.0632
19.1400 6.3644 0.0738
19.1600 6.3711 0.0670
19.1800 6.3778 0.0633
19.2000 6.3845 0.0711
19.2200 6.3911 0.0722
19.2400 6.3977 0.0683
19.2600 6.4044 0.0718
19.2800 6.4111 0.0714
19.3000 6.4178 0.0671
19.3200 6.4245 0.0685
19.3400 6.4311 0.0716
19.3600 6.4378 0.0693
19.3800 6.4445 0.0684
19.4000 6.4511 0.0711
19.4200 6.4577 0.0662
19.4400 6.4644 0.0695
19.4600 6.4711 0.0662
19.4800 6.4778 0.0687
19.5000 6.4845 0.0656
19.5200 6.4911 0.0664
19.5400 6.4978 0.0696
19.5600 6.5045 0.0651
19.5800 6.5111 0.0663
19.6000 6.5178 0.0716
19.6200 6.5244 0.0650
19.6400 6.5311 0.0695
19.6600 6.5377 0.0684
19.6800 6.5444 0.0648
19.7000 6.5511 0.0706
19.7200 6.5578 0.0694
19.7400 6.5645 0.0592
19.7600 6.5711 0.0714
19.7800 6.5777 0.0668
19.8000 6.5843 0.0604
19.8200 6.5910 0.0706
19.8400 6.5977 0.0645
19.8600 6.6044 0.0608
19.8800 6.6111 0.0688
19.9000 6.6178 0.0598
19.9200 6.6244 0.0640
19.9400 6.6311 0.0710
19.9600 6.6377 0.0586
19.9800 6.6443 0.0691
20.0000 6.6510 0.0679
20.0200 6.6578 0.0606
20.0400 6.6645 0.0647
20.0600 6.6711 0.0660
20.0800 6.6778 0.0578
20.1000 6.6845 0.0714
20.1200 6.6911 0.0607
20.1400 6.6977 0.0602
20.1600 6.7044 0.0668
20.1800 6.7111 0.0666
20.2000 6.7178 0.0584
20.2200 6.7245 0.0645
20.2400 6.7311 0.0669
20.2600 6.7378 0.0587
20.2800 6.7445 0.0663
20.3000 6.7511 0.0687
20.3200 6.7577 0.0592
20.3400 6.7643 0.0645
20.3600 6.7710 0.0681
20.3800 6.7778 0.0591
20.4000 6.7845 0.0653
20.4200 6.7911 0.0665
20.4400 6.7978 0.0575
20.4600 6.8045 0.0654
20.4800 6.8111 0.0630
20.5000 6.8177 0.0597
20.5200 6.8244 0.0678
20.5400 6.8310 0.0608
20.5600 6.8377 0.0641
20.5800 6.8444 0.0668
20.6000 6.8511 0.0629
20.6200 6.8578 0.0626
20.6400 6.8644 0.0645
20.6600 6.8711 0.0579
20.6800 6.8777 0.0662
20.7000 6.8844 0.0614
20.7200 6.8910 0.0635
20.7400 6.8977 0.0687
20.7600 6.9045 0.0592
20.7800 6.9112 0.0579
20.8000 6.9179 0.0698
20.8200 6.9245 0.0569
20.8400 6.9311 0.0633
20.8600 6.9377 0.0664
20.8800 6.9444 0.0608
20.9000 6.9511 0.0630
20.9200 6.9578 0.0657
20.9400 6.9645 0.0579
20.9600 6.9711 0.0657
20.9800 6.9778 0.0683
21.0000 6.9845 0.0532
21.0200 6.9911 0.0592
21.0400 6.9977 0.0682
21.0600 7.0043 0.0559
21.0800 7.0110 0.0650
21.1000 7.0177 0.0681
21.1200 7.0244 0.0518
21.1400 7.0311 0.0668
21.1600 7.0378 0.0629
21.1800 7.0445 0.0559
21.2000 7.0511 0.0659
21.2200 7.0577 0.0636
21.2400 7.0643 0.0533
21.2600 7.0710 0.0691
21.2800 7.0777 0.0638
21.3000 7.0844 0.0532
21.3200 7.0911 0.0672
21.3400 7.0978 0.0635
21.3600 7.1045 0.0509
21.3800 7.1111 0.0702
21.4000 7.1177 0.0631
21.4200 7.1243 0.0538
21.4400 7.1310 0.0696
21.4600 7.1377 0.0602
21.4800 7.1444 0.0498
21.5000 7.1511 0.0690
21.5200 7.1578 0.0650
21.5400 7.1645 0.0505
21.5600 7.1712 0.0709
21.5800 7.1778 0.0642
21.6000 7.1844 0.0520
21.6200 7.1911 0.0700
21.6400 7.1978 0.0655
21.6600 7.2045 0.0542
21.6800 7.2111 0.0688
21.7000 7.2178 0.0608
21.7200 7.2245 0.0542
21.7400 7.2311 0.0677
21.7600 7.2377 0.0614
21.7800 7.2444 0.0519
21.8000 7.2510 0.0708
21.8200 7.2577 0.0571
21.8400 7.2644 0.0527
21.8600 7.2711 0.0663
21.8800 7.2778 0.0605
21.9000 7.2845 0.0498
21.9200 7.2911 0.0687
21.9400 7.2977 0.0606
21.9600 7.3043 0.0540
21.9800 7.3110 0.0634
22.0000 7.3177 0.0573
22.0200 7.3244 0.0512
22.0400 7.3311 0.0627
22.0600 7.3378 0.0591
22.0800 7.3444 0.0518
22.1000 7.3511 0.0641
22.1200 7.3577 0.0558
22.1400 7.3644 0.0534
22.1600 7.3710 0.0651
22.1800 7.3778 0.0603
22.2000 7.3845 0.0505
22.2200 7.3912 0.0612
22.2400 7.3978 0.0561
22.2600 7.4045 0.0517
22.2800 7.4112 0.0579
22.3000 7.4178 0.0582
22.3200 7.4244 0.0571
22.3400 7.4310 0.0552
22.3600 7.4377 0.0543
22.3800 7.4445 0.0593
22.4000 7.4511 0.0471
22.4200 7.4578 0.0584
22.4400 7.4645 0.0557
22.4600 7.4711 0.0480
22.4800 7.4777 0.0643
22.5000 7.4844 0.0566
22.5200 7.4910 0.0397
22.5400 7.4977 0.0628
22.5600 7.5044 0.0592
22.5800 7.5111 0.0433
22.6000 7.5178 0.0615
22.6200 7.5244 0.0572
22.6400 7.5311 0.0385
22.6600 7.5378 0.0636
22.6800 7.5444 0.0527
22.7000 7.5510 0.0461
22.7200 7.5577 0.0659
22.7400 7.5644 0.0481
22.7600 7.5711 0.0477
22.7800 7.5778 0.0625
22.8000 7.5844 0.0479
22.8200 7.5911 0.0447
22.8400 7.5977 0.0592
22.8600 7.6043 0.0521
22.8800 7.6110 0.0477
22.9000 7.6177 0.0576
22.9200 7.6245 0.0521
22.9400 7.6312 0.0450
22.9600 7.6378 0.0542
22.9800 7.6445 0.0512
23.0000 7.6511 0.0462
23.0200 7.6577 0.0520
23.0400 7.6644 0.0565
23.0600 7.6710 0.0440
23.0800 7.6778 0.0545
23.1000 7.6845 0.0537
23.1200 7.6912 0.0426
23.1400 7.6978 0.0511
23.1600 7.7045 0.0575
23.1800 7.7111 0.0385
23.2000 7.7178 0.0519
23.2200 7.7244 0.0563
23.2400 7.7310 0.0393
23.2600 7.7377 0.0568
23.2800 7.7444 0.0533
23.3000 7.7511 0.0394
23.3200 7.7578 0.0578
23.3400 7.7644 0.0544
23.3600 7.7711 0.0378
23.3800 7.7777 0.0552
23.4000 7.7843 0.0496
23.4200 7.7910 0.0403
23.4400 7.7977 0.0519
23.4600 7.8044 0.0456
23.4800 7.8111 0.0395
23.5000 7.8178 0.0578
23.5200 7.8245 0.0434
23.5400 7.8311 0.0413
23.5600 7.8378 0.0522
23.5800 7.8444 0.0475
23.6000 7.8510 0.0378
23.6200 7.8577 0.0514
23.6400 7.8644 0.0459
23.6600 7.8711 0.0417
23.6800 7.8778 0.0509
23.7000 7.8845 0.0468
23.7200 7.8911 0.0408
23.7400 7.8978 0.0503
23.7600 7.9044 0.0450
23.7800 7.9110 0.0405
23.8000 7.9177 0.0511
23.8200 7.9244 0.0449
23.8400 7.9311 0.0378
23.8600 7.9378 0.0469
23.8800 7.9445 0.0494
23.9000 7.9512 0.0393
23.9200 7.9578 0.0425
23.9400 7.9644 0.0443
23.9600 7.9710 0.0431
23.9800 7.9777 0.0502
24.0000 7.9844 0.0481
24.0200 7.9911 0.0365
24.0400 7.9978 0.0495
24.0600 8.0045 0.0455
24.0800 8.0111 0.0363
24.1000 8.0178 0.0493
24.1200 8.0244 0.0539
24.1400 8.0310 0.0356
24.1600 8.0377 0.0492
24.1800 8.0444 0.0505
24.2000 8.0511 0.0418
24.2200 8.0577 0.0476
24.2400 8.0644 0.0495
24.2600 8.0711 0.0381
24.2800 8.0777 0.0485
24.3000 8.0843 0.0518
24.3200 8.0910 0.0403
24.3400 8.0977 0.0468
24.3600 8.1044 0.0505
24.3800 8.1112 0.0368
24.4000 8.1178 0.0442
24.4200 8.1245 0.0528
24.4400 8.1312 0.0395
24.4600 8.1378 0.0456
24.4800 8.1444 0.0529
24.5000 8.1510 0.0451
24.5200 8.1577 0.0454
24.5400 8.1645 0.0566
24.5600 8.1712 0.0397
24.5800 8.1778 0.0454
24.6000 8.1845 0.0549
24.6200 8.1911 0.0403
24.6400 8.1978 0.0457
24.6600 8.2044 0.0523
24.6800 8.2110 0.0400
24.7000 8.2177 0.0528
24.7200 8.2244 0.0551
24.7400 8.2311 0.0374
24.7600 8.2378 0.0488
24.7800 8.2445 0.0599
24.8000 8.2511 0.0351
24.8200 8.2577 0.0502
24.8400 8.2643 0.0603
24.8600 8.2710 0.0386
24.8800 8.2776 0.0489
24.9000 8.2844 0.0545
24.9200 8.2911 0.0356
24.9400 8.2978 0.0524
24.9600 8.3044 0.0553
24.9800 8.3111 0.0324
25.0000 8.3178 0.0545
25.0200 8.3244 0.0529
25.0400 8.3310 0.0351
25.0600 8.3377 0.0562
25.0800 8.3445 0.0567
25.1000 8.3512 0.0314
25.1200 8.3578 0.0555
25.1400 8.3645 0.0501
25.1600 8.3712 0.0372
25.1800 8.3778 0.0529
25.2000 8.3844 0.0521
25.2200 8.3911 0.0394
25.2400 8.3978 0.0547
25.2600 8.4045 0.0509
25.2800 8.4111 0.0409
25.3000 8.4178 0.0481
25.3200 8.4245 0.0534
25.3400 8.4312 0.0463
25.3600 8.4378 0.0496
25.3800 8.4444 0.0446
25.4000 8.4510 0.0526
25.4200 8.4577 0.0501
25.4400 8.4644 0.0406
25.4600 8.4711 0.0498
25.4800 8.4778 0.0478
25.5000 8.4845 0.0451
25.5200 8.4911 0.0486
25.5400 8.4978 0.0443
25.5600 8.5043 0.0508
25.5800 8.5110 0.0515
25.6000 8.5177 0.0422
25.6200 8.5244 0.0503
25.6400 8.5311 0.0491
25.6600 8.5378 0.0423
25.6800 8.5444 0.0491
25.7000 8.5511 0.0511
25.7200 8.5578 0.0394
25.7400 8.5644 0.0510
25.7600 8.5711 0.0504
25.7800 8.5777 0.0429
25.8000 8.5844 0.0495
25.8200 8.5911 0.0463
25.8400 8.5978 0.0366
25.8600 8.6045 0.0516
25.8800 8.6112 0.0441
25.9000 8.6178 0.0389
25.9200 8.6244 0.0530
25.9400 8.6310 0.0444
25.9600 8.6377 0.0389
25.9800 8.6444 0.0498
26.0000 8.6511 0.0412
26.0200 8.6578 0.0432
26.0400 8.6645 0.0531
26.0600 8.6711 0.0415
26.0800 8.6778 0.0417
26.1000 8.6844 0.0503
26.1200 8.6910 0.0464
26.1400 8.6977 0.0438
26.1600 8.7044 0.0477
26.1800 8.7111 0.0427
26.2000 8.7178 0.0477
26.2200 8.7244 0.0456
26.2400 8.7311 0.0416
26.2600 8.7378 0.0438
26.2800 8.7444 0.0418
26.3000 8.7510 0.0435
26.3200 8.7576 0.0508
26.3400 8.7643 0.0410
26.3600 8.7711 0.0459
26.3800 8.7778 0.0438
26.4000 8.7845 0.0422
26.4200 8.7912 0.0483
26.4400 8.7978 0.0418
26.4600 8.8044 0.0391
26.4800 8.8110 0.0431
26.5000 8.8177 0.0466
26.5200 8.8244 0.0432
26.5400 8.8312 0.0420
26.5600 8.8379 0.0474
26.5800 8.8445 0.0356
26.6000 8.8512 0.0408
26.6200 8.8578 0.0440
26.6400 8.8644 0.0397
26.6600 8.8710 0.0407
26.6800 8.8777 0.0404
26.7000 8.8844 0.0409
26.7200 8.8911 0.0429
26.7400 8.8978 0.0417
26.7600 8.9045 0.0327
26.7800 8.9111 0.0484
26.8000 8.9178 0.0411
26.8200 8.9244 0.0326
26.8400 8.9310 0.0438
26.8600 8.9377 0.0398
26.8800 8.9444 0.0322
26.9000 8.9511 0.0485
26.9200 8.9578 0.0343
26.9400 8.9645 0.0359
26.9600 8.9712 0.0447
26.9800 8.9778 0.0320
27.0000 8.9844 0.0333
27.0200 8.9910 0.0525
27.0400 8.9977 0.0330
27.0600 9.0044 0.0352
27.0800 9.0111 0.0467
27.1000 9.0178 0.0325
27.1200 9.0245 0.0338
27.1400 9.0311 0.0468
27.1600 9.0378 0.0307
27.1800 9.0444 0.0322
27.2000 9.0510 0.0502
27.2200 9.0577 0.0290
27.2400 9.0644 0.0311
27.2600 9.0711 0.0466
27.2800 9.0778 0.0310
27.3000 9.0845 0.0331
27.3200 9.0912 0.0455
27.3400 9.0978 0.0305
27.3600 9.1044 0.0340
27.3800 9.1111 0.0425
27.4000 9.1177 0.0366
27.4200 9.1244 0.0325
27.4400 9.1311 0.0376
27.4600 9.1378 0.0305
27.4800 9.1445 0.0367
27.5000 9.1512 0.0392
27.5200 9.1578 0.0341
27.5400 9.1644 0.0341
27.5600 9.1710 0.0383
27.5800 9.1777 0.0337
27.6000 9.1844 0.0350
27.6200 9.1911 0.0410
27.6400 9.1978 0.0314
27.6600 9.2044 0.0279
27.6800 9.2111 0.0403
27.7000 9.2178 0.0311
27.7200 9.2244 0.0289
27.7400 9.2310 0.0391
27.7600 9.2377 0.0321
27.7800 9.2444 0.0261
27.8000 9.2511 0.0404
27.8200 9.2578 0.0355
27.8400 9.2644 0.0261
27.8600 9.2711 0.0353
27.8800 9.2778 0.0251
27.9000 9.2844 0.0287
27.9200 9.2911 0.0400
27.9400 9.2977 0.0307
27.9600 9.3044 0.0273
27.9800 9.3111 0.0395
28.0000 9.3178 0.0233
28.0200 9.3245 0.0309
28.0400 9.3312 0.0428
28.0600 9.3378 0.0276
28.0800 9.3444 0.0232
28.1000 9.3510 0.0368
28.1200 9.3577 0.0300
28.1400 9.3644 0.0312
28.1600 9.3711 0.0363
28.1800 9.3778 0.0230
28.2000 9.3845 0.0246
28.2200 9.3911 0.0386
28.2400 9.3978 0.0300
28.2600 9.4044 0.0305
28.2800 9.4110 0.0359
28.3000 9.4177 0.0267
28.3200 9.4244 0.0279
28.3400 9.4311 0.0346
28.3600 9.4378 0.0298
28.3800 9.4445 0.0214
28.4000 9.4511 0.0371
28.4200 9.4578 0.0301
28.4400 9.4644 0.0207
28.4600 9.4710 0.0397
28.4800 9.4776 0.0339
28.5000 9.4843 0.0207
28.5200 9.4910 0.0381
28.5400 9.4977 0.0273
28.5600 9.5044 0.0193
28.5800 9.5111 0.0371
28.6000 9.5178 0.0347
28.6200 9.5244 0.0224
28.6400 9.5310 0.0355
28.6600 9.5377 0.0300
28.6800 9.5444 0.0257
28.7000 9.5511 0.0368
28.7200 9.5578 0.0289
28.7400 9.5645 0.0247
28.7600 9.5712 0.0385
28.7800 9.5779 0.0245
28.8000 9.5845 0.0244
28.8200 9.5911 0.0340
28.8400 9.5977 0.0272
28.8600 9.6044 0.0278
28.8800 9.6111 0.0313
28.9000 9.6178 0.0240
28.9200 9.6245 0.0285
28.9400 9.6312 0.0268
28.9600 9.6378 0.0253
28.9800 9.6444 0.0314
29.0000 9.6510 0.0263
29.0200 9.6576 0.0277
29.0400 9.6643 0.0255
29.0600 9.6711 0.0314
29.0800 9.6778 0.0302
29.1000 9.6844 0.0235
29.1200 9.6911 0.0242
29.1400 9.6978 0.0409
29.1600 9.7044 0.0221
29.1800 9.7110 0.0210
29.2000 9.7177 0.0394
29.2200 9.7244 0.0229
29.2400 9.7311 0.0222
29.2600 9.7378 0.0380
29.2800 9.7444 0.0184
29.3000 9.7511 0.0298
29.3200 9.7578 0.0355
29.3400 9.7644 0.0193
29.3600 9.7711 0.0246
29.3800 9.7777 0.0406
29.4000 9.7844 0.0157
29.4200 9.7911 0.0317
29.4400 9.7978 0.0369
29.4600 9.8045 0.0144
29.4800 9.8112 0.0331
29.5000 9.8178 0.0345
29.5200 9.8245 0.0149
29.5400 9.8311 0.0351
29.5600 9.8377 0.0354
29.5800 9.8444 0.0160
29.6000 9.8511 0.0342
29.6200 9.8578 0.0279
29.6400 9.8645 0.0135
29.6600 9.8712 0.0340
29.6800 9.8778 0.0336
29.7000 9.8844 0.0200
29.7200 9.8910 0.0331
29.7400 9.8976 0.0309
29.7600 9.9043 0.0232
29.7800 9.9111 0.0303
29.8000 9.9178 0.0294
29.8200 9.9244 0.0199
29.8400 9.9311 0.0303
29.8600 9.9378 0.0258
29.8800 9.9444 0.0266
29.9000 9.9510 0.0300
29.9200 9.9577 0.0304
29.9400 9.9643 0.0218
29.9600 9.9710 0.0246
29.9800 9.9777 0.0333
30.0000 9.9844 0.0327
30.0200 9.9911 0.0196
30.0400 9.9978 0.0284
30.0600 10.0045 0.0275
30.0800 10.0111 0.0222
30.1000 10.0177 0.0358
30.1200 10.0244 0.0291
30.1400 10.0311 0.0202
30.1600 10.0378 0.0310
30.1800 10.0445 0.0271
30.2000 10.0512 0.0209
30.2200 10.0578 0.0368
30.2400 10.0644 0.0279
30.2600 10.0711 0.0180
30.2800 10.0777 0.0360
30.3000 10.0844 0.0319
30.3200 10.0911 0.0131
30.3400 10.0978 0.0361
30.3600 10.1045 0.0283
30.3800 10.1111 0.0182
30.4000 10.1178 0.0345
30.4200 10.1245 0.0308
30.4400 10.1311 0.0177
30.4600 10.1377 0.0384
30.4800 10.1443 0.0283
30.5000 10.1510 0.0209
30.5200 10.1578 0.0409
30.5400 10.1645 0.0270
30.5600 10.1711 0.0197
30.5800 10.1778 0.0357
30.6000 10.1844 0.0223
30.6200 10.1910 0.0275
30.6400 10.1976 0.0346
30.6600 10.2043 0.0250
30.6800 10.2110 0.0243
30.7000 10.2177 0.0296
30.7200 10.2244 0.0270
30.7400 10.2311 0.0263
30.7600 10.2378 0.0325
30.7800 10.2444 0.0251
30.8000 10.2511 0.0252
30.8200 10.2577 0.0302
30.8400 10.2644 0.0299
30.8600 10.2711 0.0254
30.8800 10.2778 0.0327
30.9000 10.2845 0.0287
30.9200 10.2912 0.0214
30.9400 10.2978 0.0279
30.9600 10.3045 0.0298
30.9800 10.3111 0.0205
31.0000 10.3177 0.0354
31.0200 10.3244 0.0299
31.0400 10.3311 0.0215
31.0600 10.3378 0.0306
31.0800 10.3445 0.0398
31.1000 10.3512 0.0121
31.1200 10.3578 0.0298
31.1400 10.3645 0.0401
31.1600 10.3710 0.0114
31.1800 10.3777 0.0278
31.2000 10.3843 0.0400
31.2200 10.3911 0.0158
31.2400 10.3978 0.0270
31.2600 10.4045 0.0403
31.2800 10.4111 0.0178
31.3000 10.4178 0.0277
31.3200 10.4244 0.0393
31.3400 10.4311 0.0135
31.3600 10.4377 0.0293
31.3800 10.4444 0.0429
31.4000 10.4511 0.0160
31.4200 10.4578 0.0282
31.4400 10.4644 0.0373
31.4600 10.4711 0.0158
31.4800 10.4778 0.0252
31.5000 10.4845 0.0400
31.5200 10.4911 0.0193
31.5400 10.4977 0.0216
31.5600 10.5043 0.0313
31.5800 10.5110 0.0211
31.6000 10.5178 0.0230
31.6200 10.5245 0.0358
31.6400 10.5312 0.0154
31.6600 10.5378 0.0228
31.6800 10.5445 0.0362
31.7000 10.5511 0.0203
31.7200 10.5577 0.0214
31.7400 10.5644 0.0379
31.7600 10.5711 0.0185
31.7800 10.5778 0.0197
31.8000 10.5845 0.0415
31.8200 10.5912 0.0137
31.8400 10.5978 0.0257
31.8600 10.6045 0.0411
31.8800 10.6111 0.0069
31.9000 10.6177 0.0272
31.9200 10.6244 0.0418
31.9400 10.6311 0.0059
31.9600 10.6378 0.0297
31.9800 10.6444 0.0369
32.0000 10.6511 0.0037
32.0200 10.6578 0.0320
32.0400 10.6645 0.0395
32.0600 10.6711 0.0080
32.0800 10.6777 0.0373
32.1000 10.6843 0.0335
32.1200 10.6910 0.0094
32.1400 10.6977 0.0383
32.1600 10.7044 0.0301
32.1800 10.7111 0.0110
32.2000 10.7178 0.0392
32.2200 10.7244 0.0298
32.2400 10.7311 0.0164
32.2600 10.7377 0.0386
32.2800 10.7444 0.0315
32.3000 10.7511 0.0167
32.3200 10.7578 0.0377
32.3400 10.7645 0.0263
32.3600 10.7712 0.0237
32.3800 10.7778 0.0335
32.4000 10.7845 0.0238
32.4200 10.7911 0.0245
32.4400 10.7977 0.0250
32.4600 10.8044 0.0298
32.4800 10.8111 0.0310
32.5000 10.8178 0.0248
32.5200 10.8245 0.0244
32.5400 10.8312 0.0302
32.5600 10.8378 0.0207
32.5800 10.8445 0.0312
32.6000 10.8511 0.0282
32.6200 10.8577 0.0245
32.6400 10.8643 0.0308
32.6600 10.8710 0.0269
32.6800 10.8778 0.0179
32.7000 10.8844 0.0318
32.7200 10.8911 0.0271
32.7400 10.8978 0.0200
32.7600 10.9045 0.0262
32.7800 10.9111 0.0266
32.8000 10.9177 0.0208
32.8200 10.9243 0.0307
32.8400 10.9310 0.0246
32.8600 10.9378 0.0203
32.8800 10.9444 0.0307
32.9000 10.9511 0.0234
32.9200 10.9577 0.0238
32.9400 10.9644 0.0312
32.9600 10.9711 0.0162
32.9800 10.9777 0.0272
33.0000 10.9844 0.0296
33.0200 10.9911 0.0189
33.0400 10.9978 0.0273
33.0600 11.0045 0.0237
33.0800 11.0111 0.0165
33.1000 11.0178 0.0293
33.1200 11.0245 0.0218
33.1400 11.0311 0.0191
33.1600 11.0377 0.0271
33.1800 11.0444 0.0183
33.2000 11.0511 0.0218
33.2200 11.0578 0.0273
33.2400 11.0645 0.0170
33.2600 11.0712 0.0174
33.2800 11.0778 0.0271
33.3000 11.0845 0.0173
33.3200 11.0911 0.0207
33.3400 11.0977 0.0223
33.3600 11.1043 0.0202
33.3800 11.1110 0.0249
33.4000 11.1177 0.0166
33.4200 11.1244 0.0151
33.4400 11.1311 0.0278
33.4600 11.1378 0.0169
33.4800 11.1444 0.0156
33.5000 11.1511 0.0238
33.5200 11.1577 0.0190
33.5400 11.1643 0.0150
33.5600 11.1710 0.0211
33.5800 11.1777 0.0180
33.6000 11.1844 0.0196
33.6200 11.1911 0.0240
33.6400 11.1978 0.0161
33.6600 11.2045 0.0182
33.6800 11.2112 0.0210
33.7000 11.2177 0.0165
33.7200 11.2244 0.0141
33.7400 11.2310 0.0282
33.7600 11.2378 0.0121
33.7800 11.2445 0.0153
33.8000 11.2511 0.0197
33.8200 11.2578 0.0147
33.8400 11.2645 0.0157
33.8600 11.2711 0.0253
33.8800 11.2777 0.0127
33.9000 11.2844 0.0208
33.9200 11.2911 0.0213
33.9400 11.2978 0.0133
33.9600 11.3045 0.0191
33.9800 11.3111 0.0253
34.0000 11.3178 0.0105
34.0200 11.3245 0.0164
34.0400 11.3311 0.0211
34.0600 11.3378 0.0167
34.0800 11.3444 0.0231
34.1000 11.3510 0.0183
34.1200 11.3577 0.0171
34.1400 11.3644 0.0208
34.1600 11.3711 0.0187
34.1800 11.3778 0.0163
34.2000 11.3845 0.0168
34.2200 11.3911 0.0179
34.2400 11.3977 0.0202
34.2600 11.4043 0.0162
34.2800 11.4110 0.0252
34.3000 11.4177 0.0206
34.3200 11.4244 0.0166
34.3400 11.4311 0.0201
34.3600 11.4378 0.0176
34.3800 11.4445 0.0176
34.4000 11.4511 0.0240
34.4200 11.4577 0.0198
34.4400 11.4643 0.0140
34.4600 11.4710 0.0211
34.4800 11.4778 0.0249
34.5000 11.4845 0.0087
34.5200 11.4911 0.0264
34.5400 11.4978 0.0207
34.5600 11.5045 0.0067
34.5800 11.5111 0.0244
34.6000 11.5177 0.0247
34.6200 11.5244 0.0075
34.6400 11.5310 0.0293
34.6600 11.5377 0.0180
34.6800 11.5445 0.0020
34.7000 11.5511 0.0345
34.7200 11.5578 0.0179
34.7400 11.5645 0.0013
34.7600 11.5711 0.0303
34.7800 11.5777 0.0142
34.8000 11.5843 0.0069
34.8200 11.5910 0.0267
34.8400 11.5978 0.0143
34.8600 11.6045 0.0093
34.8800 11.6111 0.0204
34.9000 11.6178 0.0153
34.9200 11.6245 0.0116
34.9400 11.6311 0.0259
34.9600 11.6377 0.0096
34.9800 11.6443 0.0110
35.0000 11.6510 0.0221
35.0200 11.6577 0.0124
35.0400 11.6644 0.0109
35.0600 11.6711 0.0243
35.0800 11.6777 0.0147
35.1000 11.6844 0.0160
35.1200 11.6911 0.0110
35.1400 11.6977 0.0164
35.1600 11.7044 0.0158
35.1800 11.7110 0.0143
35.2000 11.7177 0.0118
35.2200 11.7245 0.0111
35.2400 11.7311 0.0165
35.2600 11.7378 0.0151
35.2800 11.7445 0.0070
35.3000 11.7512 0.0134
35.3200 11.7577 0.0184
35.3400 11.7644 0.0076
35.3600 11.7711 0.0141
35.3800 11.7778 0.0170
35.4000 11.7845 0.0054
35.4200 11.7912 0.0148
35.4400 11.7978 0.0155
35.4600 11.8045 0.0075
35.4800 11.8111 0.0176
35.5000 11.8177 0.0109
35.5200 11.8244 0.0090
35.5400 11.8310 0.0191
35.5600 11.8377 0.0077
35.5800 11.8444 0.0070
35.6000 11.8511 0.0206
35.6200 11.8578 0.0060
35.6400 11.8645 0.0057
35.6600 11.8711 0.0176
35.6800 11.8777 0.0057
35.7000 11.8843 0.0090
35.7200 11.8910 0.0184
35.7400 11.8977 0.0056
35.7600 11.9044 0.0070
35.7800 11.9111 0.0130
35.8000 11.9178 0.0051
35.8200 11.9245 0.0084
35.8400 11.9311 0.0130
35.8600 11.9377 0.0026
35.8800 11.9444 0.0052
35.9000 11.9510 0.0141
35.9200 11.9577 0.0017
35.9400 11.9644 0.0112
35.9600 11.9711 0.0123
35.9800 11.9778 0.0049
36.0000 11.9845 0.0063
36.0200 11.9911 0.0107
36.0400 11.9978 0.0071
36.0600 12.0044 0.0122
36.0800 12.0111 0.0094
36.1000 12.0178 0.0072
36.1200 12.0245 0.0118
36.1400 12.0311 0.0129
36.1600 12.0378 0.0086
36.1800 12.0445 0.0145
36.2000 12.0512 0.0061
36.2200 12.0578 0.0117
36.2400 12.0644 0.0132
36.2600 12.0710 0.0077
36.2800 12.0777 0.0114
36.3000 12.0844 0.0134
36.3200 12.0911 0.0052
36.3400 12.0978 0.0104
36.3600 12.1045 0.0120
36.3800 12.1111 0.0062
36.4000 12.1177 0.0120
36.4200 12.1243 0.0149
36.4400 12.1310 0.0034
36.4600 12.1377 0.0112
36.4800 12.1444 0.0137
36.5000 12.1511 0.0012
36.5200 12.1577 0.0141
36.5400 12.1644 0.0134
36.5600 12.1711 0.0037
36.5800 12.1777 0.0123
36.6000 12.1844 0.0158
36.6200 12.1910 0.0033
36.6400 12.1977 0.0087
36.6600 12.2045 0.0109
36.6800 12.2112 0.0040
36.7000 12.2178 0.0087
36.7200 12.2245 0.0137
36.7400 12.2312 -0.0048
36.7600 12.2378 0.0108
36.7800 12.2444 0.0091
36.8000 12.2510 -0.0010
36.8200 12.2577 0.0158
36.8400 12.2645 0.0095
36.8600 12.2711 -0.0021
36.8800 12.2778 0.0107
36.9000 12.2845 0.0087
36.9200 12.2911 0.0040
36.9400 12.2977 0.0072
36.9600 12.3043 0.0091
36.9800 12.3110 0.0045
37.0000 12.3177 0.0068
37.0200 12.3244 0.0058
37.0400 12.3311 0.0091
37.0600 12.3378 0.0095
37.0800 12.3445 0.0041
37.1000 12.3511 0.0083
37.1200 12.3578 0.0038
37.1400 12.3644 0.0103
37.1600 12.3710 0.0063
37.1800 12.3777 0.0041
37.2000 12.3844 0.0093
37.2200 12.3911 0.0089
37.2400 12.3978 0.0049
37.2600 12.4044 0.0105
37.2800 12.4111 0.0060
37.3000 12.4177 0.0032
37.3200 12.4244 0.0118
37.3400 12.4310 0.0094
37.3600 12.4377 0.0077
37.3800 12.4445 0.0100
37.4000 12.4512 0.0003
37.4200 12.4578 0.0125
37.4400 12.4645 0.0077
37.4600 12.4711 0.0054
37.4800 12.4777 0.0141
37.5000 12.4843 0.0020
37.5200 12.4910 0.0045
37.5400 12.4978 0.0177
37.5600 12.5045 0.0027
37.5800 12.5112 0.0038
37.6000 12.5178 0.0160
37.6200 12.5245 -0.0009
37.6400 12.5311 0.0028
37.6600 12.5378 0.0205
37.6800 12.5444 0.0052
37.7000 12.5510 0.0023
37.7200 12.5577 0.0168
37.7400 12.5644 0.0014
37.7600 12.5711 0.0053
37.7800 12.5778 0.0145
37.8000 12.5844 0.0055
37.8200 12.5911 0.0031
37.8400 12.5977 0.0122
37.8600 12.6043 0.0036
37.8800 12.6110 0.0106
37.9000 12.6177 0.0098
37.9200 12.6244 0.0043
37.9400 12.6311 0.0047
37.9600 12.6378 0.0070
37.9800 12.6444 0.0023
38.0000 12.6511 0.0090
38.0200 12.6578 0.0079
38.0400 12.6644 0.0084
38.0600 12.6710 -0.0005
38.0800 12.6777 0.0059
38.1000 12.6844 0.0095
38.1200 12.6911 -0.0025
38.1400 12.6978 0.0070
38.1600 12.7045 0.0121
38.1800 12.7111 -0.0068
38.2000 12.7178 0.0076
38.2200 12.7244 0.0105
38.2400 12.7310 -0.0063
38.2600 12.7377 0.0100
38.2800 12.7444 0.0080
38.3000 12.7511 -0.0084
38.3200 12.7578 0.0136
38.3400 12.7645 0.0065
38.3600 12.7712 -0.0142
38.3800 12.7778 0.0142
38.4000 12.7844 0.0082
38.4200 12.7910 -0.0022
38.4400 12.7977 0.0090
38.4600 12.8045 0.0029
38.4800 12.8112 -0.0050
38.5000 12.8178 0.0129
38.5200 12.8245 0.0005
38.5400 12.8311 0.0002
38.5600 12.8378 0.0100
38.5800 12.8444 -0.0004
38.6000 12.8510 0.0033
38.6200 12.8577 0.0066
38.6400 12.8644 -0.0044
38.6600 12.8711 0.0038
38.6800 12.8777 0.0051
38.7000 12.8844 -0.0056
38.7200 12.8911 -0.0030
38.7400 12.8977 0.0043
38.7600 12.9044 0.0012
38.7800 12.9110 0.0039
38.8000 12.9177 0.0025
38.8200 12.9244 -0.0029
38.8400 12.9311 0.0009
38.8600 12.9378 -0.0001
38.8800 12.9445 0.0015
38.9000 12.9512 -0.0015
38.9200 12.9578 0.0006
38.9400 12.9644 0.0018
38.9600 12.9710 -0.0005
38.9800 12.9777 -0.0004
39.0000 12.9845 0.0024
39.0200 12.9912 -0.0051
39.0400 12.9978 -0.0002
39.0600 13.0045 0.0031
39.0800 13.0112 0.0000
39.1000 13.0178 0.0016
39.1200 13.0244 0.0010
39.1400 13.0310 -0.0063
39.1600 13.0377 0.0012
39.1800 13.0444 -0.0023
39.2000 13.0511 -0.0032
39.2200 13.0577 0.0031
39.2400 13.0644 -0.0013
39.2600 13.0711 -0.0069
39.2800 13.0778 0.0007
39.3000 13.0844 -0.0011
39.3200 13.0910 -0.0054
39.3400 13.0976 0.0007
39.3600 13.1044 -0.0068
39.3800 13.1111 -0.0061
39.4000 13.1178 0.0024
39.4200 13.1244 -0.0102
39.4400 13.1311 -0.0026
39.4600 13.1378 0.0010
39.4800 13.1444 -0.0104
39.5000 13.1510 -0.0028
39.5200 13.1577 0.0025
39.5400 13.1644 -0.0073
39.5600 13.1711 -0.0084
39.5800 13.1778 0.0017
39.6000 13.1845 -0.0096
39.6200 13.1912 -0.0008
39.6400 13.1978 -0.0074
39.6600 13.2044 -0.0055
39.6800 13.2111 -0.0016
39.7000 13.2177 -0.0050
39.7200 13.2244 0.0028
39.7400 13.2311 0.0009
39.7600 13.2378 -0.0052
39.7800 13.2445 0.0006
39.8000 13.2512 -0.0015
39.8200 13.2578 -0.0077
39.8400 13.2644 0.0001
39.8600 13.2710 0.0047
39.8800 13.2776 -0.0072
39.9000 13.2844 0.0012
39.9200 13.2911 -0.0020
39.9400 13.2978 -0.0069
39.9600 13.3045 0.0084
39.9800 13.3112 -0.0099
40.0000 13.3178 -0.0035
40.0200 13.3244 -0.0001
40.0400 13.3310 -0.0030
40.0600 13.3377 -0.0003
40.0800 13.3444 0.0004
40.1000 13.3511 -0.0054
40.1200 13.3578 -0.0029
40.1400 13.3644 0.0033
40.1600 13.3711 0.0021
40.1800 13.3778 -0.0042
40.2000 13.3844 0.0005
40.2200 13.3910 -0.0037
40.2400 13.3977 0.0001
40.2600 13.4044 -0.0009
40.2800 13.4111 -0.0032
40.3000 13.4178 0.0014
40.3200 13.4245 0.0016
40.3400 13.4312 -0.0053
40.3600 13.4378 0.0004
40.3800 13.4444 0.0015
40.4000 13.4510 0.0015
40.4200 13.4577 -0.0006
40.4400 13.4644 -0.0038
40.4600 13.4711 0.0012
40.4800 13.4778 -0.0009
40.5000 13.4845 -0.0007
40.5200 13.4911 -0.0021
40.5400 13.4978 -0.0033
40.5600 13.5044 -0.0011
40.5800 13.5110 -0.0023
40.6000 13.5177 -0.0036
40.6200 13.5244 0.0010
40.6400 13.5311 -0.0016
40.6600 13.5378 -0.0013
40.6800 13.5444 -0.0003
40.7000 13.5511 0.0001
40.7200 13.5578 -0.0045
40.7400 13.5644 -0.0031
40.7600 13.5710 0.0015
40.7800 13.5776 0.0042
40.8000 13.5843 -0.0072
40.8200 13.5911 -0.0013
40.8400 13.5978 -0.0020
40.8600 13.6045 -0.0015
40.8800 13.6111 -0.0028
40.9000 13.6178 -0.0054
40.9200 13.6244 -0.0033
40.9400 13.6310 0.0025
40.9600 13.6377 -0.0047
40.9800 13.6444 -0.0072
41.0000 13.6511 0.0032
41.0200 13.6578 -0.0075
41.0400 13.6645 -0.0050
41.0600 13.6712 0.0008
41.0800 13.6778 -0.0068
41.1000 13.6844 -0.0050
41.1200 13.6910 -0.0014
41.1400 13.6977 -0.0119
41.1600 13.7044 -0.0017
41.1800 13.7111 -0.0007
41.2000 13.7178 -0.0106
41.2200 13.7245 -0.0076
41.2400 13.7311 0.0042
41.2600 13.7378 -0.0094
41.2800 13.7444 -0.0061
41.3000 13.7510 0.0016
41.3200 13.7577 -0.0112
41.3400 13.7644 -0.0059
41.3600 13.7711 -0.0016
41.3800 13.7778 -0.0119
41.4000 13.7844 -0.0027
41.4200 13.7911 -0.0016
41.4400 13.7978 -0.0158
41.4600 13.8044 -0.0059
41.4800 13.8110 0.0027
41.5000 13.8177 -0.0147
41.5200 13.8244 -0.0017
41.5400 13.8311 0.0021
41.5600 13.8378 -0.0184
41.5800 13.8444 -0.0043
41.6000 13.8511 0.0010
41.6200 13.8578 -0.0139
41.6400 13.8644 -0.0040
41.6600 13.8710 -0.0012
41.6800 13.8777 -0.0169
41.7000 13.8844 0.0004
41.7200 13.8911 -0.0050
41.7400 13.8978 -0.0141
41.7600 13.9045 -0.0009
41.7800 13.9112 -0.0001
41.8000 13.9178 -0.0181
41.8200 13.9245 0.0008
41.8400 13.9311 -0.0015
41.8600 13.9377 -0.0143
41.8800 13.9444 -0.0010
41.9000 13.9511 -0.0023
41.9200 13.9578 -0.0138
41.9400 13.9645 -0.0023
41.9600 13.9712 -0.0044
41.9800 13.9778 -0.0119
42.0000 13.9844 -0.0054
42.0200 13.9910 -0.0034
42.0400 13.9977 -0.0087
42.0600 14.0044 -0.0007
42.0800 14.0111 -0.0074
42.1000 14.0178 -0.0114
42.1200 14.0244 0.0007
42.1400 14.0311 -0.0065
42.1600 14.0378 -0.0104
42.1800 14.0444 0.0000
42.2000 14.0510 -0.0027
42.2200 14.0577 -0.0094
42.2400 14.0644 0.0006
42.2600 14.0711 -0.0054
42.2800 14.0777 -0.0089
42.3000 14.0844 -0.0017
42.3200 14.0911 -0.0050
42.3400 14.0978 -0.0117
42.3600 14.1044 0.0030
42.3800 14.1110 -0.0054
42.4000 14.1177 -0.0074
42.4200 14.1244 -0.0033
42.4400 14.1311 -0.0085
42.4600 14.1378 -0.0057
42.4800 14.1445 0.0002
42.5000 14.1512 -0.0090
42.5200 14.1579 -0.0097
42.5400 14.1645 -0.0022
42.5600 14.1710 -0.0057
42.5800 14.1777 -0.0031
42.6000 14.1844 0.0003
42.6200 14.1911 -0.0121
42.6400 14.1978 -0.0066
42.6600 14.2045 0.0020
42.6800 14.2111 -0.0105
42.7000 14.2178 -0.0081
42.7200 14.2244 -0.0055
42.7400 14.2311 -0.0085
42.7600 14.2377 -0.0056
42.7800 14.2444 -0.0007
42.8000 14.2511 -0.0123
42.8200 14.2578 -0.0020
42.8400 14.2644 -0.0055
42.8600 14.2711 -0.0115
42.8800 14.2778 -0.0041
42.9000 14.2845 -0.0079
42.9200 14.2910 -0.0139
42.9400 14.2976 -0.0009
42.9600 14.3043 -0.0077
42.9800 14.3110 -0.0104
43.0000 14.3177 -0.0025
43.0200 14.3244 -0.0061
43.0400 14.3311 -0.0127
43.0600 14.3377 0.0016
43.0800 14.3444 -0.0094
43.1000 14.3510 -0.0066
43.1200 14.3576 -0.0019
43.1400 14.3644 -0.0100
43.1600 14.3711 -0.0056
43.1800 14.3778 -0.0074
43.2000 14.3845 -0.0074
43.2200 14.3912 -0.0051
43.2400 14.3978 -0.0091
43.2600 14.4045 -0.0066
43.2800 14.4111 -0.0030
43.3000 14.4177 -0.0067
43.3200 14.4244 -0.0059
43.3400 14.4311 -0.0037
43.3600 14.4378 -0.0074
43.3800 14.4445 -0.0076
43.4000 14.4512 -0.0026
43.4200 14.4578 -0.0153
43.4400 14.4644 -0.0028
43.4600 14.4710 -0.0076
43.4800 14.4777 -0.0110
43.5000 14.4844 -0.0008
43.5200 14.4911 -0.0041
43.5400 14.4978 -0.0144
43.5600 14.5044 0.0015
43.5800 14.5111 -0.0092
43.6000 14.5178 -0.0156
43.6200 14.5244 0.0003
43.6400 14.5310 -0.0077
43.6600 14.5376 -0.0132
43.6800 14.5443 0.0045
43.7000 14.5511 -0.0163
43.7200 14.5578 -0.0118
43.7400 14.5644 0.0035
43.7600 14.5711 -0.0191
43.7800 14.5778 -0.0054
43.8000 14.5845 0.0033
43.8200 14.5911 -0.0228
43.8400 14.5977 -0.0063
43.8600 14.6044 0.0037
43.8800 14.6111 -0.0265
43.9000 14.6178 -0.0024
43.9200 14.6245 -0.0020
43.9400 14.6312 -0.0228
43.9600 14.6378 -0.0010
43.9800 14.6445 -0.0064
44.0000 14.6511 -0.0229
44.0200 14.6577 0.0026
44.0400 14.6643 -0.0125
44.0600 14.6711 -0.0204
44.0800 14.6778 -0.0014
44.1000 14.6845 -0.0141
44.1200 14.6912 -0.0217
44.1400 14.6978 0.0026
44.1600 14.7044 -0.0158
44.1800 14.7110 -0.0187
44.2000 14.7177 0.0010
44.2200 14.7243 -0.0208
44.2400 14.7311 -0.0157
44.2600 14.7378 0.0021
44.2800 14.7445 -0.0200
44.3000 14.7511 -0.0130
44.3200 14.7578 -0.0047
44.3400 14.7644 -0.0194
44.3600 14.7711 -0.0117
44.3800 14.7777 -0.0021
44.4000 14.7844 -0.0180
44.4200 14.7911 -0.0134
44.4400 14.7977 -0.0040
44.4600 14.8044 -0.0211
44.4800 14.8111 -0.0104
44.5000 14.8178 -0.0054
44.5200 14.8245 -0.0217
44.5400 14.8311 -0.0130
44.5600 14.8377 -0.0054
44.5800 14.8444 -0.0182
44.6000 14.8511 -0.0112
44.6200 14.8578 -0.0119
44.6400 14.8645 -0.0178
44.6600 14.8712 -0.0124
44.6800 14.8778 -0.0069
44.7000 14.8845 -0.0197
44.7200 14.8911 -0.0117
44.7400 14.8977 -0.0096
44.7600 14.9044 -0.0175
44.7800 14.9111 -0.0153
44.8000 14.9178 -0.0089
44.8200 14.9245 -0.0170
44.8400 14.9311 -0.0170
44.8600 14.9378 -0.0125
44.8800 14.9445 -0.0161
44.9000 14.9511 -0.0131
44.9200 14.9577 -0.0102
44.9400 14.9644 -0.0206
44.9600 14.9711 -0.0115
44.9800 14.9778 -0.0103
45.0000 14.9844 -0.0206
45.0200 14.9911 -0.0116
45.0400 14.9978 -0.0109
45.0600 15.0044 -0.0222
45.0800 15.0111 -0.0108
45.1000 15.0177 -0.0089
45.1200 15.0243 -0.0237
45.1400 15.0310 -0.0052
45.1600 15.0378 -0.0187
45.1800 15.0444 -0.0195
45.2000 15.0511 -0.0061
45.2200 15.0578 -0.0172
45.2400 15.0644 -0.0237
45.2600 15.0711 -0.0027
45.2800 15.0777 -0.0232
45.3000 15.0844 -0.0184
45.3200 15.0911 -0.0081
45.3400 15.0978 -0.0255
45.3600 15.1045 -0.0132
45.3800 15.1112 -0.0104
45.4000 15.1178 -0.0300
45.4200 15.1245 -0.0090
45.4400 15.1311 -0.0158
45.4600 15.1377 -0.0247
45.4800 15.1444 -0.0079
45.5000 15.1511 -0.0176
45.5200 15.1578 -0.0235
45.5400 15.1645 -0.0097
45.5600 15.1711 -0.0209
45.5800 15.1778 -0.0197
45.6000 15.1844 -0.0088
45.6200 15.1910 -0.0265
45.6400 15.1977 -0.0167
45.6600 15.2043 -0.0080
45.6800 15.2111 -0.0259
45.7000 15.2178 -0.0164
45.7200 15.2245 -0.0088
45.7400 15.2311 -0.0237
45.7600 15.2378 -0.0157
45.7800 15.2445 -0.0162
45.8000 15.2511 -0.0228
45.8200 15.2577 -0.0150
45.8400 15.2643 -0.0126
45.8600 15.2710 -0.0264
45.8800 15.2777 -0.0182
45.9000 15.2844 -0.0149
45.9200 15.2911 -0.0243
45.9400 15.2978 -0.0169
45.9600 15.3045 -0.0161
45.9800 15.3111 -0.0216
46.0000 15.3177 -0.0145
46.0200 15.3244 -0.0110
46.0400 15.3311 -0.0226
46.0600 15.3378 -0.0154
46.0800 15.3445 -0.0173
46.1000 15.3511 -0.0235
46.1200 15.3578 -0.0128
46.1400 15.3645 -0.0140
46.1600 15.3711 -0.0195
46.1800 15.3777 -0.0160
46.2000 15.3844 -0.0180
46.2200 15.3911 -0.0163
46.2400 15.3978 -0.0168
46.2600 15.4045 -0.0169
46.2800 15.4112 -0.0231
46.3000 15.4178 -0.0185
46.3200 15.4245 -0.0200
46.3400 15.4311 -0.0174
46.3600 15.4377 -0.0158
46.3800 15.4444 -0.0141
46.4000 15.4511 -0.0182
46.4200 15.4578 -0.0203
46.4400 15.4644 -0.0191
46.4600 15.4711 -0.0158
46.4800 15.4778 -0.0193
46.5000 15.4844 -0.0185
46.5200 15.4911 -0.0199
46.5400 15.4977 -0.0143
46.5600 15.5043 -0.0170
46.5800 15.5110 -0.0194
46.6000 15.5177 -0.0142
46.6200 15.5244 -0.0191
46.6400 15.5311 -0.0197
46.6600 15.5378 -0.0153
46.6800 15.5445 -0.0168
46.7000 15.5511 -0.0232
46.7200 15.5577 -0.0146
46.7400 15.5644 -0.0179
46.7600 15.5711 -0.0227
46.7800 15.5778 -0.0149
46.8000 15.5845 -0.0209
46.8200 15.5912 -0.0250
46.8400 15.5979 -0.0162
46.8600 15.6045 -0.0276
46.8800 15.6111 -0.0179
46.9000 15.6177 -0.0151
46.9200 15.6244 -0.0238
46.9400 15.6311 -0.0211
46.9600 15.6378 -0.0198
46.9800 15.6445 -0.0236
47.0000 15.6511 -0.0192
47.0200 15.6578 -0.0170
47.0400 15.6645 -0.0258
47.0600 15.6711 -0.0223
47.0800 15.6777 -0.0166
47.1000 15.6843 -0.0291
47.1200 15.6910 -0.0175
47.1400 15.6977 -0.0196
47.1600 15.7044 -0.0315
47.1800 15.7111 -0.0181
47.2000 15.7178 -0.0213
47.2200 15.7245 -0.0286
47.2400 15.7311 -0.0174
47.2600 15.7377 -0.0232
47.2800 15.7443 -0.0289
47.3000 15.7510 -0.0155
47.3200 15.7577 -0.0262
47.3400 15.7645 -0.0225
47.3600 15.7711 -0.0193
47.3800 15.7778 -0.0256
47.4000 15.7844 -0.0223
47.4200 15.7911 -0.0249
47.4400 15.7977 -0.0274
47.4600 15.8043 -0.0195
47.4800 15.8110 -0.0231
47.5000 15.8177 -0.0256
47.5200 15.8244 -0.0247
47.5400 15.8311 -0.0240
47.5600 15.8378 -0.0306
47.5800 15.8445 -0.0195
47.6000 15.8512 -0.0259
47.6200 15.8578 -0.0268
47.6400 15.8644 -0.0251
47.6600 15.8711 -0.0254
47.6800 15.8778 -0.0246
47.7000 15.8845 -0.0286
47.7200 15.8911 -0.0234
47.7400 15.8978 -0.0231
47.7600 15.9045 -0.0352
47.7800 15.9111 -0.0285
47.8000 15.9177 -0.0206
47.8200 15.9243 -0.0277
47.8400 15.9310 -0.0250
47.8600 15.9377 -0.0261
47.8800 15.9444 -0.0277
47.9000 15.9511 -0.0261
47.9200 15.9578 -0.0216
47.9400 15.9644 -0.0342
47.9600 15.9711 -0.0235
47.9800 15.9777 -0.0246
48.0000 15.9843 -0.0324
48.0200 15.9910 -0.0251
48.0400 15.9977 -0.0208
48.0600 16.0044 -0.0346
48.0800 16.0111 -0.0251
48.1000 16.0178 -0.0239
48.1200 16.0245 -0.0339
48.1400 16.0311 -0.0249
48.1600 16.0377 -0.0269
48.1800 16.0444 -0.0350
48.2000 16.0510 -0.0200
48.2200 16.0578 -0.0281
48.2400 16.0645 -0.0333
48.2600 16.0711 -0.0227
48.2800 16.0778 -0.0288
48.3000 16.0845 -0.0275
48.3200 16.0911 -0.0264
48.3400 16.0977 -0.0302
48.3600 16.1044 -0.0279
48.3800 16.1110 -0.0267
48.4000 16.1178 -0.0327
48.4200 16.1245 -0.0256
48.4400 16.1311 -0.0300
48.4600 16.1378 -0.0277
48.4800 16.1445 -0.0279
48.5000 16.1512 -0.0312
48.5200 16.1578 -0.0238
48.5400 16.1644 -0.0244
48.5600 16.1711 -0.0375
48.5800 16.1777 -0.0254
48.6000 16.1844 -0.0295
48.6200 16.1911 -0.0294
48.6400 16.1978 -0.0260
48.6600 16.2045 -0.0291
48.6800 16.2111 -0.0355
48.7000 16.2177 -0.0260
48.7200 16.2243 -0.0282
48.7400 16.2310 -0.0248
48.7600 16.2377 -0.0236
48.7800 16.2444 -0.0313
48.8000 16.2511 -0.0300
48.8200 16.2578 -0.0249
48.8400 16.2644 -0.0295
48.8600 16.2711 -0.0258
48.8800 16.2777 -0.0271
48.9000 16.2844 -0.0343
48.9200 16.2910 -0.0232
48.9400 16.2977 -0.0291
48.9600 16.3044 -0.0319
48.9800 16.3111 -0.0216
49.0000 16.3178 -0.0266
49.0200 16.3245 -0.0327
49.0400 16.3312 -0.0166
49.0600 16.3378 -0.0310
49.0800 16.3444 -0.0259
49.1000 16.3510 -0.0200
49.1200 16.3577 -0.0328
49.1400 16.3644 -0.0253
49.1600 16.3711 -0.0155
49.1800 16.3778 -0.0370
49.2000 16.3845 -0.0208
49.2200 16.3912 -0.0218
49.2400 16.3977 -0.0363
49.2600 16.4044 -0.0142
49.2800 16.4110 -0.0214
49.3000 16.4177 -0.0355
49.3200 16.4245 -0.0128
49.3400 16.4311 -0.0244
49.3600 16.4378 -0.0337
49.3800 16.4445 -0.0122
49.4000 16.4511 -0.0266
49.4200 16.4577 -0.0323
49.4400 16.4643 -0.0126
49.4600 16.4710 -0.0228
49.4800 16.4777 -0.0297
49.5000 16.4844 -0.0125
49.5200 16.4911 -0.0311
49.5400 16.4977 -0.0269
49.5600 16.5044 -0.0159
49.5800 16.5111 -0.0312
49.6000 16.5177 -0.0222
49.6200 16.5244 -0.0177
49.6400 16.5310 -0.0286
49.6600 16.5377 -0.0247
49.6800 16.5444 -0.0206
49.7000 16.5511 -0.0252
49.7200 16.5578 -0.0216
49.7400 16.5645 -0.0239
49.7600 16.5712 -0.0289
49.7800 16.5778 -0.0232
49.8000 16.5844 -0.0274
49.8200 16.5910 -0.0239
49.8400 16.5978 -0.0235
49.8600 16.6045 -0.0300
49.8800 16.6112 -0.0216
49.9000 16.6178 -0.0278
49.9200 16.6245 -0.0304
49.9400 16.6311 -0.0214
49.9600 16.6378 -0.0289
49.9800 16.6444 -0.0300
50.0000 16.6510 -0.0199
50.0200 16.6577 -0.0289
50.0400 16.6644 -0.0275
50.0600 16.6711 -0.0246
50.0800 16.6778 -0.0315
50.1000 16.6845 -0.0272
50.1200 16.6911 -0.0211
50.1400 16.6977 -0.0400
50.1600 16.7043 -0.0214
50.1800 16.7110 -0.0257
50.2000 16.7177 -0.0365
50.2200 16.7244 -0.0266
50.2400 16.7311 -0.0274
50.2600 16.7378 -0.0361
50.2800 16.7445 -0.0227
50.3000 16.7511 -0.0326
50.3200 16.7577 -0.0337
50.3400 16.7644 -0.0267
50.3600 16.7710 -0.0330
50.3800 16.7777 -0.0372
50.4000 16.7844 -0.0232
50.4200 16.7911 -0.0345
50.4400 16.7978 -0.0389
50.4600 16.8045 -0.0235
50.4800 16.8112 -0.0337
50.5000 16.8178 -0.0358
50.5200 16.8244 -0.0247
50.5400 16.8310 -0.0368
50.5600 16.8377 -0.0327
50.5800 16.8444 -0.0257
50.6000 16.8511 -0.0371
50.6200 16.8578 -0.0317
50.6400 16.8645 -0.0283
50.6600 16.8712 -0.0361
50.6800 16.8778 -0.0362
50.7000 16.8844 -0.0284
50.7200 16.8910 -0.0360
50.7400 16.8977 -0.0361
50.7600 16.9044 -0.0346
50.7800 16.9111 -0.0343
50.8000 16.9178 -0.0335
50.8200 16.9245 -0.0274
50.8400 16.9311 -0.0404
50.8600 16.9377 -0.0330
50.8800 16.9443 -0.0310
50.9000 16.9510 -0.0339
50.9200 16.9577 -0.0328
50.9400 16.9644 -0.0294
50.9600 16.9711 -0.0377
50.9800 16.9777 -0.0339
51.0000 16.9844 -0.0263
51.0200 16.9911 -0.0385
51.0400 16.9977 -0.0351
51.0600 17.0044 -0.0317
51.0800 17.0110 -0.0347
51.1000 17.0177 -0.0368
51.1200 17.0245 -0.0286
51.1400 17.0312 -0.0355
51.1600 17.0378 -0.0382
51.1800 17.0445 -0.0286
51.2000 17.0512 -0.0361
51.2200 17.0578 -0.0352
51.2400 17.0644 -0.0306
51.2600 17.0710 -0.0378
51.2800 17.0777 -0.0355
51.3000 17.0844 -0.0305
51.3200 17.0912 -0.0318
51.3400 17.0978 -0.0414
51.3600 17.1045 -0.0269
51.3800 17.1112 -0.0393
51.4000 17.1178 -0.0376
51.4200 17.1244 -0.0264
51.4400 17.1310 -0.0365
51.4600 17.1377 -0.0412
51.4800 17.1444 -0.0310
51.5000 17.1511 -0.0389
51.5200 17.1578 -0.0361
51.5400 17.1645 -0.0299
51.5600 17.1712 -0.0399
51.5800 17.1778 -0.0377
51.6000 17.1844 -0.0301
51.6200 17.1910 -0.0417
51.6400 17.1977 -0.0400
51.6600 17.2044 -0.0320
51.6800 17.2111 -0.0398
51.7000 17.2177 -0.0389
51.7200 17.2244 -0.0338
51.7400 17.2311 -0.0381
51.7600 17.2377 -0.0409
51.7800 17.2444 -0.0328
51.8000 17.2510 -0.0403
51.8200 17.2577 -0.0360
51.8400 17.2645 -0.0420
51.8600 17.2712 -0.0410
51.8800 17.2778 -0.0337
51.9000 17.2845 -0.0359
51.9200 17.2912 -0.0459
51.9400 17.2978 -0.0325
51.9600 17.3044 -0.0344
51.9800 17.3110 -0.0414
52.0000 17.3177 -0.0349
52.0200 17.3245 -0.0361
52.0400 17.3312 -0.0438
52.0600 17.3378 -0.0354
52.0800 17.3445 -0.0421
52.1000 17.3511 -0.0433
52.1200 17.3578 -0.0315
52.1400 17.3644 -0.0436
52.1600 17.3710 -0.0487
52.1800 17.3777 -0.0312
52.2000 17.3844 -0.0404
52.2200 17.3911 -0.0472
52.2400 17.3978 -0.0274
52.2600 17.4044 -0.0443
52.2800 17.4111 -0.0506
52.3000 17.4178 -0.0320
52.3200 17.4244 -0.0405
52.3400 17.4310 -0.0450
52.3600 17.4377 -0.0266
52.3800 17.4444 -0.0441
52.4000 17.4511 -0.0462
52.4200 17.4578 -0.0326
52.4400 17.4645 -0.0449
52.4600 17.4711 -0.0460
52.4800 17.4778 -0.0336
52.5000 17.4844 -0.0526
52.5200 17.4911 -0.0380
52.5400 17.4977 -0.0336
52.5600 17.5044 -0.0552
52.5800 17.5111 -0.0415
52.6000 17.5178 -0.0338
52.6200 17.5245 -0.0528
52.6400 17.5312 -0.0380
52.6600 17.5378 -0.0390
52.6800 17.5444 -0.0509
52.7000 17.5510 -0.0351
52.7200 17.5577 -0.0398
52.7400 17.5644 -0.0510
52.7600 17.5711 -0.0401
52.7800 17.5778 -0.0438
52.8000 17.5845 -0.0510
52.8200 17.5912 -0.0362
52.8400 17.5978 -0.0420
52.8600 17.6044 -0.0484
52.8800 17.6110 -0.0374
52.9000 17.6177 -0.0416
52.9200 17.6244 -0.0509
52.9400 17.6311 -0.0340
52.9600 17.6378 -0.0487
52.9800 17.6445 -0.0517
53.0000 17.6511 -0.0366
53.0200 17.6578 -0.0462
53.0400 17.6644 -0.0468
53.0600 17.6710 -0.0392
53.0800 17.6777 -0.0449
53.1000 17.6844 -0.0482
53.1200 17.6911 -0.0445
53.1400 17.6978 -0.0441
53.1600 17.7044 -0.0466
53.1800 17.7111 -0.0373
53.2000 17.7178 -0.0451
53.2200 17.7244 -0.0526
53.2400 17.7310 -0.0383
53.2600 17.7377 -0.0397
53.2800 17.7444 -0.0507
53.3000 17.7511 -0.0435
53.3200 17.7578 -0.0402
53.3400 17.7645 -0.0507
53.3600 17.7712 -0.0439
53.3800 17.7778 -0.0422
53.4000 17.7844 -0.0466
53.4200 17.7910 -0.0409
53.4400 17.7977 -0.0405
53.4600 17.8044 -0.0544
53.4800 17.8112 -0.0367
53.5000 17.8179 -0.0421
53.5200 17.8245 -0.0530
53.5400 17.8312 -0.0416
53.5600 17.8378 -0.0408
53.5800 17.8444 -0.0545
53.6000 17.8510 -0.0336
53.6200 17.8577 -0.0417
53.6400 17.8644 -0.0552
53.6600 17.8711 -0.0420
53.6800 17.8777 -0.0450
53.7000 17.8844 -0.0519
53.7200 17.8911 -0.0358
53.7400 17.8978 -0.0477
53.7600 17.9044 -0.0520
53.7800 17.9110 -0.0416
53.8000 17.9176 -0.0463
53.8200 17.9243 -0.0423
53.8400 17.9310 -0.0424
53.8600 17.9377 -0.0469
53.8800 17.9444 -0.0424
53.9000 17.9511 -0.0420
53.9200 17.9578 -0.0467
53.9400 17.9644 -0.0433
53.9600 17.9710 -0.0426
53.9800 17.9777 -0.0472
54.0000 17.9844 -0.0445
54.0200 17.9911 -0.0482
54.0400 17.9978 -0.0466
54.0600 18.0045 -0.0400
54.0800 18.0112 -0.0530
54.1000 18.0178 -0.0445
54.1200 18.0244 -0.0442
54.1400 18.0311 -0.0491
54.1600 18.0377 -0.0458
54.1800 18.0444 -0.0458
54.2000 18.0511 -0.0469
54.2200 18.0578 -0.0401
54.2400 18.0645 -0.0474
54.2600 18.0712 -0.0463
54.2800 18.0778 -0.0456
54.3000 18.0844 -0.0498
54.3200 18.0910 -0.0465
54.3400 18.0977 -0.0404
54.3600 18.1044 -0.0520
54.3800 18.1111 -0.0479
54.4000 18.1178 -0.0437
54.4200 18.1245 -0.0526
54.4400 18.1311 -0.0457
54.4600 18.1378 -0.0479
54.4800 18.1444 -0.0505
54.5000 18.1510 -0.0425
54.5200 18.1576 -0.0450
54.5400 18.1644 -0.0504
54.5600 18.1711 -0.0409
54.5800 18.1778 -0.0524
54.6000 18.1844 -0.0479
54.6200 18.1911 -0.0431
54.6400 18.1978 -0.0562
54.6600 18.2044 -0.0481
54.6800 18.2111 -0.0392
54.7000 18.2177 -0.0526
54.7200 18.2244 -0.0480
54.7400 18.2311 -0.0463
54.7600 18.2378 -0.0502
54.7800 18.2445 -0.0496
54.8000 18.2512 -0.0439
54.8200 18.2579 -0.0536
54.8400 18.2644 -0.0493
54.8600 18.2710 -0.0462
54.8800 18.2777 -0.0511
54.9000 18.2844 -0.0509
54.9200 18.2911 -0.0502
54.9400 18.2978 -0.0505
54.9600 18.3045 -0.0489
54.9800 18.3112 -0.0487
55.0000 18.3178 -0.0474
55.0200 18.3244 -0.0534
55.0400 18.3311 -0.0470
55.0600 18.3377 -0.0441
55.0800 18.3444 -0.0569
55.1000 18.3511 -0.0479
55.1200 18.3578 -0.0497
55.1400 18.3644 -0.0560
55.1600 18.3711 -0.0457
55.1800 18.3778 -0.0441
55.2000 18.3844 -0.0635
55.2200 18.3910 -0.0434
55.2400 18.3976 -0.0451
55.2600 18.4043 -0.0579
55.2800 18.4111 -0.0495
55.3000 18.4178 -0.0463
55.3200 18.4245 -0.0603
55.3400 18.4311 -0.0449
55.3600 18.4378 -0.0555
55.3800 18.4444 -0.0568
55.4000 18.4510 -0.0412
55.4200 18.4577 -0.0547
55.4400 18.4644 -0.0601
55.4600 18.4711 -0.0458
55.4800 18.4778 -0.0526
55.5000 18.4845 -0.0574
55.5200 18.4912 -0.0483
55.5400 18.4978 -0.0537
55.5600 18.5044 -0.0501
55.5800 18.5111 -0.0501
55.6000 18.5177 -0.0588
55.6200 18.5244 -0.0505
55.6400 18.5311 -0.0552
55.6600 18.5378 -0.0555
55.6800 18.5445 -0.0475
55.7000 18.5511 -0.0558
55.7200 18.5578 -0.0585
55.7400 18.5644 -0.0545
55.7600 18.5710 -0.0546
55.7800 18.5776 -0.0499
55.8000 18.5843 -0.0509
55.8200 18.5911 -0.0625
55.8400 18.5978 -0.0484
55.8600 18.6045 -0.0516
55.8800 18.6111 -0.0576
55.9000 18.6178 -0.0492
55.9200 18.6244 -0.0550
55.9400 18.6310 -0.0564
55.9600 18.6377 -0.0482
55.9800 18.6444 -0.0604
56.0000 18.6511 -0.0546
56.0200 18.6578 -0.0458
56.0400 18.6645 -0.0651
56.0600 18.6711 -0.0568
56.0800 18.6778 -0.0442
56.1000 18.6844 -0.0632
56.1200 18.6910 -0.0504
56.1400 18.6977 -0.0474
56.1600 18.7044 -0.0623
56.1800 18.7111 -0.0431
56.2000 18.7178 -0.0563
56.2200 18.7245 -0.0583
56.2400 18.7312 -0.0378
56.2600 18.7378 -0.0578
56.2800 18.7445 -0.0598
56.3000 18.7511 -0.0354
56.3200 18.7577 -0.0623
56.3400 18.7644 -0.0551
56.3600 18.7711 -0.0381
56.3800 18.7778 -0.0638
56.4000 18.7845 -0.0510
56.4200 18.7912 -0.0388
56.4400 18.7979 -0.0705
56.4600 18.8045 -0.0445
56.4800 18.8110 -0.0393
56.5000 18.8177 -0.0675
56.5200 18.8244 -0.0425
56.5400 18.8311 -0.0408
56.5600 18.8378 -0.0686
56.5800 18.8444 -0.0349
56.6000 18.8511 -0.0502
56.6200 18.8578 -0.0668
56.6400 18.8644 -0.0369
56.6600 18.8710 -0.0525
56.6800 18.8777 -0.0624
56.7000 18.8843 -0.0340
56.7200 18.8911 -0.0568
56.7400 18.8977 -0.0607
56.7600 18.9044 -0.0378
56.7800 18.9111 -0.0605
56.8000 18.9178 -0.0512
56.8200 18.9244 -0.0408
56.8400 18.9311 -0.0599
56.8600 18.9377 -0.0519
56.8800 18.9444 -0.0422
56.9000 18.9511 -0.0581
56.9200 18.9578 -0.0471
56.9400 18.9645 -0.0412
56.9600 18.9712 -0.0555
56.9800 18.9778 -0.0504
57.0000 18.9845 -0.0465
57.0200 18.9911 -0.0505
57.0400 18.9977 -0.0429
57.0600 19.0044 -0.0515
57.0800 19.0111 -0.0484
57.1000 19.0178 -0.0475
57.1200 19.0245 -0.0503
57.1400 19.0312 -0.0475
57.1600 19.0378 -0.0477
57.1800 19.0445 -0.0492
57.2000 19.0511 -0.0411
57.2200 19.0577 -0.0513
57.2400 19.0644 -0.0500
57.2600 19.0711 -0.0373
57.2800 19.0778 -0.0596
57.3000 19.0844 -0.0466
57.3200 19.0911 -0.0350
57.3400 19.0978 -0.0589
57.3600 19.1045 -0.0448
57.3800 19.1110 -0.0382
57.4000 19.1176 -0.0573
57.4200 19.1243 -0.0423
57.4400 19.1310 -0.0367
57.4600 19.1377 -0.0611
57.4800 19.1444 -0.0447
57.5000 19.1511 -0.0364
57.5200 19.1578 -0.0637
57.5400 19.1644 -0.0370
57.5600 19.1710 -0.0396
57.5800 19.1777 -0.0655
57.6000 19.1844 -0.0375
57.6200 19.1911 -0.0435
57.6400 19.1978 -0.0665
57.6600 19.2045 -0.0342
57.6800 19.2112 -0.0461
57.7000 19.2178 -0.0617
57.7200 19.2245 -0.0401
57.7400 19.2311 -0.0448
57.7600 19.2377 -0.0611
57.7800 19.2444 -0.0388
57.8000 19.2511 -0.0495
57.8200 19.2578 -0.0627
57.8400 19.2645 -0.0388
57.8600 19.2712 -0.0514
57.8800 19.2778 -0.0600
57.9000 19.2845 -0.0435
57.9200 19.2911 -0.0495
57.9400 19.2977 -0.0567
57.9600 19.3043 -0.0437
57.9800 19.3110 -0.0526
58.0000 19.3178 -0.0590
58.0200 19.3244 -0.0503
58.0400 19.3311 -0.0542
58.0600 19.3378 -0.0583
58.0800 19.3444 -0.0481
58.1000 19.3510 -0.0595
58.1200 19.3577 -0.0561
58.1400 19.3644 -0.0499
58.1600 19.3711 -0.0546
58.1800 19.3778 -0.0593
58.2000 19.3845 -0.0526
58.2200 19.3911 -0.0587
58.2400 19.3978 -0.0580
58.2600 19.4044 -0.0537
58.2800 19.4111 -0.0608
58.3000 19.4177 -0.0578
58.3200 19.4244 -0.0563
58.3400 19.4311 -0.0649
58.3600 19.4378 -0.0558
58.3800 19.4445 -0.0585
58.4000 19.4511 -0.0591
58.4200 19.4578 -0.0550
58.4400 19.4645 -0.0638
58.4600 19.4711 -0.0606
58.4800 19.4777 -0.0505
58.5000 19.4843 -0.0603
58.5200 19.4911 -0.0659
58.5400 19.4978 -0.0541
58.5600 19.5045 -0.0625
58.5800 19.5111 -0.0647
58.6000 19.5178 -0.0559
58.6200 19.5244 -0.0595
58.6400 19.5310 -0.0628
58.6600 19.5377 -0.0508
58.6800 19.5443 -0.0626
58.7000 19.5511 -0.0600
58.7200 19.5578 -0.0530
58.7400 19.5645 -0.0629
58.7600 19.5711 -0.0618
58.7800 19.5778 -0.0509
58.8000 19.5845 -0.0625
58.8200 19.5911 -0.0606
58.8400 19.5977 -0.0477
58.8600 19.6043 -0.0614
58.8800 19.6110 -0.0604
58.9000 19.6177 -0.0470
58.9200 19.6244 -0.0679
58.9400 19.6311 -0.0523
58.9600 19.6378 -0.0479
58.9800 19.6445 -0.0666
59.0000 19.6511 -0.0556
59.0200 19.6577 -0.0456
59.0400 19.6644 -0.0626
59.0600 19.6711 -0.0532
59.0800 19.6778 -0.0455
59.1000 19.6845 -0.0685
59.1200 19.6912 -0.0514
59.1400 19.6978 -0.0541
59.1600 19.7045 -0.0670
59.1800 19.7111 -0.0476
59.2000 19.7177 -0.0542
59.2200 19.7244 -0.0657
59.2400 19.7311 -0.0492
59.2600 19.7378 -0.0543
59.2800 19.7445 -0.0596
59.3000 19.7511 -0.0561
59.3200 19.7578 -0.0550
59.3400 19.7645 -0.0652
59.3600 19.7711 -0.0560
59.3800 19.7777 -0.0549
59.4000 19.7843 -0.0597
59.4200 19.7910 -0.0540
59.4400 19.7978 -0.0618
59.4600 19.8045 -0.0630
59.4800 19.8112 -0.0574
59.5000 19.8178 -0.0575
59.5200 19.8245 -0.0640
59.5400 19.8311 -0.0621
59.5600 19.8376 -0.0544
59.5800 19.8443 -0.0641
59.6000 19.8510 -0.0606
59.6200 19.8577 -0.0559
59.6400 19.8644 -0.0640
59.6600 19.8711 -0.0656
59.6800 19.8778 -0.0606
59.7000 19.8845 -0.0594
59.7200 19.8911 -0.0632
59.7400 19.8977 -0.0558
59.7600 19.9044 -0.0597
59.7800 19.9111 -0.0639
59.8000 19.9178 -0.0593
59.8200 19.9245 -0.0574
59.8400 19.9312 -0.0632
59.8600 19.9379 -0.0588
59.8800 19.9445 -0.0608
59.9000 19.9512 -0.0600
59.9200 19.9577 -0.0617
59.9400 19.9644 -0.0537
59.9600 19.9711 -0.0624
59.9800 19.9778 -0.0585
60.0000 19.9845 -0.0571
60.0200 19.9912 -0.0627
60.0400 19.9978 -0.0578
60.0600 20.0045 -0.0543
60.0800 20.0111 -0.0662
60.1000 20.0177 -0.0621
60.1200 20.0243 -0.0525
60.1400 20.0310 -0.0634
60.1600 20.0378 -0.0588
60.1800 20.0445 -0.0536
60.2000 20.0511 -0.0664
60.2200 20.0578 -0.0590
60.2400 20.0645 -0.0501
60.2600 20.0711 -0.0688
60.2800 20.0777 -0.0544
60.3000 20.0843 -0.0537
60.3200 20.0910 -0.0710
60.3400 20.0978 -0.0566
60.3600 20.1044 -0.0475
60.3800 20.1111 -0.0753
60.4000 20.1178 -0.0554
60.4200 20.1245 -0.0553
60.4400 20.1311 -0.0749
60.4600 20.1377 -0.0494
60.4800 20.1443 -0.0534
60.5000 20.1510 -0.0735
60.5200 20.1577 -0.0486
60.5400 20.1644 -0.0608
60.5600 20.1711 -0.0732
60.5800 20.1778 -0.0502
60.6000 20.1845 -0.0604
60.6200 20.1911 -0.0738
60.6400 20.1977 -0.0469
60.6600 20.2044 -0.0612
60.6800 20.2111 -0.0702
60.7000 20.2178 -0.0476
60.7200 20.2245 -0.0690
60.7400 20.2312 -0.0681
60.7600 20.2378 -0.0449
60.7800 20.2445 -0.0727
60.8000 20.2511 -0.0706
60.8200 20.2577 -0.0494
60.8400 20.2644 -0.0693
60.8600 20.2711 -0.0689
60.8800 20.2778 -0.0567
60.9000 20.2844 -0.0688
60.9200 20.2911 -0.0681
60.9400 20.2978 -0.0593
60.9600 20.3045 -0.0713
60.9800 20.3111 -0.0650
61.0000 20.3177 -0.0623
61.0200 20.3243 -0.0688
61.0400 20.3310 -0.0640
61.0600 20.3377 -0.0603
61.0800 20.3444 -0.0720
61.1000 20.3511 -0.0614
61.1200 20.3578 -0.0635
61.1400 20.3644 -0.0671
61.1600 20.3711 -0.0667
61.1800 20.3777 -0.0606
61.2000 20.3844 -0.0452
61.2200 20.3911 -0.0113
61.2400 20.3978 0.0171
61.2600 20.4045 0.0485
61.2800 20.4112 0.0738
61.3000 20.4178 0.0939
61.3200 20.4245 0.1254
61.3400 20.4311 0.1519
61.3600 20.4377 0.1797
61.3800 20.4444 0.2070
61.4000 20.4510 0.2312
61.4200 20.4578 0.2597
61.4400 20.4645 0.2883
61.4600 20.4711 0.3090
61.4800 20.4778 0.3341
61.5000 20.4845 0.3533
61.5200 20.4911 0.3766
61.5400 20.4977 0.4021
61.5600 20.5043 0.4279
61.5800 20.5110 0.4452
61.6000 20.5177 0.4774
61.6200 20.5244 0.4752
61.6400 20.5311 0.4607
61.6600 20.5378 0.4650
61.6800 20.5445 0.4515
61.7000 20.5511 0.4469
61.7200 20.5577 0.4622
61.7400 20.5643 0.4509
61.7600 20.5710 0.4427
61.7800 20.5777 0.4546
61.8000 20.5844 0.4456
61.8200 20.5911 0.4396
61.8400 20.5977 0.4555
61.8600 20.6044 0.4445
61.8800 20.6111 0.4452
61.9000 20.6177 0.4552
61.9200 20.6244 0.4478
61.9400 20.6310 0.4515
61.9600 20.6377 0.4503
61.9800 20.6444 0.4473
62.0000 20.6511 0.4488
62.0200 20.6578 0.4560
62.0400 20.6645 0.4462
62.0600 20.6712 0.4477
62.0800 20.6778 0.4534
62.1000 20.6844 0.4538
62.1200 20.6911 0.4452
62.1400 20.6978 0.4515
62.1600 20.7045 0.4473
62.1800 20.7112 0.4439
62.2000 20.7178 0.4472
62.2200 20.7245 0.4537
62.2400 20.7311 0.4439
62.2600 20.7377 0.4482
62.2800 20.7443 0.4461
62.3000 20.7510 0.4428
62.3200 20.7577 0.4469
62.3400 20.7644 0.4530
62.3600 20.7711 0.4388
62.3800 20.7777 0.4458
62.4000 20.7844 0.4495
62.4200 20.7911 0.4382
62.4400 20.7977 0.4461
62.4600 20.8043 0.4484
62.4800 20.8110 0.4374
62.5000 20.8177 0.4423
62.5200 20.8244 0.4480
62.5400 20.8311 0.4331
62.5600 20.8378 0.4483
62.5800 20.8445 0.4425
62.6000 20.8512 0.4311
62.6200 20.8578 0.4416
62.6400 20.8644 0.4452
62.6600 20.8710 0.4381
62.6800 20.8777 0.4414
62.7000 20.8845 0.4396
62.7200 20.8912 0.4408
62.7400 20.8978 0.4397
62.7600 20.9045 0.4388
62.7800 20.9111 0.4370
62.8000 20.9177 0.4425
62.8200 20.9244 0.4380
62.8400 20.9310 0.4357
62.8600 20.9377 0.4383
62.8800 20.9444 0.4376
62.9000 20.9511 0.4396
62.9200 20.9578 0.4356
62.9400 20.9645 0.4303
62.9600 20.9712 0.4422
62.9800 20.9778 0.4331
63.0000 20.9844 0.4341
63.0200 20.9910 0.4416
63.0400 20.9977 0.4344
63.0600 21.0044 0.4299
63.0800 21.0111 0.4416
63.1000 21.0178 0.4372
63.1200 21.0245 0.4303
63.1400 21.0312 0.4379
63.1600 21.0377 0.4259
63.1800 21.0443 0.4335
63.2000 21.0510 0.4398
63.2200 21.0577 0.4261
63.2400 21.0644 0.4365
63.2600 21.0711 0.4365
63.2800 21.0778 0.4236
63.3000 21.0844 0.4397
63.3200 21.0911 0.4307
63.3400 21.0977 0.4218
63.3600 21.1044 0.4387
63.3800 21.1110 0.4289
63.4000 21.1177 0.4170
63.4200 21.1244 0.4390
63.4400 21.1311 0.4238
63.4600 21.1378 0.4207
63.4800 21.1445 0.4356
63.5000 21.1511 0.4186
63.5200 21.1578 0.4228
63.5400 21.1644 0.4340
63.5600 21.1710 0.4171
63.5800 21.1777 0.4235
63.6000 21.1844 0.4322
63.6200 21.1911 0.4126
63.6400 21.1978 0.4243
63.6600 21.2045 0.4305
63.6800 21.2112 0.4110
63.7000 21.2178 0.4229
63.7200 21.2244 0.4295
63.7400 21.2310 0.4129
63.7600 21.2377 0.4274
63.7800 21.2444 0.4214
63.8000 21.2511 0.4155
63.8200 21.2578 0.4255
63.8400 21.2645 0.4168
63.8600 21.2711 0.4115
63.8800 21.2777 0.4257
63.9000 21.2844 0.4160
63.9200 21.2910 0.4134
63.9400 21.2977 0.4253
63.9600 21.3044 0.4144
63.9800 21.3111 0.4114
64.0000 21.3177 0.4239
64.0200 21.3244 0.4098
64.0400 21.3311 0.4124
64.0600 21.3378 0.4171
64.0800 21.3444 0.4100
64.1000 21.3510 0.4168
64.1200 21.3577 0.4144
64.1400 21.3644 0.4076
64.1600 21.3711 0.4188
64.1800 21.3778 0.4099
64.2000 21.3845 0.4082
64.2200 21.3912 0.4188
64.2400 21.3978 0.4081
64.2600 21.4044 0.4107
64.2800 21.4110 0.4157
64.3000 21.4177 0.4082
64.3200 21.4245 0.4147
64.3400 21.4312 0.4180
64.3600 21.4378 0.4036
64.3800 21.4445 0.4171
64.4000 21.4511 0.4112
64.4200 21.4577 0.4057
64.4400 21.4644 0.4171
64.4600 21.4710 0.4109
64.4800 21.4777 0.4080
64.5000 21.4844 0.4150
64.5200 21.4911 0.4058
64.5400 21.4978 0.4149
64.5600 21.5044 0.4150
64.5800 21.5111 0.4056
64.6000 21.5178 0.4122
64.6200 21.5243 0.4146
64.6400 21.5310 0.4039
64.6600 21.5377 0.4150
64.6800 21.5444 0.4088
64.7000 21.5511 0.4039
64.7200 21.5578 0.4199
64.7400 21.5645 0.4063
64.7600 21.5711 0.4033
64.7800 21.5778 0.4161
64.8000 21.5844 0.4059
64.8200 21.5910 0.4071
64.8400 21.5977 0.4143
64.8600 21.6044 0.4072
64.8800 21.6111 0.4133
64.9000 21.6178 0.4080
64.9200 21.6245 0.4023
64.9400 21.6312 0.4122
64.9600 21.6378 0.4083
64.9800 21.6444 0.3964
65.0000 21.6511 0.4162
65.0200 21.6577 0.4096
65.0400 21.6644 0.4024
65.0600 21.6711 0.4083
65.0800 21.6778 0.4089
65.1000 21.6845 0.3999
65.1200 21.6912 0.4041
65.1400 21.6978 0.4068
65.1600 21.7044 0.4031
65.1800 21.7110 0.4014
65.2000 21.7177 0.4084
65.2200 21.7244 0.4022
65.2400 21.7311 0.3968
65.2600 21.7378 0.4080
65.2800 21.7445 0.4021
65.3000 21.7511 0.3943
65.3200 21.7577 0.4101
65.3400 21.7643 0.4017
65.3600 21.7710 0.3949
65.3800 21.7777 0.4092
65.4000 21.7844 0.3990
65.4200 21.7911 0.4012
65.4400 21.7977 0.4072
65.4600 21.8044 0.3983
65.4800 21.8111 0.4010
65.5000 21.8177 0.4077
65.5200 21.8244 0.3962
65.5400 21.8310 0.4050
65.5600 21.8377 0.4040
65.5800 21.8444 0.3936
65.6000 21.8512 0.3996
65.6200 21.8578 0.4049
65.6400 21.8645 0.3928
65.6600 21.8712 0.4026
65.6800 21.8778 0.3984
65.7000 21.8844 0.3933
65.7200 21.8910 0.4021
65.7400 21.8977 0.4013
65.7600 21.9045 0.3949
65.7800 21.9112 0.3983
65.8000 21.9178 0.4017
65.8200 21.9245 0.3997
65.8400 21.9312 0.3945
65.8600 21.9378 0.3990
65.8800 21.9444 0.3964
65.9000 21.9510 0.3956
65.9200 21.9577 0.4014
65.9400 21.9644 0.3958
65.9600 21.9711 0.3929
65.9800 21.9778 0.3993
66.0000 21.9845 0.3984
66.0200 21.9911 0.3911
66.0400 21.9978 0.4040
66.0600 22.0044 0.3946
66.0800 22.0110 0.3886
66.1000 22.0177 0.3999
66.1200 22.0244 0.3950
66.1400 22.0311 0.3857
66.1600 22.0377 0.4013
66.1800 22.0444 0.3924
66.2000 22.0511 0.3895
66.2200 22.0578 0.3943
66.2400 22.0644 0.3943
66.2600 22.0710 0.3890
66.2800 22.0777 0.3950
66.3000 22.0844 0.3920
66.3200 22.0911 0.3904
66.3400 22.0978 0.3904
66.3600 22.1045 0.3962
66.3800 22.1111 0.3910
66.4000 22.1178 0.3849
66.4200 22.1244 0.3972
66.4400 22.1310 0.3931
66.4600 22.1377 0.3872
66.4800 22.1444 0.3943
66.5000 22.1512 0.3871
66.5200 22.1578 0.3892
66.5400 22.1645 0.3942
66.5600 22.1711 0.3839
66.5800 22.1778 0.3906
66.6000 22.1844 0.3918
66.6200 22.1910 0.3825
66.6400 22.1977 0.3866
66.6600 22.2044 0.3921
66.6800 22.2111 0.3820
66.7000 22.2178 0.3887
66.7200 22.2245 0.3890
66.7400 22.2311 0.3811
66.7600 22.2378 0.3865
66.7800 22.2444 0.3881
66.8000 22.2510 0.3811
66.8200 22.2577 0.3870
66.8400 22.2644 0.3834
66.8600 22.2711 0.3850
66.8800 22.2778 0.3807
66.9000 22.2844 0.3844
66.9200 22.2911 0.3839
66.9400 22.2978 0.3809
66.9600 22.3044 0.3765
66.9800 22.3110 0.3839
67.0000 22.3177 0.3831
67.0200 22.3244 0.3748
67.0400 22.3311 0.3848
67.0600 22.3378 0.3825
67.0800 22.3445 0.3805
67.1000 22.3511 0.3786
67.1200 22.3578 0.3777
67.1400 22.3644 0.3771
67.1600 22.3710 0.3806
67.1800 22.3777 0.3793
67.2000 22.3844 0.3731
67.2200 22.3911 0.3750
67.2400 22.3978 0.3805
67.2600 22.4045 0.3739
67.2800 22.4112 0.3790
67.3000 22.4178 0.3741
67.3200 22.4244 0.3707
67.3400 22.4310 0.3766
67.3600 22.4377 0.3736
67.3800 22.4444 0.3723
67.4000 22.4511 0.3769
67.4200 22.4578 0.3708
67.4400 22.4645 0.3704
67.4600 22.4711 0.3771
67.4800 22.4778 0.3732
67.5000 22.4844 0.3662
67.5200 22.4910 0.3799
67.5400 22.4977 0.3752
67.5600 22.5044 0.3643
67.5800 22.5111 0.3768
67.6000 22.5177 0.3729
67.6200 22.5244 0.3641
67.6400 22.5311 0.3719
67.6600 22.5378 0.3747
67.6800 22.5444 0.3667
67.7000 22.5510 0.3743
67.7200 22.5577 0.3683
67.7400 22.5644 0.3635
67.7600 22.5711 0.3721
67.7800 22.5778 0.3707
67.8000 22.5845 0.3631
67.8200 22.5912 0.3706
67.8400 22.5978 0.3645
67.8600 22.6044 0.3637
67.8800 22.6110 0.3703
67.9000 22.6177 0.3671
67.9200 22.6244 0.3625
67.9400 22.6312 0.3711
67.9600 22.6378 0.3626
67.9800 22.6445 0.3626
68.0000 22.6512 0.3687
68.0200 22.6578 0.3636
68.0400 22.6644 0.3605
68.0600 22.6710 0.3671
68.0800 22.6777 0.3635
68.1000 22.6844 0.3605
68.1200 22.6911 0.3667
68.1400 22.6977 0.3582
68.1600 22.7044 0.3614
68.1800 22.7111 0.3647
68.2000 22.7178 0.3601
68.2200 22.7244 0.3613
68.2400 22.7310 0.3660
68.2600 22.7376 0.3616
68.2800 22.7443 0.3605
68.3000 22.7511 0.3647
68.3200 22.7577 0.3625
68.3400 22.7644 0.3570
68.3600 22.7711 0.3637
68.3800 22.7778 0.3623
68.4000 22.7844 0.3608
68.4200 22.7910 0.3619
68.4400 22.7977 0.3639
68.4600 22.8044 0.3542
68.4800 22.8111 0.3597
68.5000 22.8178 0.3618
68.5200 22.8245 0.3515
68.5400 22.8312 0.3577
68.5600 22.8378 0.3635
68.5800 22.8445 0.3465
68.6000 22.8511 0.3614
68.6200 22.8578 0.3627
68.6400 22.8644 0.3460
68.6600 22.8711 0.3608
68.6800 22.8778 0.3616
68.7000 22.8845 0.3411
68.7200 22.8912 0.3620
68.7400 22.8978 0.3588
68.7600 22.9044 0.3434
68.7800 22.9110 0.3609
68.8000 22.9176 0.3589
68.8200 22.9243 0.3451
68.8400 22.9311 0.3568
68.8600 22.9378 0.3546
68.8800 22.9444 0.3479
68.9000 22.9511 0.3571
68.9200 22.9578 0.3517
68.9400 22.9644 0.3490
68.9600 22.9710 0.3550
68.9800 22.9777 0.3560
69.0000 22.9844 0.3439
69.0200 22.9911 0.3557
69.0400 22.9977 0.3537
69.0600 23.0044 0.3472
69.0800 23.0111 0.3513
69.1000 23.0178 0.3507
69.1200 23.0244 0.3471
69.1400 23.0310 0.3538
69.1600 23.0377 0.3553
69.1800 23.0444 0.3462
69.2000 23.0511 0.3527
69.2200 23.0578 0.3540
69.2400 23.0645 0.3425
69.2600 23.0712 0.3531
69.2800 23.0778 0.3571
69.3000 23.0845 0.3413
69.3200 23.0910 0.3513
69.3400 23.0977 0.3562
69.3600 23.1044 0.3429
69.3800 23.1111 0.3510
69.4000 23.1178 0.3544
69.4200 23.1245 0.3402
69.4400 23.1312 0.3532
69.4600 23.1378 0.3474
69.4800 23.1444 0.3459
69.5000 23.1510 0.3535
69.5200 23.1577 0.3472
69.5400 23.1644 0.3444
69.5600 23.1711 0.3536
69.5800 23.1778 0.3429
69.6000 23.1844 0.3470
69.6200 23.1911 0.3489
69.6400 23.1978 0.3421
69.6600 23.2044 0.3424
69.6800 23.2110 0.3473
69.7000 23.2176 0.3440
69.7200 23.2243 0.3438
69.7400 23.2310 0.3411
69.7600 23.2377 0.3423
69.7800 23.2444 0.3435
69.8000 23.2511 0.3419
69.8200 23.2578 0.3410
69.8400 23.2644 0.3412
69.8600 23.2710 0.3407
69.8800 23.2777 0.3454
69.9000 23.2844 0.3392
69.9200 23.2911 0.3396
69.9400 23.2978 0.3421
69.9600 23.3045 0.3364
69.9800 23.3112 0.3417
70.0000 23.3178 0.3378
70.0200 23.3244 0.3387
70.0400 23.3310 0.3382
70.0600 23.3377 0.3358
70.0800 23.3444 0.3369
70.1000 23.3511 0.3409
70.1200 23.3578 0.3332
70.1400 23.3645 0.3358
70.1600 23.3711 0.3414
70.1800 23.3778 0.3357
70.2000 23.3844 0.3330
70.2200 23.3910 0.3449
70.2400 23.3977 0.3339
70.2600 23.4044 0.3354
70.2800 23.4111 0.3400
70.3000 23.4178 0.3349
70.3200 23.4245 0.3345
70.3400 23.4311 0.3363
70.3600 23.4378 0.3314
70.3800 23.4444 0.3383
70.4000 23.4510 0.3396
70.4200 23.4577 0.3342
70.4400 23.4643 0.3342
70.4600 23.4711 0.3373
70.4800 23.4778 0.3373
70.5000 23.4844 0.3350
70.5200 23.4911 0.3358
70.5400 23.4978 0.3338
70.5600 23.5044 0.3309
70.5800 23.5111 0.3313
70.6000 23.5177 0.3381
70.6200 23.5244 0.3340
70.6400 23.5311 0.3341
70.6600 23.5378 0.3257
70.6800 23.5445 0.3378
70.7000 23.5512 0.3314
70.7200 23.5578 0.3323
70.7400 23.5645 0.3364
70.7600 23.5711 0.3327
70.7800 23.5777 0.3294
70.8000 23.5844 0.3337
70.8200 23.5911 0.3365
70.8400 23.5978 0.3283
70.8600 23.6045 0.3300
70.8800 23.6112 0.3381
70.9000 23.6179 0.3267
70.9200 23.6245 0.3315
70.9400 23.6311 0.3354
70.9600 23.6377 0.3300
70.9800 23.6444 0.3281
71.0000 23.6511 0.3306
71.0200 23.6578 0.3288
71.0400 23.6644 0.3297
71.0600 23.6711 0.3319
71.0800 23.6778 0.3254
71.1000 23.6844 0.3290
71.1200 23.6911 0.3271
71.1400 23.6977 0.3264
71.1600 23.7044 0.3304
71.1800 23.7111 0.3275
71.2000 23.7178 0.3225
71.2200 23.7244 0.3286
71.2400 23.7311 0.3275
71.2600 23.7378 0.3248
71.2800 23.7444 0.3290
71.3000 23.7511 0.3240
71.3200 23.7577 0.3170
71.3400 23.7644 0.3351
71.3600 23.7711 0.3206
71.3800 23.7778 0.3195
71.4000 23.7845 0.3324
71.4200 23.7912 0.3172
71.4400 23.7978 0.3170
71.4600 23.8045 0.3328
71.4800 23.8111 0.3190
71.5000 23.8177 0.3202
71.5200 23.8244 0.3284
71.5400 23.8311 0.3220
71.5600 23.8378 0.3162
71.5800 23.8445 0.3303
71.6000 23.8511 0.3189
71.6200 23.8578 0.3153
71.6400 23.8645 0.3338
71.6600 23.8711 0.3120
71.6800 23.8777 0.3230
71.7000 23.8844 0.3300
71.7200 23.8911 0.3144
71.7400 23.8978 0.3149
71.7600 23.9044 0.3318
71.7800 23.9111 0.3125
71.8000 23.9178 0.3207
71.8200 23.9244 0.3246
71.8400 23.9311 0.3127
71.8600 23.9377 0.3213
71.8800 23.9443 0.3269
71.9000 23.9510 0.3117
71.9200 23.9577 0.3289
71.9400 23.9644 0.3176
71.9600 23.9711 0.3135
71.9800 23.9777 0.3244
72.0000 23.9844 0.3194
72.0200 23.9910 0.3152
72.0400 23.9977 0.3255
72.0600 24.0043 0.3201
72.0800 24.0111 0.3107
72.1000 24.0178 0.3242
72.1200 24.0245 0.3181
72.1400 24.0312 0.3138
72.1600 24.0379 0.3247
72.1800 24.0445 0.3134
72.2000 24.0511 0.3126
72.2200 24.0577 0.3251
72.2400 24.0644 0.3123
72.2600 24.0711 0.3114
72.2800 24.0778 0.3196
72.3000 24.0845 0.3166
72.3200 24.0911 0.3122
72.3400 24.0978 0.3208
72.3600 24.1045 0.3140
72.3800 24.1111 0.3170
72.4000 24.1177 0.3198
72.4200 24.1243 0.3137
72.4400 24.1310 0.3104
72.4600 24.1378 0.3191
72.4800 24.1444 0.3128
72.5000 24.1511 0.3110
72.5200 24.1578 0.3163
72.5400 24.1644 0.3141
72.5600 24.1710 0.3061
72.5800 24.1777 0.3197
72.6000 24.1843 0.3151
72.6200 24.1911 0.3054
72.6400 24.1978 0.3129
72.6600 24.2045 0.3076
72.6800 24.2111 0.3087
72.7000 24.2178 0.3230
72.7200 24.2244 0.3074
72.7400 24.2311 0.3066
72.7600 24.2377 0.3152
72.7800 24.2444 0.3073
72.8000 24.2511 0.3089
72.8200 24.2578 0.3166
72.8400 24.2645 0.3072
72.8600 24.2712 0.3038
72.8800 24.2778 0.3142
72.9000 24.2845 0.3092
72.9200 24.2911 0.3049
72.9400 24.2977 0.3101
72.9600 24.3043 0.3060
72.9800 24.3111 0.3088
73.0000 24.3178 0.3151
73.0200 24.3245 0.3019
73.0400 24.3312 0.3046
73.0600 24.3378 0.3109
73.0800 24.3445 0.3068
73.1000 24.3511 0.3014
73.1200 24.3577 0.3149
73.1400 24.3643 0.3041
73.1600 24.3710 0.3023
73.1800 24.3778 0.3095
73.2000 24.3844 0.3029
73.2200 24.3911 0.3021
73.2400 24.3978 0.3090
73.2600 24.4044 0.3036
73.2800 24.4111 0.2973
73.3000 24.4177 0.3117
73.3200 24.4243 0.3045
73.3400 24.4310 0.2988
73.3600 24.4377 0.3097
73.3800 24.4444 0.3048
73.4000 24.4511 0.2955
73.4200 24.4578 0.3099
73.4400 24.4645 0.2986
73.4600 24.4711 0.2980
73.4800 24.4777 0.3115
73.5000 24.4843 0.2972
73.5200 24.4910 0.2941
73.5400 24.4978 0.3140
73.5600 24.5045 0.2930
73.5800 24.5112 0.2978
73.6000 24.5178 0.3085
73.6200 24.5245 0.2940
73.6400 24.5311 0.2971
73.6600 24.5377 0.3121
73.6800 24.5444 0.2945
73.7000 24.5511 0.2985
73.7200 24.5578 0.3080
73.7400 24.5645 0.2900
73.7600 24.5711 0.2960
73.7800 24.5778 0.3048
73.8000 24.5845 0.2906
73.8200 24.5911 0.2956
73.8400 24.5977 0.2993
73.8600 24.6043 0.2969
73.8800 24.6110 0.3015
73.9000 24.6177 0.2979
73.9200 24.6245 0.2944
73.9400 24.6311 0.2950
73.9600 24.6378 0.3004
73.9800 24.6445 0.2913
74.0000 24.6511 0.2936
74.0200 24.6577 0.2980
74.0400 24.6643 0.2937
74.0600 24.6710 0.2896
74.0800 24.6777 0.3004
74.1000 24.6844 0.2948
74.1200 24.6911 0.2901
74.1400 24.6978 0.2941
74.1600 24.7045 0.2945
74.1800 24.7111 0.2870
74.2000 24.7177 0.3003
74.2200 24.7244 0.2943
74.2400 24.7311 0.2867
74.2600 24.7378 0.2962
74.2800 24.7445 0.2950
74.3000 24.7511 0.2844
74.3200 24.7578 0.2996
74.3400 24.7645 0.2943
74.3600 24.7712 0.2816
74.3800 24.7778 0.2995
74.4000 24.7844 0.2975
74.4200 24.7911 0.2844
74.4400 24.7978 0.2958
74.4600 24.8045 0.2917
74.4800 24.8112 0.2855
74.5000 24.8178 0.3027
74.5200 24.8245 0.2864
74.5400 24.8311 0.2868
74.5600 24.8377 0.3003
74.5800 24.8443 0.2844
74.6000 24.8510 0.2874
74.6200 24.8578 0.2996
74.6400 24.8645 0.2823
74.6600 24.8711 0.2893
74.6800 24.8778 0.2956
74.7000 24.8845 0.2874
74.7200 24.8911 0.2877
74.7400 24.8977 0.2955
74.7600 24.9044 0.2878
74.7800 24.9110 0.2875
74.8000 24.9178 0.2935
74.8200 24.9244 0.2873
74.8400 24.9311 0.2842
74.8600 24.9377 0.2996
74.8800 24.9444 0.2837
74.9000 24.9511 0.2846
74.9200 24.9577 0.2963
74.9400 24.9644 0.2854
74.9600 24.9710 0.2850
74.9800 24.9777 0.2946
75.0000 24.9844 0.2816
75.0200 24.9911 0.2830
75.0400 24.9978 0.3020
75.0600 25.0045 0.2750
75.0800 25.0111 0.2841
75.1000 25.0177 0.2986
75.1200 25.0243 0.2782
75.1400 25.0310 0.2894
75.1600 25.0378 0.2963
75.1800 25.0445 0.2730
75.2000 25.0512 0.2920
75.2200 25.0578 0.2895
75.2400 25.0645 0.2761
75.2600 25.0711 0.2883
75.2800 25.0777 0.2912
75.3000 25.0844 0.2724
75.3200 25.0911 0.2937
75.3400 25.0978 0.2875
75.3600 25.1044 0.2799
75.3800 25.1111 0.2859
75.4000 25.1178 0.2869
75.4200 25.1244 0.2820
75.4400 25.1311 0.2824
75.4600 25.1377 0.2891
75.4800 25.1443 0.2828
75.5000 25.1510 0.2851
75.5200 25.1577 0.2862
75.5400 25.1644 0.2827
75.5600 25.1711 0.2811
75.5800 25.1778 0.2862
75.6000 25.1845 0.2814
75.6200 25.1911 0.2794
75.6400 25.1977 0.2839
75.6600 25.2043 0.2815
75.6800 25.2110 0.2780
75.7000 25.2178 0.2844
75.7200 25.2245 0.2747
75.7400 25.2312 0.2771
75.7600 25.2379 0.2846
75.7800 25.2445 0.2800
75.8000 25.2511 0.2736
75.8200 25.2577 0.2817
75.8400 25.2644 0.2758
75.8600 25.2711 0.2780
75.8800 25.2778 0.2768
75.9000 25.2845 0.2743
75.9200 25.2911 0.2794
75.9400 25.2978 0.2773
75.9600 25.3045 0.2709
75.9800 25.3112 0.2833
76.0000 25.3178 0.2746
76.0200 25.3244 0.2698
76.0400 25.3310 0.2788
76.0600 25.3377 0.2745
76.0800 25.3444 0.2709
76.1000 25.3511 0.2793
76.1200 25.3578 0.2703
76.1400 25.3645 0.2720
76.1600 25.3711 0.2759
76.1800 25.3777 0.2680
76.2000 25.3843 0.2722
76.2200 25.3910 0.2781
76.2400 25.3977 0.2676
76.2600 25.4044 0.2665
76.2800 25.4111 0.2782
76.3000 25.4178 0.2688
76.3200 25.4244 0.2712
76.3400 25.4311 0.2738
76.3600 25.4377 0.2697
76.3800 25.4444 0.2655
76.4000 25.4510 0.2759
76.4200 25.4577 0.2710
76.4400 25.4645 0.2718
76.4600 25.4711 0.2703
76.4800 25.4778 0.2675
76.5000 25.4845 0.2707
76.5200 25.4912 0.2706
76.5400 25.4978 0.2689
76.5600 25.5044 0.2702
76.5800 25.5110 0.2655
76.6000 25.5178 0.2719
76.6200 25.5245 0.2706
76.6400 25.5312 0.2671
76.6600 25.5378 0.2686
76.6800 25.5445 0.2676
76.7000 25.5511 0.2705
76.7200 25.5577 0.2677
76.7400 25.5643 0.2661
76.7600 25.5710 0.2705
76.7800 25.5777 0.2629
76.8000 25.5844 0.2609
76.8200 25.5911 0.2701
76.8400 25.5978 0.2578
76.8600 25.6044 0.2648
76.8800 25.6111 0.2704
76.9000 25.6177 0.2608
76.9200 25.6243 0.2623
76.9400 25.6310 0.2773
76.9600 25.6377 0.2583
76.9800 25.6444 0.2609
77.0000 25.6511 0.2672
77.0200 25.6578 0.2588
77.0400 25.6645 0.2619
77.0600 25.6712 0.2664
77.0800 25.6778 0.2566
77.1000 25.6844 0.2637
77.1200 25.6910 0.2601
77.1400 25.6977 0.2582
77.1600 25.7045 0.2645
77.1800 25.7111 0.2599
77.2000 25.7178 0.2554
77.2200 25.7245 0.2624
77.2400 25.7311 0.2596
77.2600 25.7377 0.2620
77.2800 25.7444 0.2574
77.3000 25.7510 0.2573
77.3200 25.7577 0.2615
77.3400 25.7645 0.2561
77.3600 25.7711 0.2607
77.3800 25.7778 0.2584
77.4000 25.7845 0.2589
77.4200 25.7912 0.2562
77.4400 25.7978 0.2594
77.4600 25.8044 0.2548
77.4800 25.8110 0.2585
77.5000 25.8177 0.2610
77.5200 25.8244 0.2511
77.5400 25.8311 0.2551
77.5600 25.8378 0.2653
77.5800 25.8445 0.2526
77.6000 25.8511 0.2566
77.6200 25.8577 0.2530
77.6400 25.8643 0.2536
77.6600 25.8710 0.2580
77.6800 25.8777 0.2562
77.7000 25.8844 0.2516
77.7200 25.8911 0.2525
77.7400 25.8978 0.2510
77.7600 25.9044 0.2535
77.7800 25.9111 0.2575
77.8000 25.9177 0.2501
77.8200 25.9244 0.2545
77.8400 25.9310 0.2566
77.8600 25.9377 0.2481
77.8800 25.9444 0.2525
77.9000 25.9511 0.2586
77.9200 25.9578 0.2456
77.9400 25.9645 0.2525
77.9600 25.9711 0.2511
77.9800 25.9778 0.2455
78.0000 25.9844 0.2537
78.0200 25.9910 0.2568
78.0400 25.9977 0.2431
78.0600 26.0044 0.2506
78.0800 26.0111 0.2548
78.1000 26.0178 0.2436
78.1200 26.0245 0.2525
78.1400 26.0312 0.2526
78.1600 26.0378 0.2385
78.1800 26.0444 0.2541
78.2000 26.0510 0.2539
78.2200 26.0577 0.2409
78.2400 26.0644 0.2514
78.2600 26.0711 0.2524
78.2800 26.0778 0.2343
78.3000 26.0845 0.2533
78.3200 26.0911 0.2540
78.3400 26.0977 0.2376
78.3600 26.1043 0.2519
78.3800 26.1110 0.2471
78.4000 26.1177 0.2354
78.4200 26.1244 0.2492
78.4400 26.1311 0.2467
78.4600 26.1377 0.2355
78.4800 26.1444 0.2524
78.5000 26.1511 0.2428
78.5200 26.1578 0.2346
78.5400 26.1644 0.2533
78.5600 26.1710 0.2436
78.5800 26.1777 0.2335
78.6000 26.1844 0.2547
78.6200 26.1911 0.2363
78.6400 26.1978 0.2363
78.6600 26.2045 0.2504
78.6800 26.2112 0.2360
78.7000 26.2178 0.2381
78.7200 26.2244 0.2537
78.7400 26.2310 0.2374
78.7600 26.2377 0.2425
78.7800 26.2445 0.2477
78.8000 26.2512 0.2315
78.8200 26.2578 0.2371
78.8400 26.2645 0.2484
78.8600 26.2711 0.2357
78.8800 26.2778 0.2385
78.9000 26.2844 0.2431
78.9200 26.2910 0.2345
78.9400 26.2977 0.2369
78.9600 26.3044 0.2434
78.9800 26.3111 0.2385
79.0000 26.3178 0.2344
79.0200 26.3245 0.2406
79.0400 26.3311 0.2355
79.0600 26.3378 0.2367
79.0800 26.3443 0.2438
79.1000 26.3510 0.2362
79.1200 26.3577 0.2337
79.1400 26.3644 0.2405
79.1600 26.3711 0.2312
79.1800 26.3778 0.2352
79.2000 26.3845 0.2391
79.2200 26.3912 0.2377
79.2400 26.3978 0.2307
79.2600 26.4044 0.2415
79.2800 26.4110 0.2358
79.3000 26.4177 0.2326
79.3200 26.4244 0.2429
79.3400 26.4311 0.2338
79.3600 26.4378 0.2324
79.3800 26.4445 0.2418
79.4000 26.4512 0.2307
79.4200 26.4578 0.2349
79.4400 26.4644 0.2445
79.4600 26.4710 0.2324
79.4800 26.4777 0.2369
79.5000 26.4844 0.2458
79.5200 26.4911 0.2278
79.5400 26.4978 0.2354
79.5600 26.5045 0.2466
79.5800 26.5112 0.2283
79.6000 26.5178 0.2381
79.6200 26.5244 0.2420
79.6400 26.5310 0.2340
79.6600 26.5377 0.2401
79.6800 26.5444 0.2427
79.7000 26.5511 0.2314
79.7200 26.5578 0.2415
79.7400 26.5645 0.2346
79.7600 26.5711 0.2343
79.7800 26.5778 0.2355
79.8000 26.5843 0.2403
79.8200 26.5910 0.2372
79.8400 26.5977 0.2368
79.8600 26.6044 0.2382
79.8800 26.6111 0.2356
79.9000 26.6177 0.2338
79.9200 26.6244 0.2378
79.9400 26.6311 0.2364
79.9600 26.6378 0.2353
79.9800 26.6444 0.2338
80.0000 26.6510 0.2356
80.0200 26.6577 0.2353
80.0400 26.6644 0.2354
80.0600 26.6711 0.2312
80.0800 26.6778 0.2321
80.1000 26.6845 0.2367
80.1200 26.6912 0.2276
80.1400 26.6978 0.2342
80.1600 26.7044 0.2325
80.1800 26.7110 0.2308
80.2000 26.7177 0.2369
80.2200 26.7244 0.2354
80.2400 26.7311 0.2272
80.2600 26.7378 0.2329
80.2800 26.7445 0.2325
80.3000 26.7512 0.2282
80.3200 26.7578 0.2315
80.3400 26.7644 0.2320
80.3600 26.7710 0.2258
80.3800 26.7777 0.2379
80.4000 26.7844 0.2205
80.4200 26.7911 0.2246
80.4400 26.7978 0.2347
80.4600 26.8044 0.2285
80.4800 26.8111 0.2217
80.5000 26.8178 0.2290
80.5200 26.8244 0.2235
80.5400 26.8310 0.2239
80.5600 26.8377 0.2340
80.5800 26.8444 0.2185
80.6000 26.8511 0.2244
80.6200 26.8577 0.2292
80.6400 26.8644 0.2198
80.6600 26.8711 0.2260
80.6800 26.8778 0.2296
80.7000 26.8844 0.2142
80.7200 26.8910 0.2277
80.7400 26.8977 0.2264
80.7600 26.9044 0.2147
80.7800 26.9111 0.2261
80.8000 26.9178 0.2277
80.8200 26.9245 0.2127
80.8400 26.9312 0.2291
80.8600 26.9378 0.2201
80.8800 26.9444 0.2161
80.9000 26.9510 0.2235
80.9200 26.9577 0.2216
80.9400 26.9644 0.2139
80.9600 26.9712 0.2239
80.9800 26.9778 0.2157
81.0000 26.9845 0.2165
81.0200 26.9912 0.2208
81.0400 26.9978 0.2203
81.0600 27.0044 0.2158
81.0800 27.0110 0.2196
81.1000 27.0177 0.2173
81.1200 27.0244 0.2150
81.1400 27.0311 0.2173
81.1600 27.0378 0.2147
81.1800 27.0444 0.2175
81.2000 27.0511 0.2164
81.2200 27.0578 0.2161
81.2400 27.0644 0.2157
81.2600 27.0710 0.2157
81.2800 27.0777 0.2203
81.3000 27.0844 0.2136
81.3200 27.0911 0.2125
81.3400 27.0978 0.2223
81.3600 27.1044 0.2101
81.3800 27.1111 0.2104
81.4000 27.1178 0.2200
81.4200 27.1244 0.2125
81.4400 27.1311 0.2138
81.4600 27.1377 0.2179
81.4800 27.1444 0.2112
81.5000 27.1511 0.2122
81.5200 27.1578 0.2182
81.5400 27.1644 0.2124
81.5600 27.1711 0.2103
81.5800 27.1778 0.2175
81.6000 27.1844 0.2072
81.6200 27.1910 0.2151
81.6400 27.1977 0.2150
81.6600 27.2044 0.2118
81.6800 27.2111 0.2092
81.7000 27.2178 0.2123
81.7200 27.2245 0.2115
81.7400 27.2312 0.2117
81.7600 27.2378 0.2130
81.7800 27.2444 0.2082
81.8000 27.2510 0.2117
81.8200 27.2577 0.2116
81.8400 27.2644 0.2151
81.8600 27.2711 0.2117
81.8800 27.2778 0.2134
81.9000 27.2845 0.2095
81.9200 27.2911 0.2123
81.9400 27.2978 0.2130
81.9600 27.3044 0.2121
81.9800 27.3110 0.2068
82.0000 27.3177 0.2142
82.0200 27.3244 0.2111
82.0400 27.3311 0.2055
82.0600 27.3377 0.2096
82.0800 27.3444 0.2126
82.1000 27.3511 0.2037
82.1200 27.3578 0.2157
82.1400 27.3644 0.2109
82.1600 27.3710 0.2059
82.1800 27.3777 0.2145
82.2000 27.3844 0.2094
82.2200 27.3911 0.1992
82.2400 27.3978 0.2149
82.2600 27.4045 0.2113
82.2800 27.4112 0.1950
82.3000 27.4179 0.2185
82.3200 27.4245 0.2073
82.3400 27.4310 0.1963
82.3600 27.4377 0.2236
82.3800 27.4444 0.2051
82.4000 27.4511 0.1928
82.4200 27.4578 0.2239
82.4400 27.4645 0.2010
82.4600 27.4712 0.1987
82.4800 27.4778 0.2202
82.5000 27.4844 0.2013
82.5200 27.4911 0.1989
82.5400 27.4977 0.2237
82.5600 27.5044 0.1951
82.5800 27.5111 0.1976
82.6000 27.5177 0.2179
82.6200 27.5244 0.1967
82.6400 27.5311 0.1982
82.6600 27.5378 0.2154
82.6800 27.5444 0.1952
82.7000 27.5510 0.2019
82.7200 27.5576 0.2128
82.7400 27.5643 0.1979
82.7600 27.5711 0.1972
82.7800 27.5778 0.2109
82.8000 27.5844 0.1977
82.8200 27.5911 0.1983
82.8400 27.5978 0.2052
82.8600 27.6044 0.1978
82.8800 27.6110 0.2023
82.9000 27.6177 0.2022
82.9200 27.6244 0.1982
82.9400 27.6311 0.2004
82.9600 27.6378 0.2005
82.9800 27.6445 0.1886
83.0000 27.6512 0.2000
83.0200 27.6578 0.2012
83.0400 27.6645 0.1939
83.0600 27.6711 0.1992
83.0800 27.6777 0.2012
83.1000 27.6844 0.1909
83.1200 27.6911 0.2013
83.1400 27.6978 0.1967
83.1600 27.7045 0.1927
83.1800 27.7112 0.1989
83.2000 27.7178 0.1960
83.2200 27.7245 0.1875
83.2400 27.7310 0.2007
83.2600 27.7376 0.1986
83.2800 27.7443 0.1889
83.3000 27.7511 0.2002
83.3200 27.7578 0.1960
83.3400 27.7645 0.1902
83.3600 27.7711 0.1989
83.3800 27.7778 0.1875
83.4000 27.7844 0.1919
83.4200 27.7910 0.1986
83.4400 27.7976 0.1885
83.4600 27.8043 0.1929
83.4800 27.8111 0.1926
83.5000 27.8178 0.1879
83.5200 27.8244 0.1960
83.5400 27.8311 0.1968
83.5600 27.8378 0.1827
83.5800 27.8445 0.1982
83.6000 27.8511 0.1904
83.6200 27.8577 0.1836
83.6400 27.8644 0.1979
83.6600 27.8711 0.1916
83.6800 27.8778 0.1859
83.7000 27.8845 0.1981
83.7200 27.8912 0.1874
83.7400 27.8979 0.1861
83.7600 27.9045 0.1961
83.7800 27.9111 0.1897
83.8000 27.9177 0.1845
83.8200 27.9244 0.1956
83.8400 27.9311 0.1877
83.8600 27.9378 0.1837
83.8800 27.9445 0.1972
83.9000 27.9512 0.1891
83.9200 27.9578 0.1831
83.9400 27.9644 0.1955
83.9600 27.9710 0.1915
83.9800 27.9777 0.1870
84.0000 27.9844 0.1921
84.0200 27.9911 0.1924
84.0400 27.9978 0.1838
84.0600 28.0044 0.1905
84.0800 28.0111 0.1896
84.1000 28.0178 0.1821
84.1200 28.0245 0.1931
84.1400 28.0310 0.1870
84.1600 28.0377 0.1837
84.1800 28.0443 0.1938
84.2000 28.0510 0.1851
84.2200 28.0577 0.1805
84.2400 28.0644 0.1956
84.2600 28.0711 0.1858
84.2800 28.0778 0.1841
84.3000 28.0844 0.1876
84.3200 28.0910 0.1905
84.3400 28.0977 0.1826
84.3600 28.1044 0.1878
84.3800 28.1111 0.1947
84.4000 28.1178 0.1827
84.4200 28.1245 0.1831
84.4400 28.1312 0.1917
84.4600 28.1379 0.1812
84.4800 28.1445 0.1850
84.5000 28.1511 0.1926
84.5200 28.1577 0.1800
84.5400 28.1644 0.1812
84.5600 28.1711 0.1934
84.5800 28.1778 0.1792
84.6000 28.1845 0.1829
84.6200 28.1911 0.1940
84.6400 28.1978 0.1741
84.6600 28.2044 0.1831
84.6800 28.2110 0.1938
84.7000 28.2176 0.1772
84.7200 28.2243 0.1847
84.7400 28.2310 0.1912
84.7600 28.2378 0.1722
84.7800 28.2444 0.1869
84.8000 28.2511 0.1844
84.8200 28.2578 0.1736
84.8400 28.2645 0.1841
84.8600 28.2711 0.1844
84.8800 28.2777 0.1738
84.9000 28.2843 0.1895
84.9200 28.2911 0.1852
84.9400 28.2978 0.1694
84.9600 28.3045 0.1833
84.9800 28.3111 0.1892
85.0000 28.3178 0.1703
85.0200 28.3244 0.1849
85.0400 28.3311 0.1817
85.0600 28.3377 0.1755
85.0800 28.3444 0.1881
85.1000 28.3511 0.1792
85.1200 28.3578 0.1722
85.1400 28.3645 0.1846
85.1600 28.3712 0.1776
85.1800 28.3778 0.1713
85.2000 28.3845 0.1844
85.2200 28.3911 0.1751
85.2400 28.3977 0.1752
85.2600 28.4044 0.1837
85.2800 28.4111 0.1730
85.3000 28.4178 0.1730
85.3200 28.4245 0.1827
85.3400 28.4312 0.1704
85.3600 28.4379 0.1791
85.3800 28.4445 0.1802
85.4000 28.4511 0.1745
85.4200 28.4577 0.1729
85.4400 28.4644 0.1801
85.4600 28.4711 0.1708
85.4800 28.4778 0.1768
85.5000 28.4844 0.1751
85.5200 28.4911 0.1743
85.5400 28.4978 0.1717
85.5600 28.5044 0.1754
85.5800 28.5111 0.1761
85.6000 28.5177 0.1749
85.6200 28.5243 0.1749
85.6400 28.5310 0.1728
85.6600 28.5377 0.1717
85.6800 28.5444 0.1755
85.7000 28.5511 0.1769
85.7200 28.5578 0.1674
85.7400 28.5644 0.1775
85.7600 28.5711 0.1734
85.7800 28.5777 0.1654
85.8000 28.5844 0.1781
85.8200 28.5911 0.1718
85.8400 28.5978 0.1654
85.8600 28.6045 0.1798
85.8800 28.6111 0.1753
85.9000 28.6178 0.1654
85.9200 28.6245 0.1735
85.9400 28.6311 0.1770
85.9600 28.6377 0.1622
85.9800 28.6444 0.1767
86.0000 28.6511 0.1723
86.0200 28.6578 0.1663
86.0400 28.6645 0.1725
86.0600 28.6712 0.1729
86.0800 28.6778 0.1683
86.1000 28.6845 0.1735
86.1200 28.6911 0.1694
86.1400 28.6977 0.1644
86.1600 28.7044 0.1766
86.1800 28.7111 0.1705
86.2000 28.7178 0.1641
86.2200 28.7244 0.1733
86.2400 28.7311 0.1705
86.2600 28.7378 0.1631
86.2800 28.7445 0.1720
86.3000 28.7511 0.1666
86.3200 28.7577 0.1644
86.3400 28.7643 0.1767
86.3600 28.7710 0.1679
86.3800 28.7777 0.1573
86.4000 28.7844 0.1763
86.4200 28.7911 0.1640
86.4400 28.7978 0.1595
86.4600 28.8044 0.1720
86.4800 28.8110 0.1692
86.5000 28.8177 0.1634
86.5200 28.8243 0.1705
86.5400 28.8311 0.1631
86.5600 28.8378 0.1608
86.5800 28.8445 0.1710
86.6000 28.8512 0.1641
86.6200 28.8578 0.1584
86.6400 28.8645 0.1740
86.6600 28.8712 0.1556
86.6800 28.8778 0.1626
86.7000 28.8844 0.1753
86.7200 28.8911 0.1584
86.7400 28.8978 0.1578
86.7600 28.9045 0.1713
86.7800 28.9112 0.1567
86.8000 28.9178 0.1586
86.8200 28.9245 0.1652
86.8400 28.9311 0.1562
86.8600 28.9377 0.1606
86.8800 28.9443 0.1661
86.9000 28.9510 0.1599
86.9200 28.9577 0.1557
86.9400 28.9644 0.1651
86.9600 28.9711 0.1603
86.9800 28.9778 0.1562
87.0000 28.9844 0.1594
87.0200 28.9911 0.1592
87.0400 28.9977 0.1526
87.0600 29.0043 0.1617
87.0800 29.0110 0.1580
87.1000 29.0178 0.1531
87.1200 29.0244 0.1573
87.1400 29.0311 0.1615
87.1600 29.0378 0.1487
87.1800 29.0445 0.1563
87.2000 29.0511 0.1601
87.2200 29.0577 0.1531
87.2400 29.0644 0.1567
87.2600 29.0711 0.1537
87.2800 29.0778 0.1490
87.3000 29.0845 0.1601
87.3200 29.0912 0.1525
87.3400 29.0979 0.1512
87.3600 29.1045 0.1610
87.3800 29.1111 0.1528
87.4000 29.1177 0.1509
87.4200 29.1243 0.1597
87.4400 29.1310 0.1541
87.4600 29.1378 0.1525
87.4800 29.1445 0.1565
87.5000 29.1512 0.1460
87.5200 29.1578 0.1591
87.5400 29.1645 0.1510
87.5600 29.1711 0.1485
87.5800 29.1777 0.1572
87.6000 29.1843 0.1540
87.6200 29.1910 0.1450
87.6400 29.1978 0.1611
87.6600 29.2044 0.1513
87.6800 29.2111 0.1516
87.7000 29.2178 0.1558
87.7200 29.2244 0.1489
87.7400 29.2311 0.1487
87.7600 29.2377 0.1592
87.7800 29.2443 0.1481
87.8000 29.2510 0.1479
87.8200 29.2577 0.1602
87.8400 29.2644 0.1440
87.8600 29.2711 0.1448
87.8800 29.2778 0.1582
87.9000 29.2845 0.1413
87.9200 29.2911 0.1457
87.9400 29.2977 0.1563
87.9600 29.3044 0.1455
87.9800 29.3111 0.1428
88.0000 29.3178 0.1526
88.0200 29.3245 0.1427
88.0400 29.3312 0.1451
88.0600 29.3378 0.1559
88.0800 29.3445 0.1397
88.1000 29.3511 0.1447
88.1200 29.3577 0.1495
88.1400 29.3644 0.1455
88.1600 29.3711 0.1490
88.1800 29.3778 0.1463
88.2000 29.3845 0.1378
88.2200 29.3911 0.1493
88.2400 29.3978 0.1465
88.2600 29.4045 0.1390
88.2800 29.4111 0.1439
88.3000 29.4177 0.1470
88.3200 29.4243 0.1402
88.3400 29.4310 0.1434
88.3600 29.4377 0.1464
88.3800 29.4444 0.1388
88.4000 29.4511 0.1377
88.4200 29.4578 0.1471
88.4400 29.4645 0.1387
88.4600 29.4711 0.1366
88.4800 29.4777 0.1462
88.5000 29.4843 0.1394
88.5200 29.4910 0.1396
88.5400 29.4977 0.1445
88.5600 29.5044 0.1383
88.5800 29.5111 0.1375
88.6000 29.5178 0.1433
88.6200 29.5244 0.1332
88.6400 29.5311 0.1395
88.6600 29.5377 0.1421
88.6800 29.5444 0.1414
88.7000 29.5511 0.1382
88.7200 29.5578 0.1399
88.7400 29.5645 0.1342
88.7600 29.5711 0.1427
88.7800 29.5778 0.1406
88.8000 29.5845 0.1356
88.8200 29.5912 0.1410
88.8400 29.5978 0.1362
88.8600 29.6044 0.1375
88.8800 29.6110 0.1458
88.9000 29.6178 0.1346
88.9200 29.6245 0.1368
88.9400 29.6312 0.1386
88.9600 29.6378 0.1338
88.9800 29.6445 0.1379
89.0000 29.6511 0.1427
89.0200 29.6577 0.1355
89.0400 29.6643 0.1367
89.0600 29.6710 0.1398
89.0800 29.6777 0.1303
89.1000 29.6844 0.1416
89.1200 29.6911 0.1434
89.1400 29.6978 0.1314
89.1600 29.7045 0.1398
89.1800 29.7111 0.1384
89.2000 29.7177 0.1309
89.2200 29.7243 0.1416
89.2400 29.7310 0.1409
89.2600 29.7377 0.1318
89.2800 29.7444 0.1404
89.3000 29.7511 0.1362
89.3200 29.7578 0.1296
89.3400 29.7645 0.1508
89.3600 29.7711 0.1319
89.3800 29.7777 0.1322
89.4000 29.7844 0.1450
89.4200 29.7910 0.1336
89.4400 29.7977 0.1372
89.4600 29.8044 0.1378
89.4800 29.8111 0.1322
89.5000 29.8178 0.1342
89.5200 29.8245 0.1323
89.5400 29.8311 0.1331
89.5600 29.8377 0.1386
89.5800 29.8443 0.1374
89.6000 29.8510 0.1326
89.6200 29.8578 0.1317
89.6400 29.8645 0.1337
89.6600 29.8712 0.1354
89.6800 29.8778 0.1351
89.7000 29.8845 0.1281
89.7200 29.8912 0.1371
89.7400 29.8977 0.1328
89.7600 29.9043 0.1281
89.7800 29.9110 0.1345
89.8000 29.9177 0.1329
89.8200 29.9244 0.1286
89.8400 29.9311 0.1364
89.8600 29.9378 0.1298
89.8800 29.9445 0.1331
89.9000 29.9511 0.1298
89.9200 29.9577 0.1270
89.9400 29.9643 0.1289
89.9600 29.9710 0.1385
89.9800 29.9777 0.1256
90.0000 29.9844 0.1314
90.0200 29.9911 0.1334
90.0400 29.9978 0.1284
90.0600 30.0045 0.1264
90.0800 30.0111 0.1323
90.1000 30.0177 0.1305
90.1200 30.0244 0.1267
90.1400 30.0310 0.1326
90.1600 30.0378 0.1277
90.1800 30.0445 0.1255
90.2000 30.0512 0.1311
90.2200 30.0578 0.1272
90.2400 30.0645 0.1251
90.2600 30.0712 0.1319
90.2800 30.0778 0.1263
90.3000 30.0844 0.1270
90.3200 30.0910 0.1276
90.3400 30.0977 0.1305
90.3600 30.1045 0.1224
90.3800 30.1111 0.1305
90.4000 30.1178 0.1274
90.4200 30.1245 0.1218
90.4400 30.1312 0.1276
90.4600 30.1378 0.1247
90.4800 30.1444 0.1229
90.5000 30.1510 0.1321
90.5200 30.1577 0.1260
90.5400 30.1644 0.1212
90.5600 30.1711 0.1285
90.5800 30.1778 0.1281
90.6000 30.1845 0.1133
90.6200 30.1911 0.1306
90.6400 30.1977 0.1256
90.6600 30.2043 0.1148
90.6800 30.2110 0.1266
90.7000 30.2177 0.1232
90.7200 30.2244 0.1161
90.7400 30.2311 0.1257
90.7600 30.2378 0.1220
90.7800 30.2444 0.1203
90.8000 30.2511 0.1275
90.8200 30.2577 0.1195
90.8400 30.2644 0.1239
90.8600 30.2710 0.1251
90.8800 30.2777 0.1159
90.9000 30.2845 0.1234
90.9200 30.2911 0.1250
90.9400 30.2978 0.1141
90.9600 30.3045 0.1252
90.9800 30.3112 0.1188
91.0000 30.3178 0.1173
91.0200 30.3244 0.1226
91.0400 30.3310 0.1184
91.0600 30.3377 0.1195
91.0800 30.3445 0.1237
91.1000 30.3512 0.1121
91.1200 30.3578 0.1205
91.1400 30.3645 0.1212
91.1600 30.3711 0.1142
91.1800 30.3777 0.1217
91.2000 30.3843 0.1186
91.2200 30.3910 0.1143
91.2400 30.3977 0.1271
91.2600 30.4044 0.1134
91.2800 30.4111 0.1097
91.3000 30.4177 0.1259
91.3200 30.4244 0.1118
91.3400 30.4311 0.1105
91.3600 30.4377 0.1222
91.3800 30.4443 0.1102
91.4000 30.4510 0.1163
91.4200 30.4577 0.1223
91.4400 30.4644 0.1055
91.4600 30.4711 0.1180
91.4800 30.4778 0.1208
91.5000 30.4845 0.1029
91.5200 30.4912 0.1212
91.5400 30.4978 0.1183
91.5600 30.5044 0.1046
91.5800 30.5110 0.1228
91.6000 30.5177 0.1115
91.6200 30.5244 0.1089
91.6400 30.5311 0.1155
91.6600 30.5378 0.1092
91.6800 30.5445 0.1056
91.7000 30.5512 0.1201
91.7200 30.5578 0.1077
91.7400 30.5644 0.1089
91.7600 30.5710 0.1193
91.7800 30.5777 0.1016
91.8000 30.5844 0.1150
91.8200 30.5911 0.1133
91.8400 30.5978 0.1037
91.8600 30.6045 0.1140
91.8800 30.6112 0.1055
91.9000 30.6178 0.1053
91.9200 30.6244 0.1216
91.9400 30.6310 0.1063
91.9600 30.6377 0.1054
91.9800 30.6444 0.1089
92.0000 30.6511 0.1133
92.0200 30.6578 0.1045
92.0400 30.6645 0.1133
92.0600 30.6712 0.1074
92.0800 30.6778 0.1074
92.1000 30.6844 0.1102
92.1200 30.6910 0.1066
92.1400 30.6977 0.1096
92.1600 30.7044 0.1094
92.1800 30.7111 0.1040
92.2000 30.7178 0.1093
92.2200 30.7245 0.1063
92.2400 30.7311 0.1081
92.2600 30.7378 0.1086
92.2800 30.7444 0.1081
92.3000 30.7510 0.1070
92.3200 30.7577 0.1097
92.3400 30.7644 0.1014
92.3600 30.7711 0.1082
92.3800 30.7778 0.1151
92.4000 30.7845 0.1015
92.4200 30.7912 0.1044
92.4400 30.7978 0.1096
92.4600 30.8044 0.1040
92.4800 30.8110 0.1104
92.5000 30.8177 0.1071
92.5200 30.8244 0.1034
92.5400 30.8311 0.1132
92.5600 30.8378 0.1048
92.5800 30.8445 0.1099
92.6000 30.8512 0.1074
92.6200 30.8578 0.1055
92.6400 30.8644 0.1058
92.6600 30.8710 0.1076
92.6800 30.8777 0.1050
92.7000 30.8844 0.1103
92.7200 30.8911 0.1096
92.7400 30.8978 0.1086
92.7600 30.9045 0.1076
92.7800 30.9111 0.1050
92.8000 30.9178 0.1067
92.8200 30.9244 0.1134
92.8400 30.9310 0.1036
92.8600 30.9377 0.1020
92.8800 30.9444 0.1076
92.9000 30.9511 0.1010
92.9200 30.9577 0.1038
92.9400 30.9644 0.1112
92.9600 30.9711 0.0987
92.9800 30.9778 0.1021
93.0000 30.9844 0.1120
93.0200 30.9910 0.1002
93.0400 30.9977 0.1076
93.0600 31.0044 0.1090
93.0800 31.0111 0.0957
93.1000 31.0178 0.1027
93.1200 31.0245 0.1104
93.1400 31.0312 0.0982
93.1600 31.0378 0.1065
93.1800 31.0444 0.1063
93.2000 31.0510 0.0975
93.2200 31.0577 0.1062
93.2400 31.0644 0.1053
93.2600 31.0711 0.0975
93.2800 31.0778 0.1059
93.3000 31.0845 0.1035
93.3200 31.0911 0.0961
93.3400 31.0978 0.1027
93.3600 31.1044 0.1050
93.3800 31.1110 0.0943
93.4000 31.1177 0.1030
93.4200 31.1244 0.1056
93.4400 31.1311 0.0966
93.4600 31.1378 0.1025
93.4800 31.1445 0.1005
93.5000 31.1511 0.0920
93.5200 31.1578 0.1051
93.5400 31.1644 0.0976
93.5600 31.1710 0.0946
93.5800 31.1777 0.1055
93.6000 31.1844 0.0938
93.6200 31.1911 0.0997
93.6400 31.1978 0.0983
93.6600 31.2045 0.0965
93.6800 31.2111 0.0940
93.7000 31.2178 0.0996
93.7200 31.2244 0.0963
93.7400 31.2310 0.0995
93.7600 31.2377 0.0967
93.7800 31.2444 0.0949
93.8000 31.2511 0.0966
93.8200 31.2578 0.0983
93.8400 31.2645 0.0970
93.8600 31.2712 0.0968
93.8800 31.2778 0.0910
93.9000 31.2844 0.1011
93.9200 31.2910 0.0944
93.9400 31.2977 0.0933
93.9600 31.3044 0.0952
93.9800 31.3111 0.0921
94.0000 31.3178 0.0910
94.0200 31.3245 0.0994
94.0400 31.3312 0.0909
94.0600 31.3378 0.0889
94.0800 31.3444 0.0991
94.1000 31.3510 0.0915
94.1200 31.3577 0.0912
94.1400 31.3644 0.1003
94.1600 31.3711 0.0900
94.1800 31.3778 0.0857
94.2000 31.3845 0.1017
94.2200 31.3911 0.0881
94.2400 31.3978 0.0844
94.2600 31.4044 0.0976
94.2800 31.4110 0.0881
94.3000 31.4177 0.0831
94.3200 31.4244 0.1011
94.3400 31.4311 0.0826
94.3600 31.4377 0.0831
94.3800 31.4444 0.0983
94.4000 31.4511 0.0836
94.4200 31.4578 0.0817
94.4400 31.4644 0.0997
94.4600 31.4710 0.0875
94.4800 31.4777 0.0857
94.5000 31.4844 0.0926
94.5200 31.4911 0.0839
94.5400 31.4978 0.0888
94.5600 31.5045 0.0969
94.5800 31.5112 0.0782
94.6000 31.5178 0.0837
94.6200 31.5244 0.0934
94.6400 31.5310 0.0847
94.6600 31.5377 0.0849
94.6800 31.5444 0.0920
94.7000 31.5511 0.0867
94.7200 31.5578 0.0791
94.7400 31.5645 0.0937
94.7600 31.5712 0.0911
94.7800 31.5778 0.0833
94.8000 31.5844 0.0857
94.8200 31.5910 0.0876
94.8400 31.5977 0.0800
94.8600 31.6044 0.0879
94.8800 31.6111 0.0846
94.9000 31.6178 0.0809
94.9200 31.6244 0.0907
94.9400 31.6311 0.0851
94.9600 31.6378 0.0781
94.9800 31.6444 0.0929
95.0000 31.6510 0.0853
95.0200 31.6577 0.0766
95.0400 31.6644 0.0886
95.0600 31.6711 0.0823
95.0800 31.6778 0.0739
95.1000 31.6844 0.0901
95.1200 31.6911 0.0806
95.1400 31.6978 0.0735
95.1600 31.7044 0.0911
95.1800 31.7110 0.0830
95.2000 31.7177 0.0818
95.2200 31.7244 0.0840
95.2400 31.7311 0.0794
95.2600 31.7378 0.0800
95.2800 31.7445 0.0827
95.3000 31.7512 0.0764
95.3200 31.7578 0.0811
95.3400 31.7644 0.0825
95.3600 31.7710 0.0808
95.3800 31.7777 0.0798
95.4000 31.7844 0.0840
95.4200 31.7912 0.0751
95.4400 31.7978 0.0826
95.4600 31.8045 0.0792
95.4800 31.8111 0.0806
95.5000 31.8178 0.0788
95.5200 31.8244 0.0797
95.5400 31.8310 0.0802
95.5600 31.8377 0.0811
95.5800 31.8444 0.0733
95.6000 31.8511 0.0792
95.6200 31.8578 0.0789
95.6400 31.8644 0.0731
95.6600 31.8711 0.0812
95.6800 31.8778 0.0801
95.7000 31.8844 0.0733
95.7200 31.8910 0.0845
95.7400 31.8977 0.0805
95.7600 31.9044 0.0755
95.7800 31.9111 0.0858
95.8000 31.9178 0.0685
95.8200 31.9244 0.0767
95.8400 31.9311 0.0769
95.8600 31.9378 0.0738
95.8800 31.9444 0.0743
95.9000 31.9510 0.0823
95.9200 31.9577 0.0718
95.9400 31.9644 0.0762
95.9600 31.9711 0.0771
95.9800 31.9778 0.0705
96.0000 31.9845 0.0731
96.0200 31.9911 0.0766
96.0400 31.9978 0.0640
96.0600 32.0045 0.0777
96.0800 32.0111 0.0744
96.1000 32.0177 0.0692
96.1200 32.0244 0.0787
96.1400 32.0311 0.0769
96.1600 32.0378 0.0719
96.1800 32.0445 0.0739
96.2000 32.0512 0.0752
96.2200 32.0578 0.0661
96.2400 32.0644 0.0722
96.2600 32.0710 0.0775
96.2800 32.0777 0.0701
96.3000 32.0844 0.0712
96.3200 32.0911 0.0703
96.3400 32.0978 0.0730
96.3600 32.1045 0.0722
96.3800 32.1111 0.0717
96.4000 32.1178 0.0734
96.4200 32.1244 0.0677
96.4400 32.1310 0.0726
96.4600 32.1376 0.0709
96.4800 32.1443 0.0720
96.5000 32.1511 0.0696
96.5200 32.1577 0.0696
96.5400 32.1644 0.0697
96.5600 32.1711 0.0724
96.5800 32.1777 0.0687
96.6000 32.1844 0.0683
96.6200 32.1910 0.0749
96.6400 32.1977 0.0728
96.6600 32.2044 0.0664
96.6800 32.2111 0.0727
96.7000 32.2178 0.0666
96.7200 32.2245 0.0691
96.7400 32.2312 0.0734
96.7600 32.2379 0.0706
96.7800 32.2445 0.0668
96.8000 32.2511 0.0701
96.8200 32.2577 0.0727
96.8400 32.2644 0.0661
96.8600 32.2711 0.0732
96.8800 32.2778 0.0651
96.9000 32.2845 0.0672
96.9200 32.2912 0.0763
96.9400 32.2978 0.0653
96.9600 32.3045 0.0628
96.9800 32.3111 0.0709
97.0000 32.3177 0.0649
97.0200 32.3244 0.0678
97.0400 32.3311 0.0691
97.0600 32.3377 0.0668
97.0800 32.3444 0.0671
97.1000 32.3511 0.0713
97.1200 32.3578 0.0608
97.1400 32.3644 0.0677
97.1600 32.3710 0.0717
97.1800 32.3776 0.0612
97.2000 32.3843 0.0636
97.2200 32.3910 0.0699
97.2400 32.3977 0.0621
97.2600 32.4044 0.0636
97.2800 32.4111 0.0667
97.3000 32.4178 0.0618
97.3200 32.4244 0.0608
97.3400 32.4310 0.0710
97.3600 32.4377 0.0644
97.3800 32.4444 0.0589
97.4000 32.4511 0.0693
97.4200 32.4578 0.0565
97.4400 32.4645 0.0585
97.4600 32.4712 0.0699
97.4800 32.4778 0.0584
97.5000 32.4845 0.0558
97.5200 32.4911 0.0717
97.5400 32.4978 0.0591
97.5600 32.5044 0.0625
97.5800 32.5111 0.0638
97.6000 32.5178 0.0598
97.6200 32.5245 0.0591
97.6400 32.5311 0.0688
97.6600 32.5378 0.0579
97.6800 32.5445 0.0600
97.7000 32.5511 0.0650
97.7200 32.5577 0.0566
97.7400 32.5643 0.0559
97.7600 32.5710 0.0664
97.7800 32.5778 0.0588
97.8000 32.5844 0.0545
97.8200 32.5911 0.0611
97.8400 32.5978 0.0605
97.8600 32.6044 0.0585
97.8800 32.6110 0.0553
97.9000 32.6176 0.0600
97.9200 32.6243 0.0618
97.9400 32.6311 0.0557
97.9600 32.6378 0.0597
97.9800 32.6444 0.0611
98.0000 32.6511 0.0526
98.0200 32.6578 0.0626
98.0400 32.6644 0.0566
98.0600 32.6711 0.0537
98.0800 32.6777 0.0581
98.1000 32.6844 0.0557
98.1200 32.6911 0.0513
98.1400 32.6978 0.0699
98.1600 32.7045 0.0506
98.1800 32.7112 0.0538
98.2000 32.7179 0.0683
98.2200 32.7245 0.0454
98.2400 32.7311 0.0540
98.2600 32.7377 0.0684
98.2800 32.7444 0.0451
98.3000 32.7511 0.0539
98.3200 32.7578 0.0635
98.3400 32.7645 0.0488
98.3600 32.7711 0.0543
98.3800 32.7778 0.0601
98.4000 32.7844 0.0432
98.4200 32.7911 0.0604
98.4400 32.7977 0.0647
98.4600 32.8044 0.0404
98.4800 32.8111 0.0629
98.5000 32.8178 0.0617
98.5200 32.8245 0.0371
98.5400 32.8311 0.0605
98.5600 32.8378 0.0596
98.5800 32.8445 0.0421
98.6000 32.8511 0.0561
98.6200 32.8576 0.0546
98.6400 32.8643 0.0474
98.6600 32.8710 0.0557
98.6800 32.8777 0.0546
98.7000 32.8844 0.0438
98.7200 32.8911 0.0597
98.7400 32.8978 0.0509
98.7600 32.9045 0.0462
98.7800 32.9111 0.0556
98.8000 32.9177 0.0553
98.8200 32.9244 0.0471
98.8400 32.9311 0.0496
98.8600 32.9378 0.0528
98.8800 32.9445 0.0528
98.9000 32.9512 0.0471
98.9200 32.9579 0.0529
98.9400 32.9645 0.0478
98.9600 32.9711 0.0475
98.9800 32.9777 0.0565
99.0000 32.9844 0.0487
99.0200 32.9911 0.0457
99.0400 32.9978 0.0541
99.0600 33.0045 0.0476
99.0800 33.0111 0.0454
99.1000 33.0178 0.0607
99.1200 33.0245 0.0452
99.1400 33.0311 0.0464
99.1600 33.0377 0.0571
99.1800 33.0443 0.0446
99.2000 33.0510 0.0494
99.2200 33.0577 0.0584
99.2400 33.0644 0.0353
99.2600 33.0711 0.0483
99.2800 33.0778 0.0569
99.3000 33.0845 0.0351
99.3200 33.0911 0.0498
99.3400 33.0977 0.0581
99.3600 33.1043 0.0328
99.3800 33.1110 0.0546
99.4000 33.1177 0.0491
99.4200 33.1244 0.0371
99.4400 33.1311 0.0541
99.4600 33.1378 0.0453
99.4800 33.1445 0.0384
99.5000 33.1511 0.0551
99.5200 33.1577 0.0416
99.5400 33.1644 0.0445
99.5600 33.1711 0.0539
99.5800 33.1778 0.0340
99.6000 33.1845 0.0468
99.6200 33.1911 0.0550
99.6400 33.1978 0.0355
99.6600 33.2045 0.0438
99.6800 33.2111 0.0508
99.7000 33.2177 0.0380
99.7200 33.2244 0.0507
99.7400 33.2311 0.0456
99.7600 33.2378 0.0375
99.7800 33.2445 0.0499
99.8000 33.2512 0.0415
99.8200 33.2579 0.0377
99.8400 33.2645 0.0501
99.8600 33.2711 0.0386
99.8800 33.2777 0.0434
99.9000 33.2843 0.0449
99.9200 33.2910 0.0384
99.9400 33.2978 0.0405
99.9600 33.3045 0.0481
99.9800 33.3111 0.0357
100.0000 33.3178 0.0485
100.0200 33.3244 0.0395
100.0400 33.3310 0.0381
100.0600 33.3377 0.0456
100.0800 33.3443 0.0410
100.1000 33.3510 0.0376
100.1200 33.3578 0.0417
100.1400 33.3644 0.0407
100.1600 33.3711 0.0354
100.1800 33.3778 0.0429
100.2000 33.3845 0.0416
100.2200 33.3911 0.0406
100.2400 33.3977 0.0461
100.2600 33.4044 0.0379
100.2800 33.4111 0.0363
100.3000 33.4178 0.0463
100.3200 33.4244 0.0370
100.3400 33.4311 0.0387
100.3600 33.4378 0.0408
100.3800 33.4445 0.0394
100.4000 33.4511 0.0391
100.4200 33.4577 0.0378
100.4400 33.4644 0.0389
100.4600 33.4711 0.0422
100.4800 33.4778 0.0349
100.5000 33.4845 0.0384
100.5200 33.4912 0.0391
100.5400 33.4978 0.0380
100.5600 33.5045 0.0375
100.5800 33.5111 0.0390
100.6000 33.5177 0.0346
100.6200 33.5244 0.0448
100.6400 33.5311 0.0351
100.6600 33.5378 0.0288
100.6800 33.5445 0.0456
100.7000 33.5511 0.0358
100.7200 33.5578 0.0326
100.7400 33.5645 0.0432
100.7600 33.5711 0.0332
100.7800 33.5777 0.0332
100.8000 33.5843 0.0452
100.8200 33.5910 0.0267
100.8400 33.5977 0.0329
100.8600 33.6044 0.0446
100.8800 33.6111 0.0294
100.9000 33.6178 0.0289
100.9200 33.6244 0.0438
100.9400 33.6311 0.0278
100.9600 33.6377 0.0349
100.9800 33.6444 0.0466
101.0000 33.6511 0.0275
101.0200 33.6578 0.0329
101.0400 33.6645 0.0421
101.0600 33.6712 0.0264
101.0800 33.6778 0.0382
101.1000 33.6845 0.0378
101.1200 33.6912 0.0211
101.1400 33.6978 0.0349
101.1600 33.7044 0.0414
101.1800 33.7111 0.0254
101.2000 33.7178 0.0350
101.2200 33.7245 0.0334
101.2400 33.7311 0.0261
101.2600 33.7378 0.0369
101.2800 33.7445 0.0379
101.3000 33.7511 0.0267
101.3200 33.7577 0.0331
101.3400 33.7643 0.0368
101.3600 33.7710 0.0278
101.3800 33.7777 0.0349
101.4000 33.7844 0.0360
101.4200 33.7911 0.0275
101.4400 33.7978 0.0321
101.4600 33.8044 0.0361
101.4800 33.8111 0.0228
101.5000 33.8177 0.0297
101.5200 33.8243 0.0351
101.5400 33.8310 0.0300
101.5600 33.8378 0.0253
101.5800 33.8445 0.0368
101.6000 33.8511 0.0286
101.6200 33.8577 0.0298
101.6400 33.8644 0.0379
101.6600 33.8710 0.0278
101.6800 33.8777 0.0245
101.7000 33.8844 0.0394
101.7200 33.8911 0.0261
101.7400 33.8978 0.0245
101.7600 33.9045 0.0356
101.7800 33.9111 0.0266
101.8000 33.9178 0.0248
101.8200 33.9245 0.0317
101.8400 33.9311 0.0176
101.8600 33.9377 0.0297
101.8800 33.9444 0.0364
101.9000 33.9510 0.0162
101.9200 33.9578 0.0286
101.9400 33.9645 0.0321
101.9600 33.9712 0.0197
101.9800 33.9778 0.0317
102.0000 33.9845 0.0289
102.0200 33.9911 0.0162
102.0400 33.9977 0.0325
102.0600 34.0043 0.0274
102.0800 34.0110 0.0181
102.1000 34.0178 0.0280
102.1200 34.0245 0.0289
102.1400 34.0311 0.0175
102.1600 34.0378 0.0290
102.1800 34.0444 0.0280
102.2000 34.0511 0.0173
102.2200 34.0577 0.0284
102.2400 34.0643 0.0305
102.2600 34.0710 0.0191
102.2800 34.0777 0.0256
102.3000 34.0844 0.0238
102.3200 34.0911 0.0187
102.3400 34.0978 0.0256
102.3600 34.1045 0.0230
102.3800 34.1111 0.0206
102.4000 34.1177 0.0208
102.4200 34.1243 0.0247
102.4400 34.1310 0.0201
102.4600 34.1377 0.0176
102.4800 34.1445 0.0246
102.5000 34.1512 0.0204
102.5200 34.1579 0.0160
102.5400 34.1645 0.0206
102.5600 34.1711 0.0174
102.5800 34.1777 0.0218
102.6000 34.1844 0.0172
102.6200 34.1911 0.0230
102.6400 34.1978 0.0116
102.6600 34.2045 0.0183
102.6800 34.2112 0.0208
102.7000 34.2178 0.0177
102.7200 34.2245 0.0120
102.7400 34.2311 0.0183
102.7600 34.2378 0.0183
102.7800 34.2444 0.0155
102.8000 34.2510 0.0205
102.8200 34.2577 0.0180
102.8400 34.2644 0.0149
102.8600 34.2711 0.0219
102.8800 34.2778 0.0123
102.9000 34.2845 0.0142
102.9200 34.2911 0.0236
102.9400 34.2977 0.0124
102.9600 34.3043 0.0133
102.9800 34.3109 0.0258
103.0000 34.3177 0.0148
103.0200 34.3244 0.0051
103.0400 34.3311 0.0223
103.0600 34.3378 0.0128
103.0800 34.3445 0.0141
103.1000 34.3511 0.0213
103.1200 34.3577 0.0146
103.1400 34.3644 0.0122
103.1600 34.3710 0.0231
103.1800 34.3778 0.0079
103.2000 34.3845 0.0111
103.2200 34.3911 0.0248
103.2400 34.3978 0.0074
103.2600 34.4045 0.0083
103.2800 34.4112 0.0289
103.3000 34.4178 0.0030
103.3200 34.4244 0.0127
103.3400 34.4311 0.0255
103.3600 34.4378 0.0063
103.3800 34.4445 0.0096
103.4000 34.4512 0.0221
103.4200 34.4578 0.0036
103.4400 34.4645 0.0132
103.4600 34.4711 0.0249
103.4800 34.4777 0.0054
103.5000 34.4843 0.0104
103.5200 34.4910 0.0213
103.5400 34.4977 0.0071
103.5600 34.5044 0.0131
103.5800 34.5111 0.0167
103.6000 34.5178 0.0062
103.6200 34.5245 0.0117
103.6400 34.5311 0.0134
103.6600 34.5377 0.0042
103.6800 34.5443 0.0151
103.7000 34.5510 0.0126
103.7200 34.5577 0.0056
103.7400 34.5644 0.0186
103.7600 34.5711 0.0112
103.7800 34.5778 0.0058
103.8000 34.5844 0.0096
103.8200 34.5911 0.0136
103.8400 34.5977 0.0057
103.8600 34.6044 0.0126
103.8800 34.6110 0.0111
103.9000 34.6177 0.0070
103.9200 34.6244 0.0119
103.9400 34.6311 0.0131
103.9600 34.6378 0.0054
103.9800 34.6445 0.0117
104.0000 34.6511 0.0047
104.0200 34.6578 0.0089
104.0400 34.6644 0.0098
104.0600 34.6710 0.0066
104.0800 34.6777 0.0124
104.1000 34.6845 0.0040
104.1200 34.6912 0.0084
104.1400 34.6978 0.0101
104.1600 34.7045 0.0009
104.1800 34.7112 0.0122
104.2000 34.7178 0.0119
104.2200 34.7244 -0.0019
104.2400 34.7310 0.0122
104.2600 34.7377 0.0089
104.2800 34.7444 -0.0003
104.3000 34.7511 0.0112
104.3200 34.7578 0.0112
104.3400 34.7644 -0.0008
104.3600 34.7711 0.0092
104.3800 34.7777 0.0042
104.4000 34.7844 0.0023
104.4200 34.7910 0.0118
104.4400 34.7977 0.0011
104.4600 34.8044 -0.0006
104.4800 34.8111 0.0143
104.5000 34.8178 -0.0039
104.5200 34.8245 0.0002
104.5400 34.8311 0.0093
104.5600 34.8377 -0.0031
104.5800 34.8444 0.0028
104.6000 34.8510 0.0116
104.6200 34.8578 -0.0030
104.6400 34.8645 0.0070
104.6600 34.8712 0.0066
104.6800 34.8778 -0.0040
104.7000 34.8845 0.0064
104.7200 34.8912 0.0005
104.7400 34.8978 0.0046
104.7600 34.9044 0.0011
104.7800 34.9110 0.0010
104.8000 34.9177 0.0062
104.8200 34.9244 0.0020
104.8400 34.9311 0.0006
104.8600 34.9378 0.0051
104.8800 34.9445 -0.0041
104.9000 34.9512 -0.0010
104.9200 34.9578 0.0071
104.9400 34.9644 0.0014
104.9600 34.9710 -0.0024
104.9800 34.9777 0.0055
105.0000 34.9844 -0.0078
105.0200 34.9911 -0.0016
105.0400 34.9978 0.0033
105.0600 35.0045 -0.0060
105.0800 35.0111 -0.0025
105.1000 35.0177 0.0033
105.1200 35.0243 -0.0100
105.1400 35.0310 0.0022
105.1600 35.0377 0.0040
105.1800 35.0444 -0.0057
105.2000 35.0511 -0.0014
105.2200 35.0578 0.0035
105.2400 35.0644 -0.0110
105.2600 35.0711 -0.0007
105.2800 35.0778 -0.0003
105.3000 35.0844 -0.0094
105.3200 35.0910 0.0007
105.3400 35.0977 -0.0001
105.3600 35.1044 -0.0088
105.3800 35.1111 -0.0036
105.4000 35.1178 -0.0039
105.4200 35.1245 -0.0058
105.4400 35.1312 -0.0059
105.4600 35.1378 -0.0043
105.4800 35.1444 -0.0044
105.5000 35.1510 -0.0055
105.5200 35.1577 -0.0037
105.5400 35.1644 -0.0062
105.5600 35.1712 -0.0090
105.5800 35.1778 -0.0064
105.6000 35.1845 -0.0031
105.6200 35.1911 -0.0115
105.6400 35.1977 -0.0014
105.6600 35.2043 -0.0055
105.6800 35.2110 -0.0054
105.7000 35.2177 -0.0019
105.7200 35.2244 -0.0083
105.7400 35.2311 -0.0108
105.7600 35.2377 0.0032
105.7800 35.2444 -0.0093
105.8000 35.2511 -0.0148
105.8200 35.2577 0.0010
105.8400 35.2643 -0.0122
105.8600 35.2710 -0.0124
105.8800 35.2777 0.0004
105.9000 35.2844 -0.0119
105.9200 35.2911 -0.0096
105.9400 35.2978 -0.0012
105.9600 35.3045 -0.0146
105.9800 35.3112 -0.0114
106.0000 35.3178 0.0010
106.0200 35.3244 -0.0141
106.0400 35.3310 -0.0113
106.0600 35.3377 0.0001
106.0800 35.3444 -0.0185
106.1000 35.3511 -0.0097
106.1200 35.3578 -0.0066
106.1400 35.3645 -0.0139
106.1600 35.3712 -0.0107
106.1800 35.3778 -0.0110
106.2000 35.3844 -0.0162
106.2200 35.3910 -0.0053
106.2400 35.3977 -0.0138
106.2600 35.4044 -0.0134
106.2800 35.4111 -0.0063
106.3000 35.4178 -0.0122
106.3200 35.4245 -0.0147
106.3400 35.4311 -0.0066
106.3600 35.4378 -0.0175
106.3800 35.4444 -0.0085
106.4000 35.4510 -0.0096
106.4200 35.4577 -0.0173
106.4400 35.4644 -0.0122
106.4600 35.4711 -0.0116
106.4800 35.4778 -0.0156
106.5000 35.4845 -0.0064
106.5200 35.4912 -0.0135
106.5400 35.4978 -0.0185
106.5600 35.5044 -0.0046
106.5800 35.5110 -0.0147
106.6000 35.5176 -0.0149
106.6200 35.5244 -0.0073
106.6400 35.5311 -0.0162
106.6600 35.5378 -0.0188
106.6800 35.5444 -0.0049
106.7000 35.5511 -0.0195
106.7200 35.5578 -0.0127
106.7400 35.5644 -0.0065
106.7600 35.5710 -0.0169
106.7800 35.5777 -0.0161
106.8000 35.5844 -0.0085
106.8200 35.5911 -0.0242
106.8400 35.5978 -0.0153
106.8600 35.6045 -0.0100
106.8800 35.6112 -0.0196
106.9000 35.6178 -0.0175
106.9200 35.6244 -0.0099
106.9400 35.6311 -0.0186
106.9600 35.6377 -0.0111
106.9800 35.6444 -0.0121
107.0000 35.6511 -0.0208
107.0200 35.6578 -0.0131
107.0400 35.6645 -0.0101
107.0600 35.6712 -0.0240
107.0800 35.6778 -0.0082
107.1000 35.6844 -0.0097
107.1200 35.6910 -0.0256
107.1400 35.6977 -0.0122
107.1600 35.7044 -0.0109
107.1800 35.7111 -0.0210
107.2000 35.7178 -0.0161
107.2200 35.7245 -0.0112
107.2400 35.7311 -0.0270
107.2600 35.7378 -0.0165
107.2800 35.7444 -0.0098
107.3000 35.7510 -0.0250
107.3200 35.7577 -0.0151
107.3400 35.7644 -0.0100
107.3600 35.7711 -0.0321
107.3800 35.7777 -0.0142
107.4000 35.7844 -0.0097
107.4200 35.7911 -0.0245
107.4400 35.7978 -0.0209
107.4600 35.8044 -0.0128
107.4800 35.8110 -0.0254
107.5000 35.8177 -0.0200
107.5200 35.8244 -0.0109
107.5400 35.8311 -0.0265
107.5600 35.8378 -0.0202
107.5800 35.8445 -0.0125
107.6000 35.8512 -0.0334
107.6200 35.8578 -0.0168
107.6400 35.8644 -0.0096
107.6600 35.8710 -0.0368
107.6800 35.8777 -0.0186
107.7000 35.8845 -0.0116
107.7200 35.8912 -0.0330
107.7400 35.8978 -0.0178
107.7600 35.9045 -0.0162
107.7800 35.9111 -0.0366
107.8000 35.9178 -0.0183
107.8200 35.9244 -0.0176
107.8400 35.9310 -0.0335
107.8600 35.9377 -0.0145
107.8800 35.9444 -0.0197
107.9000 35.9511 -0.0348
107.9200 35.9578 -0.0203
107.9400 35.9645 -0.0213
107.9600 35.9711 -0.0284
107.9800 35.9778 -0.0278
108.0000 35.9844 -0.0235
108.0200 35.9910 -0.0297
108.0400 35.9976 -0.0239
108.0600 36.0043 -0.0241
108.0800 36.0111 -0.0299
108.1000 36.0178 -0.0281
108.1200 36.0245 -0.0255
108.1400 36.0312 -0.0297
108.1600 36.0378 -0.0337
108.1800 36.0444 -0.0217
108.2000 36.0510 -0.0290
108.2200 36.0577 -0.0382
108.2400 36.0644 -0.0166
108.2600 36.0711 -0.0318
108.2800 36.0778 -0.0387
108.3000 36.0845 -0.0207
108.3200 36.0911 -0.0310
108.3400 36.0978 -0.0408
108.3600 36.1044 -0.0209
108.3800 36.1111 -0.0292
108.4000 36.1177 -0.0427
108.4200 36.1244 -0.0169
108.4400 36.1311 -0.0316
108.4600 36.1378 -0.0399
108.4800 36.1445 -0.0208
108.5000 36.1512 -0.0326
108.5200 36.1578 -0.0432
108.5400 36.1644 -0.0164
108.5600 36.1710 -0.0329
108.5800 36.1777 -0.0402
108.6000 36.1844 -0.0203
108.6200 36.1911 -0.0363
108.6400 36.1978 -0.0446
108.6600 36.2045 -0.0147
108.6800 36.2112 -0.0409
108.7000 36.2178 -0.0423
108.7200 36.2244 -0.0177
108.7400 36.2310 -0.0404
108.7600 36.2376 -0.0393
108.7800 36.2444 -0.0188
108.8000 36.2511 -0.0415
108.8200 36.2577 -0.0422
108.8400 36.2644 -0.0175
108.8600 36.2711 -0.0391
108.8800 36.2778 -0.0447
108.9000 36.2844 -0.0178
108.9200 36.2910 -0.0435
108.9400 36.2977 -0.0421
108.9600 36.3044 -0.0160
108.9800 36.3111 -0.0510
109.0000 36.3178 -0.0368
109.0200 36.3245 -0.0252
109.0400 36.3312 -0.0485
109.0600 36.3379 -0.0406
109.0800 36.3445 -0.0268
109.1000 36.3511 -0.0465
109.1200 36.3577 -0.0436
109.1400 36.3644 -0.0219
109.1600 36.3711 -0.0462
109.1800 36.3778 -0.0434
109.2000 36.3845 -0.0249
109.2200 36.3912 -0.0491
109.2400 36.3978 -0.0413
109.2600 36.4044 -0.0303
109.2800 36.4110 -0.0414
109.3000 36.4177 -0.0439
109.3200 36.4244 -0.0324
109.3400 36.4311 -0.0458
109.3600 36.4378 -0.0449
109.3800 36.4444 -0.0287
109.4000 36.4511 -0.0441
109.4200 36.4578 -0.0487
109.4400 36.4644 -0.0306
109.4600 36.4710 -0.0458
109.4800 36.4777 -0.0467
109.5000 36.4844 -0.0313
109.5200 36.4911 -0.0503
109.5400 36.4977 -0.0494
109.5600 36.5044 -0.0329
109.5800 36.5111 -0.0480
109.6000 36.5178 -0.0513
109.6200 36.5244 -0.0338
109.6400 36.5310 -0.0485
109.6600 36.5377 -0.0413
109.6800 36.5444 -0.0388
109.7000 36.5511 -0.0475
109.7200 36.5578 -0.0475
109.7400 36.5645 -0.0401
109.7600 36.5712 -0.0481
109.7800 36.5778 -0.0492
109.8000 36.5844 -0.0435
109.8200 36.5910 -0.0471
109.8400 36.5977 -0.0474
109.8600 36.6044 -0.0419
109.8800 36.6111 -0.0478
109.9000 36.6178 -0.0456
109.9200 36.6245 -0.0461
109.9400 36.6311 -0.0471
109.9600 36.6378 -0.0503
109.9800 36.6444 -0.0472
110.0000 36.6510 -0.0441
110.0200 36.6577 -0.0468
110.0400 36.6643 -0.0479
110.0600 36.6711 -0.0464
110.0800 36.6777 -0.0487
110.1000 36.6844 -0.0494
110.1200 36.6911 -0.0501
110.1400 36.6978 -0.0542
110.1600 36.7044 -0.0515
110.1800 36.7110 -0.0488
110.2000 36.7176 -0.0502
110.2200 36.7243 -0.0542
110.2400 36.7311 -0.0492
110.2600 36.7378 -0.0528
110.2800 36.7444 -0.0557
110.3000 36.7511 -0.0500
110.3200 36.7578 -0.0475
110.3400 36.7644 -0.0593
110.3600 36.7711 -0.0492
110.3800 36.7777 -0.0498
110.4000 36.7844 -0.0585
110.4200 36.7911 -0.0489
110.4400 36.7978 -0.0519
110.4600 36.8045 -0.0625
110.4800 36.8111 -0.0464
110.5000 36.8178 -0.0557
110.5200 36.8245 -0.0661
110.5400 36.8311 -0.0455
110.5600 36.8377 -0.0546
110.5800 36.8444 -0.0653
110.6000 36.8511 -0.0464
110.6200 36.8578 -0.0566
110.6400 36.8645 -0.0652
110.6600 36.8712 -0.0429
110.6800 36.8779 -0.0602
110.7000 36.8845 -0.0706
110.7200 36.8911 -0.0425
110.7400 36.8977 -0.0550
110.7600 36.9044 -0.0678
110.7800 36.9111 -0.0409
110.8000 36.9178 -0.0603
110.8200 36.9245 -0.0631
110.8400 36.9311 -0.0508
110.8600 36.9378 -0.0571
110.8800 36.9444 -0.0660
110.9000 36.9510 -0.0504
110.9200 36.9576 -0.0571
110.9400 36.9643 -0.0644
110.9600 36.9710 -0.0547
110.9800 36.9777 -0.0607
111.0000 36.9844 -0.0621
111.0200 36.9911 -0.0541
111.0400 36.9978 -0.0592
111.0600 37.0044 -0.0604
111.0800 37.0110 -0.0595
111.1000 37.0177 -0.0562
111.1200 37.0244 -0.0595
111.1400 37.0311 -0.0573
111.1600 37.0378 -0.0574
111.1800 37.0445 -0.0636
111.2000 37.0512 -0.0588
111.2200 37.0579 -0.0558
111.2400 37.0645 -0.0617
111.2600 37.0711 -0.0595
111.2800 37.0777 -0.0563
111.3000 37.0844 -0.0645
111.3200 37.0911 -0.0599
111.3400 37.0978 -0.0558
111.3600 37.1045 -0.0649
111.3800 37.1112 -0.0654
111.4000 37.1178 -0.0543
111.4200 37.1245 -0.0679
111.4400 37.1311 -0.0572
111.4600 37.1377 -0.0569
111.4800 37.1444 -0.0685
111.5000 37.1511 -0.0628
111.5200 37.1577 -0.0551
111.5400 37.1644 -0.0676
111.5600 37.1711 -0.0603
111.5800 37.1778 -0.0571
111.6000 37.1844 -0.0668
111.6200 37.1910 -0.0581
111.6400 37.1976 -0.0552
111.6600 37.2043 -0.0666
111.6800 37.2110 -0.0607
111.7000 37.2177 -0.0589
111.7200 37.2244 -0.0664
111.7400 37.2311 -0.0598
111.7600 37.2378 -0.0551
111.7800 37.2444 -0.0664
111.8000 37.2510 -0.0628
111.8200 37.2577 -0.0546
111.8400 37.2644 -0.0658
111.8600 37.2711 -0.0648
111.8800 37.2778 -0.0607
111.9000 37.2845 -0.0634
111.9200 37.2912 -0.0682
111.9400 37.2978 -0.0558
111.9600 37.3045 -0.0649
111.9800 37.3111 -0.0675
112.0000 37.3177 -0.0568
112.0200 37.3244 -0.0673
112.0400 37.3311 -0.0685
112.0600 37.3378 -0.0565
112.0800 37.3445 -0.0689
112.1000 37.3512 -0.0687
112.1200 37.3578 -0.0614
112.1400 37.3645 -0.0695
112.1600 37.3711 -0.0697
112.1800 37.3777 -0.0518
112.2000 37.3843 -0.0723
112.2200 37.3911 -0.0701
112.2400 37.3978 -0.0579
112.2600 37.4045 -0.0697
112.2800 37.4111 -0.0721
112.3000 37.4178 -0.0604
112.3200 37.4245 -0.0714
112.3400 37.4311 -0.0741
112.3600 37.4377 -0.0613
112.3800 37.4443 -0.0714
112.4000 37.4510 -0.0665
112.4200 37.4578 -0.0630
112.4400 37.4644 -0.0759
112.4600 37.4711 -0.0671
112.4800 37.4778 -0.0623
112.5000 37.4844 -0.0769
112.5200 37.4911 -0.0710
112.5400 37.4977 -0.0600
112.5600 37.5044 -0.0748
112.5800 37.5111 -0.0711
112.6000 37.5178 -0.0628
112.6200 37.5245 -0.0739
112.6400 37.5312 -0.0684
112.6600 37.5379 -0.0650
112.6800 37.5445 -0.0732
112.7000 37.5511 -0.0754
112.7200 37.5577 -0.0611
112.7400 37.5644 -0.0741
112.7600 37.5711 -0.0745
112.7800 37.5778 -0.0634
112.8000 37.5845 -0.0745
112.8200 37.5912 -0.0729
112.8400 37.5978 -0.0630
112.8600 37.6045 -0.0787
112.8800 37.6111 -0.0742
112.9000 37.6177 -0.0660
112.9200 37.6244 -0.0772
112.9400 37.6311 -0.0734
112.9600 37.6378 -0.0674
112.9800 37.6444 -0.0787
113.0000 37.6511 -0.0742
113.0200 37.6578 -0.0649
113.0400 37.6645 -0.0791
113.0600 37.6711 -0.0763
113.0800 37.6777 -0.0656
113.1000 37.6843 -0.0760
113.1200 37.6910 -0.0792
113.1400 37.6977 -0.0644
113.1600 37.7044 -0.0768
113.1800 37.7111 -0.0758
113.2000 37.7178 -0.0703
113.2200 37.7245 -0.0780
113.2400 37.7311 -0.0794
113.2600 37.7377 -0.0651
113.2800 37.7443 -0.0775
113.3000 37.7510 -0.0790
113.3200 37.7578 -0.0697
113.3400 37.7645 -0.0789
113.3600 37.7712 -0.0836
113.3800 37.7779 -0.0664
113.4000 37.7845 -0.0778
113.4200 37.7911 -0.0782
113.4400 37.7978 -0.0655
113.4600 37.8044 -0.0747
113.4800 37.8111 -0.0795
113.5000 37.8178 -0.0751
113.5200 37.8245 -0.0755
113.5400 37.8311 -0.0783
113.5600 37.8378 -0.0753
113.5800 37.8445 -0.0795
113.6000 37.8511 -0.0828
113.6200 37.8577 -0.0767
113.6400 37.8643 -0.0741
113.6600 37.8710 -0.0794
113.6800 37.8777 -0.0770
113.7000 37.8844 -0.0778
113.7200 37.8911 -0.0805
113.7400 37.8978 -0.0761
113.7600 37.9045 -0.0744
113.7800 37.9111 -0.0888
113.8000 37.9177 -0.0749
113.8200 37.9243 -0.0750
113.8400 37.9310 -0.0893
113.8600 37.9377 -0.0772
113.8800 37.9444 -0.0770
113.9000 37.9511 -0.0928
113.9200 37.9578 -0.0730
113.9400 37.9644 -0.0812
113.9600 37.9711 -0.0900
113.9800 37.9777 -0.0761
114.0000 37.9844 -0.0822
114.0200 37.9911 -0.0920
114.0400 37.9978 -0.0762
114.0600 38.0045 -0.0879
114.0800 38.0112 -0.0913
114.1000 38.0178 -0.0782
114.1200 38.0245 -0.0858
114.1400 38.0311 -0.0872
114.1600 38.0377 -0.0848
114.1800 38.0444 -0.0842
114.2000 38.0511 -0.0876
114.2200 38.0578 -0.0895
114.2400 38.0645 -0.0859
114.2600 38.0712 -0.0836
114.2800 38.0779 -0.0913
114.3000 38.0845 -0.0879
114.3200 38.0911 -0.0879
114.3400 38.0977 -0.0880
114.3600 38.1043 -0.0841
114.3800 38.1110 -0.0864
114.4000 38.1177 -0.0960
114.4200 38.1244 -0.0869
114.4400 38.1311 -0.0920
114.4600 38.1378 -0.0907
114.4800 38.1444 -0.0849
114.5000 38.1511 -0.0955
114.5200 38.1577 -0.0957
114.5400 38.1644 -0.0806
114.5600 38.1710 -0.0951
114.5800 38.1777 -0.0977
114.6000 38.1844 -0.0792
114.6200 38.1911 -0.0977
114.6400 38.1978 -0.0981
114.6600 38.2044 -0.0818
114.6800 38.2111 -0.0989
114.7000 38.2177 -0.0920
114.7200 38.2244 -0.0842
114.7400 38.2311 -0.1038
114.7600 38.2378 -0.0936
114.7800 38.2445 -0.0847
114.8000 38.2511 -0.0983
114.8200 38.2578 -0.0964
114.8400 38.2645 -0.0887
114.8600 38.2711 -0.1037
114.8800 38.2777 -0.0908
114.9000 38.2843 -0.0910
114.9200 38.2910 -0.0988
114.9400 38.2977 -0.0949
114.9600 38.3045 -0.0938
114.9800 38.3111 -0.0991
115.0000 38.3178 -0.0883
115.0200 38.3245 -0.0947
115.0400 38.3311 -0.1014
115.0600 38.3377 -0.0955
115.0800 38.3444 -0.0924
115.1000 38.3510 -0.0981
115.1200 38.3577 -0.0955
115.1400 38.3644 -0.0950
115.1600 38.3711 -0.0977
115.1800 38.3778 -0.0979
115.2000 38.3845 -0.0924
115.2200 38.3911 -0.1005
115.2400 38.3977 -0.1005
115.2600 38.4043 -0.0916
115.2800 38.4110 -0.1021
115.3000 38.4177 -0.0967
115.3200 38.4244 -0.0931
115.3400 38.4311 -0.0997
115.3600 38.4378 -0.1008
115.3800 38.4444 -0.0921
115.4000 38.4511 -0.1049
115.4200 38.4577 -0.1034
115.4400 38.4643 -0.0912
115.4600 38.4710 -0.1014
115.4800 38.4778 -0.1085
115.5000 38.4845 -0.0919
115.5200 38.4911 -0.1063
115.5400 38.4978 -0.1059
115.5600 38.5045 -0.0916
115.5800 38.5112 -0.1068
115.6000 38.5178 -0.1053
115.6200 38.5244 -0.0907
115.6400 38.5311 -0.1104
115.6600 38.5378 -0.1045
115.6800 38.5445 -0.0927
115.7000 38.5512 -0.1079
115.7200 38.5578 -0.1058
115.7400 38.5645 -0.0920
115.7600 38.5711 -0.1149
115.7800 38.5777 -0.1014
115.8000 38.5843 -0.0954
115.8200 38.5910 -0.1155
115.8400 38.5977 -0.1026
115.8600 38.6044 -0.0989
115.8800 38.6111 -0.1138
115.9000 38.6178 -0.1043
115.9200 38.6245 -0.1012
115.9400 38.6311 -0.1126
115.9600 38.6377 -0.1034
115.9800 38.6443 -0.1053
116.0000 38.6510 -0.1058
116.0200 38.6578 -0.1050
116.0400 38.6645 -0.1134
116.0600 38.6711 -0.1079
116.0800 38.6778 -0.1003
116.1000 38.6844 -0.1124
116.1200 38.6911 -0.1071
116.1400 38.6978 -0.1135
116.1600 38.7044 -0.1133
116.1800 38.7111 -0.1031
116.2000 38.7178 -0.1112
116.2200 38.7245 -0.1154
116.2400 38.7311 -0.1012
116.2600 38.7378 -0.1147
116.2800 38.7445 -0.1110
116.3000 38.7512 -0.1074
116.3200 38.7578 -0.1106
116.3400 38.7644 -0.1096
116.3600 38.7710 -0.1094
116.3800 38.7777 -0.1129
116.4000 38.7844 -0.1130
116.4200 38.7911 -0.1043
116.4400 38.7978 -0.1131
116.4600 38.8045 -0.1141
116.4800 38.8111 -0.1067
116.5000 38.8177 -0.1103
116.5200 38.8243 -0.1110
116.5400 38.8310 -0.1097
116.5600 38.8377 -0.1097
116.5800 38.8444 -0.1165
116.6000 38.8511 -0.1126
116.6200 38.8578 -0.1070
116.6400 38.8645 -0.1210
116.6600 38.8711 -0.1101
116.6800 38.8777 -0.1097
116.7000 38.8843 -0.1160
116.7200 38.8910 -0.1123
116.7400 38.8977 -0.1034
116.7600 38.9044 -0.1182
116.7800 38.9111 -0.1125
116.8000 38.9178 -0.1022
116.8200 38.9245 -0.1209
116.8400 38.9311 -0.1154
116.8600 38.9378 -0.1096
116.8800 38.9444 -0.1202
116.9000 38.9510 -0.1082
116.9200 38.9578 -0.1107
116.9400 38.9645 -0.1211
116.9600 38.9712 -0.1101
116.9800 38.9779 -0.1130
117.0000 38.9845 -0.1236
117.0200 38.9911 -0.1095
117.0400 38.9977 -0.1160
117.0600 39.0044 -0.1251
117.0800 39.0110 -0.1048
117.1000 39.0178 -0.1227
117.1200 39.0245 -0.1234
117.1400 39.0311 -0.1077
117.1600 39.0378 -0.1265
117.1800 39.0445 -0.1267
117.2000 39.0511 -0.1034
117.2200 39.0578 -0.1241
117.2400 39.0644 -0.1214
117.2600 39.0710 -0.1100
117.2800 39.0777 -0.1255
117.3000 39.0844 -0.1265
117.3200 39.0911 -0.1083
117.3400 39.0978 -0.1327
117.3600 39.1045 -0.1226
117.3800 39.1111 -0.1100
117.4000 39.1177 -0.1295
117.4200 39.1243 -0.1170
117.4400 39.1310 -0.1117
117.4600 39.1377 -0.1313
117.4800 39.1444 -0.1216
117.5000 39.1511 -0.1168
117.5200 39.1578 -0.1267
117.5400 39.1644 -0.1165
117.5600 39.1711 -0.1210
117.5800 39.1777 -0.1297
117.6000 39.1844 -0.1171
117.6200 39.1910 -0.1148
117.6400 39.1977 -0.1333
117.6600 39.2044 -0.1222
117.6800 39.2111 -0.1186
117.7000 39.2178 -0.1321
117.7200 39.2245 -0.1225
117.7400 39.2312 -0.1168
117.7600 39.2378 -0.1329
117.7800 39.2444 -0.1217
117.8000 39.2510 -0.1222
117.8200 39.2577 -0.1308
117.8400 39.2644 -0.1239
117.8600 39.2711 -0.1201
117.8800 39.2778 -0.1350
117.9000 39.2845 -0.1246
117.9200 39.2911 -0.1230
117.9400 39.2977 -0.1288
117.9600 39.3043 -0.1295
117.9800 39.3110 -0.1168
118.0000 39.3177 -0.1326
118.0200 39.3244 -0.1328
118.0400 39.3311 -0.1217
118.0600 39.3378 -0.1286
118.0800 39.3445 -0.1326
118.1000 39.3511 -0.1241
118.1200 39.3577 -0.1331
118.1400 39.3644 -0.1300
118.1600 39.3710 -0.1232
118.1800 39.3777 -0.1353
118.2000 39.3844 -0.1358
118.2200 39.3911 -0.1239
118.2400 39.3978 -0.1325
118.2600 39.4044 -0.1397
118.2800 39.4111 -0.1246
118.3000 39.4178 -0.1379
118.3200 39.4244 -0.1318
118.3400 39.4310 -0.1319
118.3600 39.4377 -0.1322
118.3800 39.4444 -0.1329
118.4000 39.4511 -0.1354
118.4200 39.4578 -0.1348
118.4400 39.4645 -0.1357
118.4600 39.4711 -0.1340
118.4800 39.4778 -0.1292
118.5000 39.4844 -0.1391
118.5200 39.4910 -0.1331
118.5400 39.4977 -0.1287
118.5600 39.5045 -0.1440
118.5800 39.5112 -0.1406
118.6000 39.5178 -0.1261
118.6200 39.5245 -0.1485
118.6400 39.5312 -0.1390
118.6600 39.5378 -0.1283
118.6800 39.5444 -0.1466
118.7000 39.5510 -0.1286
118.7200 39.5577 -0.1343
118.7400 39.5644 -0.1476
118.7600 39.5711 -0.1324
118.7800 39.5777 -0.1353
118.8000 39.5844 -0.1516
118.8200 39.5911 -0.1305
118.8400 39.5978 -0.1366
118.8600 39.6044 -0.1527
118.8800 39.6110 -0.1318
118.9000 39.6177 -0.1364
118.9200 39.6244 -0.1498
118.9400 39.6311 -0.1309
118.9600 39.6378 -0.1442
118.9800 39.6445 -0.1510
119.0000 39.6511 -0.1320
119.0200 39.6578 -0.1379
119.0400 39.6644 -0.1522
119.0600 39.6710 -0.1342
119.0800 39.6777 -0.1439
119.1000 39.6845 -0.1532
119.1200 39.6912 -0.1365
119.1400 39.6978 -0.1393
119.1600 39.7045 -0.1519
119.1800 39.7112 -0.1375
119.2000 39.7178 -0.1467
119.2200 39.7244 -0.1499
119.2400 39.7310 -0.1396
119.2600 39.7377 -0.1451
119.2800 39.7444 -0.1507
119.3000 39.7511 -0.1471
119.3200 39.7578 -0.1456
119.3400 39.7645 -0.1484
119.3600 39.7712 -0.1454
119.3800 39.7778 -0.1519
119.4000 39.7844 -0.1487
119.4200 39.7910 -0.1463
119.4400 39.7977 -0.1468
119.4600 39.8044 -0.1535
119.4800 39.8111 -0.1487
119.5000 39.8178 -0.1482
119.5200 39.8245 -0.1507
119.5400 39.8312 -0.1536
119.5600 39.8378 -0.1430
119.5800 39.8444 -0.1543
119.6000 39.8510 -0.1611
119.6200 39.8577 -0.1397
119.6400 39.8644 -0.1497
119.6600 39.8711 -0.1705
119.6800 39.8778 -0.1401
119.7000 39.8844 -0.1511
119.7200 39.8911 -0.1699
119.7400 39.8978 -0.1450
119.7600 39.9044 -0.1578
119.7800 39.9110 -0.1671
119.8000 39.9177 -0.1346
119.8200 39.9244 -0.1642
119.8400 39.9311 -0.1666
119.8600 39.9378 -0.1390
119.8800 39.9445 -0.1695
119.9000 39.9512 -0.1584
119.9200 39.9578 -0.1443
119.9400 39.9644 -0.1685
119.9600 39.9710 -0.1550
119.9800 39.9777 -0.1491
120.0000 39.9844 -0.1748
120.0200 39.9911 -0.1545
120.0400 39.9978 -0.1530
120.0470 40.0001 -0.1703
