Raw Data
Time Displacement Force
(s) (mm) (N)
0.0000 0.0000 0.3319
0.0200 0.0001 0.3225
0.0400 0.0010 0.3658
0.0600 0.0048 0.3702
0.0800 0.0105 0.3140
0.1000 0.0163 0.3316
0.1200 0.0224 0.3641
0.1400 0.0292 0.3214
0.1600 0.0365 0.3342
0.1800 0.0440 0.3486
0.2000 0.0511 0.3192
0.2200 0.0579 0.3346
0.2400 0.0645 0.3519
0.2600 0.0711 0.3234
0.2800 0.0778 0.3416
0.3000 0.0845 0.3520
0.3200 0.0913 0.3238
0.3400 0.0980 0.3424
0.3600 0.1046 0.3481
0.3800 0.1113 0.3237
0.4000 0.1180 0.3475
0.4200 0.1246 0.3444
0.4400 0.1313 0.3330
0.4600 0.1379 0.3448
0.4800 0.1446 0.3453
0.5000 0.1513 0.3351
0.5200 0.1580 0.3492
0.5400 0.1647 0.3438
0.5600 0.1714 0.3338
0.5800 0.1780 0.3463
0.6000 0.1846 0.3455
0.6200 0.1912 0.3382
0.6400 0.1979 0.3446
0.6600 0.2046 0.3499
0.6800 0.2113 0.3422
0.7000 0.2180 0.3410
0.7200 0.2247 0.3479
0.7400 0.2314 0.3414
0.7600 0.2380 0.3400
0.7800 0.2446 0.3522
0.8000 0.2512 0.3381
0.8200 0.2579 0.3465
0.8400 0.2646 0.3530
0.8600 0.2713 0.3365
0.8800 0.2780 0.3399
0.9000 0.2846 0.3569
0.9200 0.2913 0.3344
0.9400 0.2980 0.3447
0.9600 0.3046 0.3523
0.9800 0.3112 0.3366
1.0000 0.3179 0.3448
1.0200 0.3246 0.3515
1.0400 0.3313 0.3374
1.0600 0.3379 0.3495
1.0800 0.3446 0.3480
1.1000 0.3513 0.3379
1.1200 0.3580 0.3404
1.1400 0.3646 0.3465
1.1600 0.3712 0.3436
1.1800 0.3779 0.3403
1.2000 0.3846 0.3415
1.2200 0.3913 0.3383
1.2400 0.3980 0.3395
1.2600 0.4047 0.3431
1.2800 0.4114 0.3416
1.3000 0.4180 0.3375
1.3200 0.4247 0.3382
1.3400 0.4313 0.3396
1.3600 0.4379 0.3366
1.3800 0.4446 0.3391
1.4000 0.4513 0.3430
1.4200 0.4580 0.3284
1.4400 0.4647 0.3384
1.4600 0.4714 0.3395
1.4800 0.4780 0.3309
1.5000 0.4846 0.3369
1.5200 0.4912 0.3426
1.5400 0.4979 0.3258
1.5600 0.5046 0.3385
1.5800 0.5113 0.3370
1.6000 0.5180 0.3280
1.6200 0.5247 0.3380
1.6400 0.5313 0.3335
1.6600 0.5380 0.3260
1.6800 0.5446 0.3323
1.7000 0.5512 0.3368
1.7200 0.5578 0.3249
1.7400 0.5645 0.3334
1.7600 0.5712 0.3340
1.7800 0.5779 0.3209
1.8000 0.5846 0.3345
1.8200 0.5913 0.3335
1.8400 0.5979 0.3157
1.8600 0.6046 0.3335
1.8800 0.6112 0.3351
1.9000 0.6179 0.3220
1.9200 0.6246 0.3298
1.9400 0.6313 0.3299
1.9600 0.6380 0.3149
1.9800 0.6447 0.3299
2.0000 0.6514 0.3273
2.0200 0.6581 0.3157
2.0400 0.6647 0.3282
2.0600 0.6713 0.3244
2.0800 0.6779 0.3164
2.1000 0.6846 0.3313
2.1200 0.6913 0.3245
2.1400 0.6980 0.3173
2.1600 0.7047 0.3275
2.1800 0.7114 0.3228
2.2000 0.7180 0.3149
2.2200 0.7246 0.3293
2.2400 0.7312 0.3201
2.2600 0.7379 0.3146
2.2800 0.7446 0.3236
2.3000 0.7513 0.3183
2.3200 0.7580 0.3158
2.3400 0.7647 0.3204
2.3600 0.7713 0.3211
2.3800 0.7780 0.3061
2.4000 0.7846 0.3206
2.4200 0.7912 0.3207
2.4400 0.7979 0.3109
2.4600 0.8046 0.3172
2.4800 0.8113 0.3174
2.5000 0.8180 0.3041
2.5200 0.8246 0.3167
2.5400 0.8313 0.3154
2.5600 0.8380 0.3096
2.5800 0.8446 0.3146
2.6000 0.8513 0.3135
2.6200 0.8579 0.3102
2.6400 0.8646 0.3197
2.6600 0.8713 0.3130
2.6800 0.8780 0.3055
2.7000 0.8847 0.3151
2.7200 0.8914 0.3160
2.7400 0.8980 0.3001
2.7600 0.9047 0.3117
2.7800 0.9113 0.3147
2.8000 0.9179 0.3073
2.8200 0.9246 0.3115
2.8400 0.9313 0.3108
2.8600 0.9380 0.3058
2.8800 0.9447 0.3092
2.9000 0.9514 0.3148
2.9200 0.9580 0.3022
2.9400 0.9647 0.3075
2.9600 0.9713 0.3162
2.9800 0.9779 0.3019
3.0000 0.9846 0.3078
3.0200 0.9913 0.3190
3.0400 0.9980 0.2985
3.0600 1.0046 0.3058
3.0800 1.0113 0.3158
3.1000 1.0180 0.3045
3.1200 1.0246 0.2997
3.1400 1.0312 0.3172
3.1600 1.0379 0.3038
3.1800 1.0445 0.3003
3.2000 1.0512 0.3176
3.2200 1.0580 0.3017
3.2400 1.0646 0.2962
3.2600 1.0713 0.3184
3.2800 1.0780 0.3005
3.3000 1.0846 0.2925
3.3200 1.0913 0.3197
3.3400 1.0979 0.3007
3.3600 1.1046 0.2979
3.3800 1.1113 0.3163
3.4000 1.1180 0.2956
3.4200 1.1247 0.2915
3.4400 1.1314 0.3176
3.4600 1.1381 0.2963
3.4800 1.1447 0.2912
3.5000 1.1513 0.3126
3.5200 1.1579 0.2999
3.5400 1.1646 0.2922
3.5600 1.1713 0.3153
3.5800 1.1780 0.2896
3.6000 1.1847 0.2971
3.6200 1.1914 0.3127
3.6400 1.1980 0.2869
3.6600 1.2047 0.2983
3.6800 1.2113 0.3121
3.7000 1.2179 0.2840
3.7200 1.2245 0.2976
3.7400 1.2312 0.3100
3.7600 1.2380 0.2858
3.7800 1.2447 0.2944
3.8000 1.2513 0.3096
3.8200 1.2580 0.2810
3.8400 1.2646 0.2919
3.8600 1.2712 0.3047
3.8800 1.2779 0.2865
3.9000 1.2845 0.2975
3.9200 1.2913 0.3000
3.9400 1.2980 0.2851
3.9600 1.3046 0.2934
3.9800 1.3113 0.3006
4.0000 1.3180 0.2799
4.0200 1.3246 0.2947
4.0400 1.3313 0.2995
4.0600 1.3379 0.2827
4.0800 1.3446 0.2949
4.1000 1.3513 0.2969
4.1200 1.3580 0.2818
4.1400 1.3647 0.2928
4.1600 1.3714 0.2940
4.1800 1.3781 0.2904
4.2000 1.3847 0.2852
4.2200 1.3913 0.2931
4.2400 1.3979 0.2838
4.2600 1.4046 0.2872
4.2800 1.4113 0.2942
4.3000 1.4180 0.2831
4.3200 1.4247 0.2873
4.3400 1.4314 0.2940
4.3600 1.4380 0.2831
4.3800 1.4446 0.2837
4.4000 1.4513 0.2927
4.4200 1.4579 0.2824
4.4400 1.4646 0.2836
4.4600 1.4713 0.2890
4.4800 1.4780 0.2822
4.5000 1.4846 0.2852
4.5200 1.4913 0.2915
4.5400 1.4979 0.2812
4.5600 1.5046 0.2826
4.5800 1.5112 0.2878
4.6000 1.5179 0.2828
4.6200 1.5245 0.2883
4.6400 1.5312 0.2889
4.6600 1.5380 0.2767
4.6800 1.5447 0.2854
4.7000 1.5513 0.2822
4.7200 1.5580 0.2777
4.7400 1.5647 0.2838
4.7600 1.5713 0.2800
4.7800 1.5779 0.2805
4.8000 1.5846 0.2829
4.8200 1.5913 0.2779
4.8400 1.5980 0.2866
4.8600 1.6047 0.2822
4.8800 1.6114 0.2741
4.9000 1.6180 0.2836
4.9200 1.6247 0.2753
4.9400 1.6313 0.2766
4.9600 1.6379 0.2844
4.9800 1.6446 0.2748
5.0000 1.6513 0.2663
5.0200 1.6580 0.2856
5.0400 1.6647 0.2717
5.0600 1.6713 0.2706
5.0800 1.6780 0.2831
5.1000 1.6847 0.2701
5.1200 1.6913 0.2653
5.1400 1.6980 0.2837
5.1600 1.7046 0.2694
5.1800 1.7113 0.2705
5.2000 1.7180 0.2767
5.2200 1.7246 0.2662
5.2400 1.7313 0.2688
5.2600 1.7380 0.2822
5.2800 1.7447 0.2626
5.3000 1.7513 0.2668
5.3200 1.7579 0.2763
5.3400 1.7645 0.2670
5.3600 1.7712 0.2678
5.3800 1.7780 0.2765
5.4000 1.7847 0.2637
5.4200 1.7913 0.2653
5.4400 1.7980 0.2719
5.4600 1.8046 0.2653
5.4800 1.8113 0.2671
5.5000 1.8179 0.2710
5.5200 1.8246 0.2637
5.5400 1.8313 0.2662
5.5600 1.8380 0.2717
5.5800 1.8447 0.2636
5.6000 1.8513 0.2674
5.6200 1.8580 0.2702
5.6400 1.8647 0.2650
5.6600 1.8713 0.2589
5.6800 1.8780 0.2735
5.7000 1.8846 0.2591
5.7200 1.8913 0.2607
5.7400 1.8980 0.2738
5.7600 1.9047 0.2577
5.7800 1.9114 0.2559
5.8000 1.9181 0.2748
5.8200 1.9247 0.2586
5.8400 1.9313 0.2565
5.8600 1.9379 0.2713
5.8800 1.9445 0.2607
5.9000 1.9513 0.2599
5.9200 1.9580 0.2670
5.9400 1.9647 0.2534
5.9600 1.9713 0.2631
5.9800 1.9780 0.2636
6.0000 1.9847 0.2535
6.0200 1.9913 0.2645
6.0400 1.9979 0.2613
6.0600 2.0046 0.2578
6.0800 2.0112 0.2595
6.1000 2.0179 0.2601
6.1200 2.0246 0.2611
6.1400 2.0313 0.2623
6.1600 2.0380 0.2553
6.1800 2.0447 0.2605
6.2000 2.0513 0.2608
6.2200 2.0579 0.2510
6.2400 2.0646 0.2654
6.2600 2.0713 0.2564
6.2800 2.0780 0.2438
6.3000 2.0847 0.2716
6.3200 2.0914 0.2509
6.3400 2.0981 0.2486
6.3600 2.1047 0.2634
6.3800 2.1113 0.2505
6.4000 2.1179 0.2508
6.4200 2.1246 0.2639
6.4400 2.1313 0.2486
6.4600 2.1380 0.2546
6.4800 2.1447 0.2662
6.5000 2.1513 0.2422
6.5200 2.1580 0.2547
6.5400 2.1647 0.2673
6.5600 2.1713 0.2384
6.5800 2.1779 0.2584
6.6000 2.1846 0.2649
6.6200 2.1913 0.2396
6.6400 2.1980 0.2548
6.6600 2.2046 0.2577
6.6800 2.2113 0.2438
6.7000 2.2180 0.2605
6.7200 2.2247 0.2572
6.7400 2.2313 0.2374
6.7600 2.2379 0.2646
6.7800 2.2445 0.2508
6.8000 2.2512 0.2408
6.8200 2.2579 0.2596
6.8400 2.2647 0.2520
6.8600 2.2714 0.2432
6.8800 2.2780 0.2521
6.9000 2.2847 0.2492
6.9200 2.2913 0.2431
6.9400 2.2979 0.2523
6.9600 2.3046 0.2532
6.9800 2.3113 0.2410
7.0000 2.3180 0.2517
7.0200 2.3247 0.2515
7.0400 2.3313 0.2453
7.0600 2.3380 0.2470
7.0800 2.3447 0.2470
7.1000 2.3513 0.2412
7.1200 2.3580 0.2484
7.1400 2.3646 0.2543
7.1600 2.3713 0.2422
7.1800 2.3780 0.2475
7.2000 2.3847 0.2535
7.2200 2.3914 0.2373
7.2400 2.3980 0.2506
7.2600 2.4047 0.2536
7.2800 2.4114 0.2348
7.3000 2.4180 0.2485
7.3200 2.4246 0.2531
7.3400 2.4312 0.2351
7.3600 2.4379 0.2447
7.3800 2.4446 0.2549
7.4000 2.4513 0.2289
7.4200 2.4580 0.2475
7.4400 2.4647 0.2531
7.4600 2.4713 0.2347
7.4800 2.4779 0.2512
7.5000 2.4845 0.2484
7.5200 2.4912 0.2336
7.5400 2.4979 0.2499
7.5600 2.5046 0.2441
7.5800 2.5113 0.2373
7.6000 2.5180 0.2491
7.6200 2.5246 0.2452
7.6400 2.5313 0.2307
7.6600 2.5379 0.2461
7.6800 2.5446 0.2487
7.7000 2.5513 0.2360
7.7200 2.5580 0.2472
7.7400 2.5647 0.2423
7.7600 2.5714 0.2369
7.7800 2.5780 0.2396
7.8000 2.5847 0.2419
7.8200 2.5914 0.2391
7.8400 2.5980 0.2419
7.8600 2.6046 0.2442
7.8800 2.6112 0.2412
7.9000 2.6180 0.2359
7.9200 2.6247 0.2418
7.9400 2.6314 0.2394
7.9600 2.6380 0.2376
7.9800 2.6447 0.2388
8.0000 2.6513 0.2359
8.0200 2.6579 0.2399
8.0400 2.6645 0.2407
8.0600 2.6712 0.2405
8.0800 2.6780 0.2364
8.1000 2.6847 0.2328
8.1200 2.6913 0.2386
8.1400 2.6980 0.2408
8.1600 2.7047 0.2350
8.1800 2.7113 0.2316
8.2000 2.7179 0.2370
8.2200 2.7246 0.2429
8.2400 2.7312 0.2285
8.2600 2.7379 0.2367
8.2800 2.7446 0.2401
8.3000 2.7513 0.2280
8.3200 2.7579 0.2349
8.3400 2.7646 0.2417
8.3600 2.7713 0.2251
8.3800 2.7779 0.2331
8.4000 2.7845 0.2384
8.4200 2.7912 0.2330
8.4400 2.7980 0.2290
8.4600 2.8047 0.2318
8.4800 2.8114 0.2256
8.5000 2.8181 0.2339
8.5200 2.8247 0.2337
8.5400 2.8313 0.2288
8.5600 2.8379 0.2297
8.5800 2.8446 0.2321
8.6000 2.8513 0.2281
8.6200 2.8580 0.2336
8.6400 2.8647 0.2233
8.6600 2.8714 0.2260
8.6800 2.8780 0.2345
8.7000 2.8847 0.2192
8.7200 2.8913 0.2256
8.7400 2.8979 0.2349
8.7600 2.9046 0.2182
8.7800 2.9112 0.2246
8.8000 2.9179 0.2352
8.8200 2.9246 0.2215
8.8400 2.9313 0.2238
8.8600 2.9380 0.2268
8.8800 2.9447 0.2202
8.9000 2.9513 0.2233
8.9200 2.9579 0.2273
8.9400 2.9645 0.2133
8.9600 2.9712 0.2275
8.9800 2.9779 0.2213
9.0000 2.9846 0.2148
9.0200 2.9913 0.2290
9.0400 2.9980 0.2220
9.0600 3.0047 0.2105
9.0800 3.0113 0.2264
9.1000 3.0180 0.2157
9.1200 3.0246 0.2181
9.1400 3.0313 0.2336
9.1600 3.0380 0.2117
9.1800 3.0447 0.2132
9.2000 3.0513 0.2317
9.2200 3.0580 0.2233
9.2400 3.0647 0.2157
9.2600 3.0714 0.2255
9.2800 3.0780 0.2150
9.3000 3.0846 0.2196
9.3200 3.0912 0.2295
9.3400 3.0979 0.2140
9.3600 3.1046 0.2216
9.3800 3.1113 0.2277
9.4000 3.1180 0.2076
9.4200 3.1247 0.2168
9.4400 3.1314 0.2296
9.4600 3.1380 0.2115
9.4800 3.1446 0.2114
9.5000 3.1512 0.2307
9.5200 3.1580 0.2105
9.5400 3.1647 0.2166
9.5600 3.1714 0.2238
9.5800 3.1780 0.2091
9.6000 3.1847 0.2169
9.6200 3.1913 0.2254
9.6400 3.1979 0.2050
9.6600 3.2046 0.2134
9.6800 3.2112 0.2260
9.7000 3.2179 0.2016
9.7200 3.2246 0.2168
9.7400 3.2313 0.2243
9.7600 3.2380 0.2011
9.7800 3.2446 0.2171
9.8000 3.2513 0.2197
9.8200 3.2579 0.2060
9.8400 3.2646 0.2192
9.8600 3.2712 0.2152
9.8800 3.2779 0.2068
9.9000 3.2847 0.2155
9.9200 3.2914 0.2139
9.9400 3.2981 0.2080
9.9600 3.3048 0.2180
9.9800 3.3114 0.2066
10.0000 3.3180 0.2083
10.0200 3.3246 0.2148
10.0400 3.3312 0.2110
10.0600 3.3380 0.2063
10.0800 3.3447 0.2102
10.1000 3.3514 0.2070
10.1200 3.3580 0.2120
10.1400 3.3647 0.2075
10.1600 3.3713 0.2094
10.1800 3.3780 0.2110
10.2000 3.3846 0.2055
10.2200 3.3912 0.2136
10.2400 3.3979 0.2116
10.2600 3.4046 0.2011
10.2800 3.4113 0.2158
10.3000 3.4180 0.2105
10.3200 3.4247 0.2000
10.3400 3.4313 0.2206
10.3600 3.4380 0.2029
10.3800 3.4445 0.2013
10.4000 3.4512 0.2241
10.4200 3.4579 0.2023
10.4400 3.4646 0.2002
10.4600 3.4713 0.2238
10.4800 3.4780 0.1974
10.5000 3.4847 0.2035
10.5200 3.4913 0.2209
10.5400 3.4979 0.1974
10.5600 3.5046 0.2048
10.5800 3.5112 0.2257
10.6000 3.5179 0.1902
10.6200 3.5247 0.2096
10.6400 3.5314 0.2193
10.6600 3.5380 0.1931
10.6800 3.5447 0.2032
10.7000 3.5514 0.2163
10.7200 3.5580 0.1946
10.7400 3.5646 0.2033
10.7600 3.5713 0.2121
10.7800 3.5780 0.1936
10.8000 3.5846 0.2025
10.8200 3.5913 0.2136
10.8400 3.5980 0.1946
10.8600 3.6047 0.2046
10.8800 3.6114 0.2114
10.9000 3.6180 0.1939
10.9200 3.6246 0.2075
10.9400 3.6312 0.2124
10.9600 3.6379 0.1924
10.9800 3.6446 0.1993
11.0000 3.6513 0.2128
11.0200 3.6580 0.1918
11.0400 3.6647 0.2023
11.0600 3.6713 0.2074
11.0800 3.6779 0.1912
11.1000 3.6845 0.1981
11.1200 3.6912 0.2088
11.1400 3.6979 0.1872
11.1600 3.7046 0.1991
11.1800 3.7113 0.2082
11.2000 3.7180 0.1843
11.2200 3.7246 0.1982
11.2400 3.7313 0.2059
11.2600 3.7380 0.1839
11.2800 3.7446 0.1976
11.3000 3.7513 0.2013
11.3200 3.7579 0.1879
11.3400 3.7646 0.2003
11.3600 3.7713 0.1987
11.3800 3.7780 0.1887
11.4000 3.7847 0.2002
11.4200 3.7914 0.1985
11.4400 3.7980 0.1863
11.4600 3.8046 0.2013
11.4800 3.8112 0.1959
11.5000 3.8179 0.1847
11.5200 3.8247 0.2000
11.5400 3.8314 0.1969
11.5600 3.8380 0.1908
11.5800 3.8447 0.2020
11.6000 3.8514 0.1874
11.6200 3.8580 0.1927
11.6400 3.8646 0.1944
11.6600 3.8712 0.1925
11.6800 3.8779 0.1904
11.7000 3.8846 0.1953
11.7200 3.8913 0.1914
11.7400 3.8980 0.1933
11.7600 3.9047 0.1958
11.7800 3.9114 0.1923
11.8000 3.9180 0.1952
11.8200 3.9246 0.1916
11.8400 3.9312 0.1865
11.8600 3.9379 0.1974
11.8800 3.9446 0.1897
11.9000 3.9513 0.1922
11.9200 3.9580 0.1946
11.9400 3.9647 0.1876
11.9600 3.9713 0.1904
11.9800 3.9780 0.1907
12.0000 3.9846 0.1990
12.0200 3.9912 0.1893
12.0400 3.9979 0.1855
12.0600 4.0047 0.2016
12.0800 4.0114 0.1944
12.1000 4.0180 0.1773
12.1200 4.0247 0.1955
12.1400 4.0314 0.1958
12.1600 4.0380 0.1741
12.1800 4.0446 0.2007
12.2000 4.0513 0.2005
12.2200 4.0580 0.1598
12.2400 4.0647 0.2057
12.2600 4.0713 0.1991
12.2800 4.0780 0.1578
12.3000 4.0847 0.2046
12.3200 4.0914 0.2040
12.3400 4.0980 0.1541
12.3600 4.1046 0.1983
12.3800 4.1112 0.2029
12.4000 4.1179 0.1503
12.4200 4.1246 0.2108
12.4400 4.1313 0.1999
12.4600 4.1380 0.1464
12.4800 4.1447 0.2072
12.5000 4.1514 0.1938
12.5200 4.1580 0.1581
12.5400 4.1646 0.2049
12.5600 4.1712 0.1909
12.5800 4.1779 0.1582
12.6000 4.1846 0.1970
12.6200 4.1913 0.1868
12.6400 4.1980 0.1632
12.6600 4.2046 0.2045
12.6800 4.2113 0.1738
12.7000 4.2180 0.1698
12.7200 4.2246 0.2040
12.7400 4.2312 0.1731
12.7600 4.2379 0.1710
12.7800 4.2446 0.2018
12.8000 4.2513 0.1661
12.8200 4.2580 0.1775
12.8400 4.2647 0.1920
12.8600 4.2714 0.1682
12.8800 4.2780 0.1810
12.9000 4.2846 0.1865
12.9200 4.2912 0.1680
12.9400 4.2979 0.1882
12.9600 4.3046 0.1814
12.9800 4.3113 0.1655
13.0000 4.3180 0.1922
13.0200 4.3247 0.1764
13.0400 4.3314 0.1688
13.0600 4.3380 0.1854
13.0800 4.3446 0.1769
13.1000 4.3512 0.1700
13.1200 4.3579 0.1856
13.1400 4.3646 0.1740
13.1600 4.3713 0.1722
13.1800 4.3780 0.1833
13.2000 4.3847 0.1748
13.2200 4.3913 0.1667
13.2400 4.3980 0.1849
13.2600 4.4046 0.1747
13.2800 4.4112 0.1747
13.3000 4.4179 0.1828
13.3200 4.4246 0.1751
13.3400 4.4313 0.1679
13.3600 4.4379 0.1813
13.3800 4.4446 0.1768
13.4000 4.4513 0.1667
13.4200 4.4580 0.1763
13.4400 4.4646 0.1792
13.4600 4.4713 0.1632
13.4800 4.4779 0.1833
13.5000 4.4846 0.1764
13.5200 4.4913 0.1636
13.5400 4.4980 0.1834
13.5600 4.5047 0.1757
13.5800 4.5114 0.1664
13.6000 4.5180 0.1755
13.6200 4.5246 0.1799
13.6400 4.5312 0.1702
13.6600 4.5379 0.1840
13.6800 4.5446 0.1730
13.7000 4.5513 0.1682
13.7200 4.5580 0.1849
13.7400 4.5647 0.1717
13.7600 4.5713 0.1659
13.7800 4.5780 0.1861
13.8000 4.5846 0.1729
13.8200 4.5912 0.1691
13.8400 4.5979 0.1828
13.8600 4.6046 0.1767
13.8800 4.6113 0.1684
13.9000 4.6180 0.1811
13.9200 4.6247 0.1691
13.9400 4.6313 0.1722
13.9600 4.6380 0.1816
13.9800 4.6446 0.1707
14.0000 4.6512 0.1775
14.0200 4.6578 0.1799
14.0400 4.6645 0.1742
14.0600 4.6713 0.1707
14.0800 4.6780 0.1784
14.1000 4.6846 0.1735
14.1200 4.6913 0.1712
14.1400 4.6980 0.1715
14.1600 4.7046 0.1818
14.1800 4.7112 0.1733
14.2000 4.7179 0.1732
14.2200 4.7246 0.1782
14.2400 4.7313 0.1733
14.2600 4.7380 0.1706
14.2800 4.7447 0.1810
14.3000 4.7514 0.1691
14.3200 4.7581 0.1736
14.3400 4.7647 0.1830
14.3600 4.7713 0.1654
14.3800 4.7780 0.1751
14.4000 4.7846 0.1813
14.4200 4.7913 0.1598
14.4400 4.7980 0.1770
14.4600 4.8047 0.1799
14.4800 4.8114 0.1643
14.5000 4.8180 0.1771
14.5200 4.8246 0.1765
14.5400 4.8312 0.1613
14.5600 4.8379 0.1802
14.5800 4.8446 0.1789
14.6000 4.8513 0.1602
14.6200 4.8580 0.1766
14.6400 4.8646 0.1736
14.6600 4.8713 0.1658
14.6800 4.8780 0.1692
14.7000 4.8846 0.1768
14.7200 4.8912 0.1690
14.7400 4.8979 0.1691
14.7600 4.9046 0.1704
14.7800 4.9113 0.1690
14.8000 4.9180 0.1700
14.8200 4.9247 0.1715
14.8400 4.9313 0.1675
14.8600 4.9380 0.1708
14.8800 4.9447 0.1662
14.9000 4.9513 0.1681
14.9200 4.9579 0.1722
14.9400 4.9646 0.1738
14.9600 4.9713 0.1626
14.9800 4.9780 0.1705
15.0000 4.9847 0.1742
15.0200 4.9914 0.1620
15.0400 4.9980 0.1709
15.0600 5.0047 0.1736
15.0800 5.0113 0.1632
15.1000 5.0179 0.1732
15.1200 5.0246 0.1715
15.1400 5.0313 0.1627
15.1600 5.0380 0.1724
15.1800 5.0447 0.1687
15.2000 5.0514 0.1634
15.2200 5.0580 0.1706
15.2400 5.0646 0.1753
15.2600 5.0712 0.1602
15.2800 5.0779 0.1713
15.3000 5.0846 0.1711
15.3200 5.0913 0.1588
15.3400 5.0980 0.1726
15.3600 5.1047 0.1688
15.3800 5.1113 0.1578
15.4000 5.1180 0.1723
15.4200 5.1246 0.1607
15.4400 5.1312 0.1686
15.4600 5.1379 0.1705
15.4800 5.1446 0.1558
15.5000 5.1513 0.1682
15.5200 5.1579 0.1699
15.5400 5.1646 0.1568
15.5600 5.1713 0.1679
15.5800 5.1780 0.1715
15.6000 5.1847 0.1472
15.6200 5.1913 0.1747
15.6400 5.1979 0.1662
15.6600 5.2046 0.1560
15.6800 5.2113 0.1692
15.7000 5.2180 0.1612
15.7200 5.2247 0.1573
15.7400 5.2314 0.1705
15.7600 5.2380 0.1611
15.7800 5.2446 0.1572
15.8000 5.2513 0.1636
15.8200 5.2579 0.1602
15.8400 5.2646 0.1573
15.8600 5.2713 0.1672
15.8800 5.2780 0.1569
15.9000 5.2847 0.1551
15.9200 5.2914 0.1632
15.9400 5.2980 0.1566
15.9600 5.3047 0.1537
15.9800 5.3113 0.1663
16.0000 5.3179 0.1584
16.0200 5.3246 0.1571
16.0400 5.3313 0.1645
16.0600 5.3380 0.1572
16.0800 5.3447 0.1568
16.1000 5.3514 0.1616
16.1200 5.3580 0.1509
16.1400 5.3646 0.1563
16.1600 5.3712 0.1615
16.1800 5.3778 0.1521
16.2000 5.3845 0.1588
16.2200 5.3913 0.1545
16.2400 5.3980 0.1525
16.2600 5.4046 0.1569
16.2800 5.4113 0.1535
16.3000 5.4180 0.1499
16.3200 5.4246 0.1590
16.3400 5.4312 0.1512
16.3600 5.4379 0.1505
16.3800 5.4446 0.1594
16.4000 5.4513 0.1556
16.4200 5.4580 0.1456
16.4400 5.4647 0.1561
16.4600 5.4714 0.1560
16.4800 5.4781 0.1477
16.5000 5.4847 0.1462
16.5200 5.4913 0.1591
16.5400 5.4979 0.1487
16.5600 5.5046 0.1459
16.5800 5.5113 0.1616
16.6000 5.5180 0.1465
16.6200 5.5247 0.1482
16.6400 5.5314 0.1564
16.6600 5.5380 0.1441
16.6800 5.5447 0.1471
16.7000 5.5512 0.1613
16.7200 5.5579 0.1423
16.7400 5.5646 0.1478
16.7600 5.5713 0.1555
16.7800 5.5780 0.1411
16.8000 5.5847 0.1466
16.8200 5.5913 0.1554
16.8400 5.5980 0.1376
16.8600 5.6046 0.1519
16.8800 5.6113 0.1487
16.9000 5.6179 0.1405
16.9200 5.6246 0.1527
16.9400 5.6313 0.1474
16.9600 5.6380 0.1391
16.9800 5.6446 0.1530
17.0000 5.6513 0.1490
17.0200 5.6580 0.1417
17.0400 5.6647 0.1502
17.0600 5.6713 0.1468
17.0800 5.6779 0.1427
17.1000 5.6846 0.1462
17.1200 5.6913 0.1495
17.1400 5.6980 0.1427
17.1600 5.7047 0.1473
17.1800 5.7114 0.1450
17.2000 5.7180 0.1469
17.2200 5.7247 0.1425
17.2400 5.7313 0.1466
17.2600 5.7379 0.1454
17.2800 5.7446 0.1455
17.3000 5.7513 0.1473
17.3200 5.7580 0.1414
17.3400 5.7647 0.1414
17.3600 5.7714 0.1517
17.3800 5.7780 0.1398
17.4000 5.7847 0.1433
17.4200 5.7913 0.1471
17.4400 5.7979 0.1416
17.4600 5.8046 0.1398
17.4800 5.8113 0.1529
17.5000 5.8180 0.1416
17.5200 5.8246 0.1386
17.5400 5.8313 0.1488
17.5600 5.8380 0.1414
17.5800 5.8446 0.1391
17.6000 5.8513 0.1505
17.6200 5.8579 0.1422
17.6400 5.8645 0.1365
17.6600 5.8712 0.1529
17.6800 5.8780 0.1403
17.7000 5.8846 0.1409
17.7200 5.8913 0.1512
17.7400 5.8980 0.1371
17.7600 5.9047 0.1372
17.7800 5.9113 0.1533
17.8000 5.9179 0.1383
17.8200 5.9246 0.1423
17.8400 5.9313 0.1467
17.8600 5.9380 0.1364
17.8800 5.9447 0.1343
17.9000 5.9514 0.1516
17.9200 5.9580 0.1345
17.9400 5.9647 0.1386
17.9600 5.9713 0.1455
17.9800 5.9779 0.1331
18.0000 5.9846 0.1394
18.0200 5.9913 0.1448
18.0400 5.9980 0.1350
18.0600 6.0047 0.1416
18.0800 6.0114 0.1401
18.1000 6.0181 0.1327
18.1200 6.0247 0.1424
18.1400 6.0313 0.1440
18.1600 6.0379 0.1311
18.1800 6.0445 0.1395
18.2000 6.0512 0.1422
18.2200 6.0579 0.1259
18.2400 6.0646 0.1379
18.2600 6.0713 0.1400
18.2800 6.0780 0.1311
18.3000 6.0847 0.1378
18.3200 6.0913 0.1375
18.3400 6.0979 0.1329
18.3600 6.1045 0.1403
18.3800 6.1112 0.1331
18.4000 6.1180 0.1329
18.4200 6.1246 0.1352
18.4400 6.1313 0.1320
18.4600 6.1380 0.1283
18.4800 6.1446 0.1383
18.5000 6.1513 0.1287
18.5200 6.1579 0.1279
18.5400 6.1646 0.1320
18.5600 6.1713 0.1277
18.5800 6.1780 0.1342
18.6000 6.1847 0.1302
18.6200 6.1914 0.1272
18.6400 6.1981 0.1347
18.6600 6.2047 0.1293
18.6800 6.2113 0.1215
18.7000 6.2179 0.1379
18.7200 6.2246 0.1247
18.7400 6.2313 0.1236
18.7600 6.2380 0.1329
18.7800 6.2447 0.1222
18.8000 6.2514 0.1249
18.8200 6.2580 0.1345
18.8400 6.2647 0.1195
18.8600 6.2713 0.1256
18.8800 6.2779 0.1290
18.9000 6.2845 0.1209
18.9200 6.2912 0.1253
18.9400 6.2979 0.1316
18.9600 6.3046 0.1127
18.9800 6.3113 0.1262
19.0000 6.3180 0.1286
19.0200 6.3246 0.1173
19.0400 6.3313 0.1274
19.0600 6.3379 0.1299
19.0800 6.3445 0.1176
19.1000 6.3512 0.1246
19.1200 6.3579 0.1255
19.1400 6.3646 0.1151
19.1600 6.3713 0.1296
19.1800 6.3780 0.1219
19.2000 6.3847 0.1138
19.2200 6.3913 0.1278
19.2400 6.3979 0.1252
19.2600 6.4046 0.1155
19.2800 6.4113 0.1253
19.3000 6.4180 0.1193
19.3200 6.4247 0.1176
19.3400 6.4314 0.1211
19.3600 6.4380 0.1203
19.3800 6.4447 0.1157
19.4000 6.4513 0.1231
19.4200 6.4579 0.1160
19.4400 6.4646 0.1283
19.4600 6.4713 0.1209
19.4800 6.4780 0.1165
19.5000 6.4847 0.1235
19.5200 6.4913 0.1191
19.5400 6.4980 0.1177
19.5600 6.5047 0.1230
19.5800 6.5113 0.1159
19.6000 6.5180 0.1179
19.6200 6.5246 0.1208
19.6400 6.5313 0.1207
19.6600 6.5380 0.1169
19.6800 6.5446 0.1239
19.7000 6.5513 0.1190
19.7200 6.5580 0.1186
19.7400 6.5647 0.1218
19.7600 6.5713 0.1170
19.7800 6.5779 0.1251
19.8000 6.5845 0.1159
19.8200 6.5912 0.1210
19.8400 6.5979 0.1188
19.8600 6.6046 0.1147
19.8800 6.6113 0.1206
19.9000 6.6180 0.1191
19.9200 6.6247 0.1110
19.9400 6.6313 0.1215
19.9600 6.6379 0.1211
19.9800 6.6446 0.1112
20.0000 6.6513 0.1170
20.0200 6.6580 0.1219
20.0400 6.6647 0.1124
20.0600 6.6713 0.1210
20.0800 6.6780 0.1164
20.1000 6.6847 0.1132
20.1200 6.6913 0.1174
20.1400 6.6980 0.1137
20.1600 6.7046 0.1183
20.1800 6.7113 0.1146
20.2000 6.7180 0.1183
20.2200 6.7247 0.1099
20.2400 6.7313 0.1131
20.2600 6.7381 0.1179
20.2800 6.7447 0.1123
20.3000 6.7513 0.1108
20.3200 6.7579 0.1178
20.3400 6.7646 0.1159
20.3600 6.7713 0.1142
20.3800 6.7780 0.1131
20.4000 6.7847 0.1171
20.4200 6.7913 0.1048
20.4400 6.7980 0.1202
20.4600 6.8047 0.1122
20.4800 6.8113 0.1133
20.5000 6.8179 0.1202
20.5200 6.8246 0.1140
20.5400 6.8313 0.1051
20.5600 6.8380 0.1186
20.5800 6.8446 0.1151
20.6000 6.8513 0.1082
20.6200 6.8580 0.1216
20.6400 6.8647 0.1109
20.6600 6.8713 0.1023
20.6800 6.8779 0.1191
20.7000 6.8846 0.1141
20.7200 6.8913 0.1087
20.7400 6.8980 0.1188
20.7600 6.9047 0.1089
20.7800 6.9113 0.1079
20.8000 6.9180 0.1200
20.8200 6.9247 0.1136
20.8400 6.9313 0.1093
20.8600 6.9379 0.1199
20.8800 6.9446 0.1094
20.9000 6.9513 0.1130
20.9200 6.9580 0.1222
20.9400 6.9647 0.1107
20.9600 6.9713 0.1144
20.9800 6.9780 0.1194
21.0000 6.9847 0.1130
21.0200 6.9913 0.1193
21.0400 6.9979 0.1166
21.0600 7.0046 0.1162
21.0800 7.0112 0.1165
21.1000 7.0179 0.1185
21.1200 7.0246 0.1165
21.1400 7.0313 0.1163
21.1600 7.0380 0.1175
21.1800 7.0447 0.1161
21.2000 7.0513 0.1175
21.2200 7.0579 0.1172
21.2400 7.0645 0.1178
21.2600 7.0712 0.1186
21.2800 7.0779 0.1160
21.3000 7.0847 0.1170
21.3200 7.0913 0.1176
21.3400 7.0980 0.1209
21.3600 7.1047 0.1163
21.3800 7.1113 0.1136
21.4000 7.1179 0.1218
21.4200 7.1246 0.1149
21.4400 7.1313 0.1182
21.4600 7.1380 0.1219
21.4800 7.1446 0.1169
21.5000 7.1513 0.1166
21.5200 7.1580 0.1195
21.5400 7.1647 0.1094
21.5600 7.1714 0.1171
21.5800 7.1780 0.1177
21.6000 7.1846 0.1060
21.6200 7.1913 0.1166
21.6400 7.1980 0.1184
21.6600 7.2047 0.1101
21.6800 7.2113 0.1177
21.7000 7.2180 0.1133
21.7200 7.2247 0.1126
21.7400 7.2314 0.1181
21.7600 7.2379 0.1093
21.7800 7.2446 0.1144
21.8000 7.2512 0.1186
21.8200 7.2579 0.1088
21.8400 7.2647 0.1051
21.8600 7.2713 0.1209
21.8800 7.2780 0.1059
21.9000 7.2847 0.1132
21.9200 7.2913 0.1154
21.9400 7.2979 0.1052
21.9600 7.3045 0.1086
21.9800 7.3112 0.1162
22.0000 7.3179 0.1050
22.0200 7.3246 0.1134
22.0400 7.3313 0.1068
22.0600 7.3380 0.1054
22.0800 7.3447 0.1159
22.1000 7.3513 0.1103
22.1200 7.3579 0.1045
22.1400 7.3646 0.1130
22.1600 7.3713 0.1031
22.1800 7.3780 0.1079
22.2000 7.3847 0.1147
22.2200 7.3914 0.1023
22.2400 7.3980 0.1110
22.2600 7.4047 0.1073
22.2800 7.4114 0.0982
22.3000 7.4180 0.1088
22.3200 7.4246 0.1150
22.3400 7.4312 0.0939
22.3600 7.4379 0.1112
22.3800 7.4447 0.1087
22.4000 7.4514 0.0949
22.4200 7.4580 0.1105
22.4400 7.4647 0.1051
22.4600 7.4714 0.0980
22.4800 7.4780 0.1091
22.5000 7.4846 0.1016
22.5200 7.4912 0.0981
22.5400 7.4980 0.1098
22.5600 7.5046 0.1042
22.5800 7.5113 0.0931
22.6000 7.5180 0.1133
22.6200 7.5247 0.1028
22.6400 7.5313 0.0970
22.6600 7.5380 0.1075
22.6800 7.5446 0.0988
22.7000 7.5512 0.0951
22.7200 7.5579 0.1068
22.7400 7.5646 0.0985
22.7600 7.5713 0.0957
22.7800 7.5780 0.1086
22.8000 7.5847 0.0937
22.8200 7.5913 0.0956
22.8400 7.5979 0.1057
22.8600 7.6046 0.0981
22.8800 7.6112 0.0955
22.9000 7.6180 0.1026
22.9200 7.6247 0.0941
22.9400 7.6314 0.0970
22.9600 7.6380 0.0970
22.9800 7.6447 0.0928
23.0000 7.6513 0.0904
23.0200 7.6580 0.0973
23.0400 7.6646 0.0952
23.0600 7.6713 0.0955
23.0800 7.6780 0.0998
23.1000 7.6847 0.0910
23.1200 7.6914 0.0926
23.1400 7.6980 0.0987
23.1600 7.7047 0.0898
23.1800 7.7113 0.0920
23.2000 7.7180 0.0967
23.2200 7.7246 0.0906
23.2400 7.7312 0.0938
23.2600 7.7379 0.0941
23.2800 7.7446 0.0924
23.3000 7.7513 0.0914
23.3200 7.7580 0.0947
23.3400 7.7647 0.0836
23.3600 7.7713 0.0922
23.3800 7.7779 0.0911
23.4000 7.7845 0.0895
23.4200 7.7912 0.0908
23.4400 7.7979 0.0893
23.4600 7.8046 0.0871
23.4800 7.8113 0.0933
23.5000 7.8180 0.0893
23.5200 7.8246 0.0886
23.5400 7.8313 0.0873
23.5600 7.8380 0.0920
23.5800 7.8446 0.0860
23.6000 7.8513 0.0914
23.6200 7.8580 0.0848
23.6400 7.8646 0.0896
23.6600 7.8713 0.0890
23.6800 7.8780 0.0860
23.7000 7.8847 0.0889
23.7200 7.8914 0.0883
23.7400 7.8980 0.0850
23.7600 7.9046 0.0881
23.7800 7.9112 0.0880
23.8000 7.9179 0.0850
23.8200 7.9246 0.0946
23.8400 7.9313 0.0877
23.8600 7.9380 0.0848
23.8800 7.9447 0.0868
23.9000 7.9514 0.0905
23.9200 7.9580 0.0820
23.9400 7.9646 0.0882
23.9600 7.9712 0.0889
23.9800 7.9779 0.0846
24.0000 7.9847 0.0832
24.0200 7.9914 0.0928
24.0400 7.9980 0.0873
24.0600 8.0047 0.0880
24.0800 8.0113 0.0887
24.1000 8.0180 0.0858
24.1200 8.0246 0.0884
24.1400 8.0312 0.0908
24.1600 8.0379 0.0832
24.1800 8.0446 0.0877
24.2000 8.0513 0.0874
24.2200 8.0579 0.0856
24.2400 8.0646 0.0905
24.2600 8.0713 0.0864
24.2800 8.0779 0.0843
24.3000 8.0846 0.0900
24.3200 8.0912 0.0895
24.3400 8.0979 0.0818
24.3600 8.1046 0.0948
24.3800 8.1114 0.0859
24.4000 8.1181 0.0844
24.4200 8.1248 0.0940
24.4400 8.1314 0.0877
24.4600 8.1380 0.0814
24.4800 8.1446 0.0943
24.5000 8.1512 0.0854
24.5200 8.1580 0.0902
24.5400 8.1647 0.0946
24.5600 8.1714 0.0816
24.5800 8.1780 0.0934
24.6000 8.1847 0.0972
24.6200 8.1914 0.0739
24.6400 8.1980 0.0902
24.6600 8.2046 0.0939
24.6800 8.2112 0.0807
24.7000 8.2179 0.0966
24.7200 8.2246 0.0869
24.7400 8.2313 0.0822
24.7600 8.2380 0.0974
24.7800 8.2447 0.0864
24.8000 8.2513 0.0818
24.8200 8.2580 0.0989
24.8400 8.2645 0.0787
24.8600 8.2712 0.0863
24.8800 8.2779 0.1007
24.9000 8.2846 0.0787
24.9200 8.2913 0.0870
24.9400 8.2980 0.1019
24.9600 8.3046 0.0740
24.9800 8.3113 0.0916
25.0000 8.3180 0.0951
25.0200 8.3246 0.0795
25.0400 8.3312 0.0943
25.0600 8.3380 0.0933
25.0800 8.3447 0.0734
25.1000 8.3514 0.0966
25.1200 8.3580 0.0914
25.1400 8.3647 0.0779
25.1600 8.3714 0.0949
25.1800 8.3780 0.0857
25.2000 8.3846 0.0803
25.2200 8.3913 0.0991
25.2400 8.3980 0.0859
25.2600 8.4047 0.0808
25.2800 8.4113 0.0957
25.3000 8.4180 0.0829
25.3200 8.4247 0.0820
25.3400 8.4314 0.0972
25.3600 8.4380 0.0861
25.3800 8.4446 0.0785
25.4000 8.4512 0.0973
25.4200 8.4579 0.0855
25.4400 8.4646 0.0816
25.4600 8.4713 0.0909
25.4800 8.4780 0.0896
25.5000 8.4847 0.0831
25.5200 8.4913 0.0870
25.5400 8.4980 0.0859
25.5600 8.5046 0.0886
25.5800 8.5112 0.0879
25.6000 8.5179 0.0842
25.6200 8.5246 0.0831
25.6400 8.5313 0.0898
25.6600 8.5380 0.0824
25.6800 8.5447 0.0878
25.7000 8.5513 0.0863
25.7200 8.5580 0.0770
25.7400 8.5646 0.0840
25.7600 8.5713 0.0885
25.7800 8.5779 0.0851
25.8000 8.5846 0.0841
25.8200 8.5913 0.0828
25.8400 8.5980 0.0830
25.8600 8.6047 0.0859
25.8800 8.6114 0.0819
25.9000 8.6180 0.0842
25.9200 8.6246 0.0855
25.9400 8.6312 0.0792
25.9600 8.6379 0.0812
25.9800 8.6446 0.0891
26.0000 8.6513 0.0800
26.0200 8.6580 0.0822
26.0400 8.6647 0.0793
26.0600 8.6714 0.0800
26.0800 8.6780 0.0817
26.1000 8.6846 0.0857
26.1200 8.6913 0.0747
26.1400 8.6980 0.0802
26.1600 8.7047 0.0893
26.1800 8.7113 0.0739
26.2000 8.7180 0.0807
26.2200 8.7246 0.0878
26.2400 8.7313 0.0749
26.2600 8.7380 0.0803
26.2800 8.7446 0.0805
26.3000 8.7512 0.0754
26.3200 8.7579 0.0839
26.3400 8.7646 0.0751
26.3600 8.7713 0.0733
26.3800 8.7780 0.0803
26.4000 8.7847 0.0770
26.4200 8.7914 0.0706
26.4400 8.7980 0.0793
26.4600 8.8046 0.0688
26.4800 8.8112 0.0754
26.5000 8.8179 0.0780
26.5200 8.8246 0.0719
26.5400 8.8314 0.0768
26.5600 8.8381 0.0809
26.5800 8.8447 0.0689
26.6000 8.8514 0.0791
26.6200 8.8580 0.0779
26.6400 8.8646 0.0734
26.6600 8.8712 0.0790
26.6800 8.8779 0.0768
26.7000 8.8847 0.0649
26.7200 8.8913 0.0784
26.7400 8.8980 0.0815
26.7600 8.9047 0.0658
26.7800 8.9113 0.0814
26.8000 8.9180 0.0740
26.8200 8.9246 0.0613
26.8400 8.9312 0.0775
26.8600 8.9379 0.0766
26.8800 8.9446 0.0671
26.9000 8.9513 0.0762
26.9200 8.9580 0.0682
26.9400 8.9647 0.0694
26.9600 8.9713 0.0761
26.9800 8.9780 0.0694
27.0000 8.9846 0.0659
27.0200 8.9912 0.0781
27.0400 8.9979 0.0638
27.0600 9.0046 0.0685
27.0800 9.0113 0.0758
27.1000 9.0180 0.0645
27.1200 9.0247 0.0671
27.1400 9.0313 0.0757
27.1600 9.0380 0.0607
27.1800 9.0446 0.0671
27.2000 9.0512 0.0750
27.2200 9.0579 0.0599
27.2400 9.0646 0.0648
27.2600 9.0713 0.0739
27.2800 9.0780 0.0624
27.3000 9.0847 0.0642
27.3200 9.0914 0.0720
27.3400 9.0980 0.0581
27.3600 9.1047 0.0659
27.3800 9.1113 0.0694
27.4000 9.1179 0.0614
27.4200 9.1246 0.0661
27.4400 9.1313 0.0662
27.4600 9.1380 0.0541
27.4800 9.1447 0.0671
27.5000 9.1514 0.0642
27.5200 9.1580 0.0597
27.5400 9.1646 0.0653
27.5600 9.1712 0.0659
27.5800 9.1779 0.0573
27.6000 9.1846 0.0628
27.6200 9.1913 0.0610
27.6400 9.1980 0.0572
27.6600 9.2046 0.0644
27.6800 9.2113 0.0633
27.7000 9.2180 0.0541
27.7200 9.2246 0.0598
27.7400 9.2312 0.0612
27.7600 9.2379 0.0530
27.7800 9.2446 0.0609
27.8000 9.2513 0.0612
27.8200 9.2580 0.0504
27.8400 9.2646 0.0584
27.8600 9.2713 0.0662
27.8800 9.2780 0.0465
27.9000 9.2846 0.0572
27.9200 9.2913 0.0587
27.9400 9.2979 0.0494
27.9600 9.3046 0.0586
27.9800 9.3113 0.0609
28.0000 9.3180 0.0424
28.0200 9.3247 0.0584
28.0400 9.3314 0.0565
28.0600 9.3381 0.0479
28.0800 9.3447 0.0573
28.1000 9.3512 0.0589
28.1200 9.3579 0.0509
28.1400 9.3646 0.0527
28.1600 9.3713 0.0556
28.1800 9.3780 0.0594
28.2000 9.3847 0.0496
28.2200 9.3913 0.0491
28.2400 9.3980 0.0609
28.2600 9.4046 0.0468
28.2800 9.4112 0.0498
28.3000 9.4179 0.0663
28.3200 9.4246 0.0503
28.3400 9.4313 0.0433
28.3600 9.4380 0.0614
28.3800 9.4447 0.0485
28.4000 9.4514 0.0497
28.4200 9.4580 0.0584
28.4400 9.4646 0.0472
28.4600 9.4712 0.0507
28.4800 9.4778 0.0571
28.5000 9.4845 0.0435
28.5200 9.4912 0.0552
28.5400 9.4979 0.0529
28.5600 9.5046 0.0416
28.5800 9.5113 0.0533
28.6000 9.5179 0.0595
28.6200 9.5246 0.0411
28.6400 9.5312 0.0534
28.6600 9.5379 0.0595
28.6800 9.5446 0.0442
28.7000 9.5513 0.0459
28.7200 9.5580 0.0514
28.7400 9.5647 0.0588
28.7600 9.5714 0.0407
28.7800 9.5781 0.0442
28.8000 9.5847 0.0578
28.8200 9.5913 0.0443
28.8400 9.5980 0.0455
28.8600 9.6046 0.0544
28.8800 9.6113 0.0445
28.9000 9.6180 0.0447
28.9200 9.6247 0.0504
28.9400 9.6314 0.0442
28.9600 9.6380 0.0495
28.9800 9.6446 0.0542
29.0000 9.6512 0.0327
29.0200 9.6579 0.0559
29.0400 9.6645 0.0597
29.0600 9.6713 0.0339
29.0800 9.6780 0.0486
29.1000 9.6846 0.0531
29.1200 9.6913 0.0397
29.1400 9.6980 0.0531
29.1600 9.7046 0.0419
29.1800 9.7112 0.0449
29.2000 9.7179 0.0573
29.2200 9.7246 0.0377
29.2400 9.7313 0.0372
29.2600 9.7380 0.0619
29.2800 9.7447 0.0366
29.3000 9.7513 0.0306
29.3200 9.7580 0.0633
29.3400 9.7647 0.0386
29.3600 9.7713 0.0380
29.3800 9.7779 0.0550
29.4000 9.7846 0.0371
29.4200 9.7913 0.0393
29.4400 9.7980 0.0562
29.4600 9.8047 0.0310
29.4800 9.8114 0.0434
29.5000 9.8181 0.0563
29.5200 9.8247 0.0299
29.5400 9.8313 0.0386
29.5600 9.8379 0.0645
29.5800 9.8446 0.0314
29.6000 9.8513 0.0396
29.6200 9.8580 0.0543
29.6400 9.8647 0.0358
29.6600 9.8714 0.0439
29.6800 9.8780 0.0494
29.7000 9.8846 0.0244
29.7200 9.8912 0.0459
29.7400 9.8979 0.0632
29.7600 9.9046 0.0226
29.7800 9.9113 0.0383
29.8000 9.9180 0.0596
29.8200 9.9246 0.0307
29.8400 9.9313 0.0395
29.8600 9.9380 0.0518
29.8800 9.9446 0.0310
29.9000 9.9513 0.0491
29.9200 9.9579 0.0405
29.9400 9.9646 0.0354
29.9600 9.9712 0.0480
29.9800 9.9779 0.0416
30.0000 9.9846 0.0318
30.0200 9.9913 0.0422
30.0400 9.9980 0.0468
30.0600 10.0047 0.0368
30.0800 10.0113 0.0343
30.1000 10.0179 0.0438
30.1200 10.0246 0.0429
30.1400 10.0313 0.0424
30.1600 10.0380 0.0390
30.1800 10.0447 0.0402
30.2000 10.0514 0.0371
30.2200 10.0580 0.0499
30.2400 10.0647 0.0344
30.2600 10.0713 0.0296
30.2800 10.0779 0.0603
30.3000 10.0846 0.0357
30.3200 10.0913 0.0305
30.3400 10.0980 0.0584
30.3600 10.1047 0.0364
30.3800 10.1114 0.0334
30.4000 10.1180 0.0572
30.4200 10.1247 0.0278
30.4400 10.1313 0.0347
30.4600 10.1379 0.0550
30.4800 10.1445 0.0318
30.5000 10.1513 0.0414
30.5200 10.1580 0.0504
30.5400 10.1647 0.0295
30.5600 10.1714 0.0443
30.5800 10.1780 0.0434
30.6000 10.1847 0.0355
30.6200 10.1912 0.0467
30.6400 10.1978 0.0422
30.6600 10.2045 0.0324
30.6800 10.2112 0.0457
30.7000 10.2180 0.0383
30.7200 10.2246 0.0353
30.7400 10.2313 0.0434
30.7600 10.2380 0.0378
30.7800 10.2447 0.0412
30.8000 10.2513 0.0397
30.8200 10.2579 0.0400
30.8400 10.2646 0.0454
30.8600 10.2713 0.0368
30.8800 10.2780 0.0349
30.9000 10.2847 0.0490
30.9200 10.2914 0.0348
30.9400 10.2981 0.0351
30.9600 10.3047 0.0442
30.9800 10.3113 0.0350
31.0000 10.3180 0.0372
31.0200 10.3246 0.0444
31.0400 10.3313 0.0272
31.0600 10.3380 0.0414
31.0800 10.3447 0.0442
31.1000 10.3514 0.0328
31.1200 10.3580 0.0363
31.1400 10.3647 0.0414
31.1600 10.3713 0.0309
31.1800 10.3779 0.0425
31.2000 10.3846 0.0391
31.2200 10.3913 0.0337
31.2400 10.3980 0.0455
31.2600 10.4047 0.0337
31.2800 10.4113 0.0312
31.3000 10.4180 0.0487
31.3200 10.4247 0.0337
31.3400 10.4313 0.0288
31.3600 10.4379 0.0412
31.3800 10.4446 0.0392
31.4000 10.4513 0.0301
31.4200 10.4580 0.0341
31.4400 10.4646 0.0402
31.4600 10.4713 0.0322
31.4800 10.4780 0.0433
31.5000 10.4847 0.0344
31.5200 10.4913 0.0340
31.5400 10.4979 0.0410
31.5600 10.5046 0.0342
31.5800 10.5113 0.0320
31.6000 10.5180 0.0423
31.6200 10.5247 0.0380
31.6400 10.5313 0.0321
31.6600 10.5380 0.0334
31.6800 10.5447 0.0386
31.7000 10.5513 0.0335
31.7200 10.5579 0.0373
31.7400 10.5646 0.0335
31.7600 10.5713 0.0363
31.7800 10.5780 0.0312
31.8000 10.5847 0.0327
31.8200 10.5914 0.0427
31.8400 10.5980 0.0342
31.8600 10.6047 0.0352
31.8800 10.6113 0.0374
31.9000 10.6179 0.0361
31.9200 10.6246 0.0349
31.9400 10.6313 0.0390
31.9600 10.6380 0.0359
31.9800 10.6446 0.0307
32.0000 10.6513 0.0420
32.0200 10.6580 0.0360
32.0400 10.6647 0.0264
32.0600 10.6713 0.0414
32.0800 10.6779 0.0343
32.1000 10.6845 0.0352
32.1200 10.6912 0.0380
32.1400 10.6979 0.0335
32.1600 10.7046 0.0325
32.1800 10.7113 0.0426
32.2000 10.7180 0.0315
32.2200 10.7247 0.0341
32.2400 10.7313 0.0441
32.2600 10.7379 0.0305
32.2800 10.7446 0.0334
32.3000 10.7513 0.0434
32.3200 10.7580 0.0289
32.3400 10.7647 0.0326
32.3600 10.7714 0.0398
32.3800 10.7780 0.0290
32.4000 10.7847 0.0360
32.4200 10.7913 0.0402
32.4400 10.7979 0.0287
32.4600 10.8046 0.0335
32.4800 10.8113 0.0354
32.5000 10.8180 0.0275
32.5200 10.8247 0.0390
32.5400 10.8314 0.0326
32.5600 10.8380 0.0277
32.5800 10.8447 0.0377
32.6000 10.8513 0.0355
32.6200 10.8579 0.0243
32.6400 10.8645 0.0376
32.6600 10.8712 0.0284
32.6800 10.8779 0.0325
32.7000 10.8846 0.0295
32.7200 10.8914 0.0301
32.7400 10.8980 0.0317
32.7600 10.9047 0.0271
32.7800 10.9113 0.0293
32.8000 10.9179 0.0331
32.8200 10.9245 0.0274
32.8400 10.9312 0.0296
32.8600 10.9379 0.0277
32.8800 10.9446 0.0269
32.9000 10.9513 0.0299
32.9200 10.9580 0.0294
32.9400 10.9646 0.0176
32.9600 10.9713 0.0351
32.9800 10.9779 0.0310
33.0000 10.9846 0.0132
33.0200 10.9913 0.0383
33.0400 10.9980 0.0294
33.0600 11.0047 0.0166
33.0800 11.0114 0.0315
33.1000 11.0180 0.0228
33.1200 11.0247 0.0246
33.1400 11.0313 0.0291
33.1600 11.0379 0.0131
33.1800 11.0446 0.0269
33.2000 11.0513 0.0351
33.2200 11.0580 0.0182
33.2400 11.0647 0.0171
33.2600 11.0714 0.0358
33.2800 11.0780 0.0174
33.3000 11.0847 0.0204
33.3200 11.0913 0.0289
33.3400 11.0979 0.0213
33.3600 11.1045 0.0275
33.3800 11.1112 0.0264
33.4000 11.1179 0.0092
33.4200 11.1246 0.0239
33.4400 11.1313 0.0304
33.4600 11.1380 0.0151
33.4800 11.1447 0.0165
33.5000 11.1513 0.0295
33.5200 11.1579 0.0199
33.5400 11.1646 0.0190
33.5600 11.1712 0.0281
33.5800 11.1779 0.0143
33.6000 11.1846 0.0198
33.6200 11.1913 0.0216
33.6400 11.1980 0.0163
33.6600 11.2047 0.0193
33.6800 11.2113 0.0268
33.7000 11.2179 0.0059
33.7200 11.2246 0.0240
33.7400 11.2313 0.0274
33.7600 11.2380 0.0077
33.7800 11.2447 0.0191
33.8000 11.2514 0.0297
33.8200 11.2580 0.0045
33.8400 11.2647 0.0203
33.8600 11.2713 0.0191
33.8800 11.2779 0.0129
33.9000 11.2846 0.0294
33.9200 11.2913 0.0148
33.9400 11.2980 0.0042
33.9600 11.3047 0.0329
33.9800 11.3113 0.0216
34.0000 11.3180 0.0031
34.0200 11.3247 0.0266
34.0400 11.3314 0.0141
34.0600 11.3380 0.0145
34.0800 11.3446 0.0309
34.1000 11.3513 0.0125
34.1200 11.3579 0.0159
34.1400 11.3646 0.0306
34.1600 11.3713 0.0090
34.1800 11.3780 0.0153
34.2000 11.3847 0.0240
34.2200 11.3913 0.0175
34.2400 11.3979 0.0184
34.2600 11.4045 0.0221
34.2800 11.4112 0.0130
34.3000 11.4179 0.0185
34.3200 11.4246 0.0186
34.3400 11.4313 0.0169
34.3600 11.4380 0.0148
34.3800 11.4447 0.0188
34.4000 11.4513 0.0168
34.4200 11.4579 0.0153
34.4400 11.4646 0.0162
34.4600 11.4712 0.0203
34.4800 11.4780 0.0148
34.5000 11.4847 0.0161
34.5200 11.4913 0.0162
34.5400 11.4980 0.0137
34.5600 11.5047 0.0157
34.5800 11.5113 0.0151
34.6000 11.5180 0.0178
34.6200 11.5246 0.0157
34.6400 11.5312 0.0195
34.6600 11.5380 0.0125
34.6800 11.5447 0.0139
34.7000 11.5513 0.0167
34.7200 11.5580 0.0161
34.7400 11.5647 0.0138
34.7600 11.5714 0.0201
34.7800 11.5779 0.0131
34.8000 11.5846 0.0167
34.8200 11.5912 0.0195
34.8400 11.5980 0.0141
34.8600 11.6047 0.0160
34.8800 11.6114 0.0176
34.9000 11.6180 0.0142
34.9200 11.6247 0.0145
34.9400 11.6313 0.0147
34.9600 11.6379 0.0121
34.9800 11.6445 0.0142
35.0000 11.6512 0.0209
35.0200 11.6579 0.0124
35.0400 11.6646 0.0090
35.0600 11.6713 0.0216
35.0800 11.6780 0.0116
35.1000 11.6846 0.0156
35.1200 11.6913 0.0128
35.1400 11.6979 0.0090
35.1600 11.7046 0.0188
35.1800 11.7112 0.0154
35.2000 11.7180 0.0116
35.2200 11.7247 0.0180
35.2400 11.7314 0.0090
35.2600 11.7381 0.0110
35.2800 11.7447 0.0130
35.3000 11.7513 0.0134
35.3200 11.7579 0.0168
35.3400 11.7646 0.0177
35.3600 11.7713 0.0087
35.3800 11.7780 0.0158
35.4000 11.7847 0.0149
35.4200 11.7914 0.0121
35.4400 11.7980 0.0165
35.4600 11.8047 0.0122
35.4800 11.8113 0.0136
35.5000 11.8180 0.0131
35.5200 11.8246 0.0111
35.5400 11.8312 0.0195
35.5600 11.8379 0.0141
35.5800 11.8446 0.0111
35.6000 11.8513 0.0182
35.6200 11.8580 0.0155
35.6400 11.8647 0.0095
35.6600 11.8713 0.0132
35.6800 11.8779 0.0186
35.7000 11.8845 0.0115
35.7200 11.8912 0.0153
35.7400 11.8979 0.0165
35.7600 11.9047 0.0123
35.7800 11.9113 0.0061
35.8000 11.9180 0.0191
35.8200 11.9247 0.0127
35.8400 11.9313 0.0111
35.8600 11.9379 0.0203
35.8800 11.9446 0.0079
35.9000 11.9513 0.0095
35.9200 11.9580 0.0183
35.9400 11.9647 0.0098
35.9600 11.9713 0.0144
35.9800 11.9780 0.0159
36.0000 11.9847 0.0054
36.0200 11.9913 0.0148
36.0400 11.9980 0.0198
36.0600 12.0046 0.0032
36.0800 12.0113 0.0134
36.1000 12.0179 0.0177
36.1200 12.0246 0.0021
36.1400 12.0313 0.0197
36.1600 12.0380 0.0138
36.1800 12.0447 0.0036
36.2000 12.0514 0.0144
36.2200 12.0580 0.0157
36.2400 12.0646 0.0041
36.2600 12.0712 0.0188
36.2800 12.0779 0.0117
36.3000 12.0846 0.0072
36.3200 12.0913 0.0137
36.3400 12.0980 0.0085
36.3600 12.1047 0.0092
36.3800 12.1113 0.0145
36.4000 12.1179 0.0076
36.4200 12.1245 0.0096
36.4400 12.1312 0.0145
36.4600 12.1379 0.0062
36.4800 12.1446 0.0071
36.5000 12.1513 0.0124
36.5200 12.1580 0.0083
36.5400 12.1646 0.0048
36.5600 12.1713 0.0113
36.5800 12.1780 0.0067
36.6000 12.1846 0.0103
36.6200 12.1912 0.0048
36.6400 12.1980 0.0042
36.6600 12.2047 0.0107
36.6800 12.2114 0.0095
36.7000 12.2180 0.0046
36.7200 12.2247 0.0130
36.7400 12.2314 0.0039
36.7600 12.2380 0.0065
36.7800 12.2446 0.0102
36.8000 12.2512 0.0068
36.8200 12.2579 0.0055
36.8400 12.2647 0.0100
36.8600 12.2714 -0.0008
36.8800 12.2780 0.0060
36.9000 12.2847 0.0094
36.9200 12.2914 0.0020
36.9400 12.2979 0.0083
36.9600 12.3046 0.0060
36.9800 12.3112 -0.0006
37.0000 12.3179 0.0133
37.0200 12.3247 0.0046
37.0400 12.3313 -0.0026
37.0600 12.3380 0.0146
37.0800 12.3447 0.0028
37.1000 12.3514 -0.0043
37.1200 12.3580 0.0118
37.1400 12.3646 0.0062
37.1600 12.3712 0.0004
37.1800 12.3779 0.0123
37.2000 12.3846 -0.0011
37.2200 12.3913 0.0020
37.2400 12.3980 0.0067
37.2600 12.4047 0.0005
37.2800 12.4113 -0.0018
37.3000 12.4180 0.0099
37.3200 12.4246 0.0029
37.3400 12.4312 0.0000
37.3600 12.4380 0.0070
37.3800 12.4447 0.0025
37.4000 12.4514 0.0035
37.4200 12.4580 0.0059
37.4400 12.4647 -0.0050
37.4600 12.4714 0.0049
37.4800 12.4780 0.0049
37.5000 12.4846 -0.0004
37.5200 12.4912 0.0048
37.5400 12.4979 0.0024
37.5600 12.5047 0.0008
37.5800 12.5114 0.0028
37.6000 12.5180 0.0029
37.6200 12.5247 0.0009
37.6400 12.5314 0.0004
37.6600 12.5380 0.0052
37.6800 12.5446 0.0047
37.7000 12.5512 -0.0019
37.7200 12.5579 0.0022
37.7400 12.5646 0.0047
37.7600 12.5713 -0.0030
37.7800 12.5780 -0.0087
37.8000 12.5847 0.0071
37.8200 12.5913 -0.0056
37.8400 12.5980 -0.0076
37.8600 12.6045 0.0031
37.8800 12.6112 -0.0006
37.9000 12.6179 -0.0057
37.9200 12.6246 -0.0016
37.9400 12.6313 -0.0070
37.9600 12.6380 -0.0020
37.9800 12.6447 0.0030
38.0000 12.6513 -0.0096
38.0200 12.6580 -0.0027
38.0400 12.6646 0.0023
38.0600 12.6712 -0.0069
38.0800 12.6779 -0.0048
38.1000 12.6846 -0.0021
38.1200 12.6913 -0.0085
38.1400 12.6980 -0.0018
38.1600 12.7047 0.0018
38.1800 12.7114 -0.0123
38.2000 12.7180 -0.0071
38.2200 12.7246 0.0057
38.2400 12.7312 -0.0136
38.2600 12.7379 -0.0070
38.2800 12.7446 0.0024
38.3000 12.7513 -0.0153
38.3200 12.7580 -0.0051
38.3400 12.7647 0.0008
38.3600 12.7714 -0.0229
38.3800 12.7780 -0.0020
38.4000 12.7846 -0.0020
38.4200 12.7912 -0.0172
38.4400 12.7979 -0.0032
38.4600 12.8047 -0.0003
38.4800 12.8114 -0.0206
38.5000 12.8180 -0.0053
38.5200 12.8247 -0.0008
38.5400 12.8314 -0.0222
38.5600 12.8380 -0.0075
38.5800 12.8446 -0.0073
38.6000 12.8512 -0.0194
38.6200 12.8579 -0.0073
38.6400 12.8646 -0.0058
38.6600 12.8713 -0.0213
38.6800 12.8780 -0.0088
38.7000 12.8846 -0.0068
38.7200 12.8913 -0.0201
38.7400 12.8980 -0.0152
38.7600 12.9046 -0.0067
38.7800 12.9112 -0.0204
38.8000 12.9179 -0.0061
38.8200 12.9246 -0.0140
38.8400 12.9313 -0.0205
38.8600 12.9380 -0.0088
38.8800 12.9447 -0.0110
38.9000 12.9514 -0.0184
38.9200 12.9580 -0.0121
38.9400 12.9646 -0.0143
38.9600 12.9712 -0.0140
38.9800 12.9779 -0.0097
39.0000 12.9847 -0.0151
39.0200 12.9914 -0.0168
39.0400 12.9981 -0.0113
39.0600 13.0047 -0.0198
39.0800 13.0114 -0.0164
39.1000 13.0180 -0.0096
39.1200 13.0246 -0.0156
39.1400 13.0312 -0.0135
39.1600 13.0379 -0.0159
39.1800 13.0446 -0.0129
39.2000 13.0513 -0.0160
39.2200 13.0580 -0.0156
39.2400 13.0647 -0.0137
39.2600 13.0713 -0.0204
39.2800 13.0780 -0.0145
39.3000 13.0846 -0.0121
39.3200 13.0912 -0.0186
39.3400 13.0978 -0.0159
39.3600 13.1046 -0.0130
39.3800 13.1113 -0.0208
39.4000 13.1180 -0.0186
39.4200 13.1246 -0.0078
39.4400 13.1313 -0.0242
39.4600 13.1380 -0.0211
39.4800 13.1446 -0.0137
39.5000 13.1512 -0.0173
39.5200 13.1579 -0.0216
39.5400 13.1647 -0.0120
39.5600 13.1714 -0.0202
39.5800 13.1780 -0.0273
39.6000 13.1847 -0.0084
39.6200 13.1914 -0.0238
39.6400 13.1980 -0.0251
39.6600 13.2046 -0.0113
39.6800 13.2113 -0.0254
39.7000 13.2179 -0.0239
39.7200 13.2246 -0.0108
39.7400 13.2313 -0.0266
39.7600 13.2380 -0.0197
39.7800 13.2447 -0.0173
39.8000 13.2514 -0.0246
39.8200 13.2580 -0.0187
39.8400 13.2646 -0.0175
39.8600 13.2712 -0.0289
39.8800 13.2779 -0.0156
39.9000 13.2846 -0.0175
39.9200 13.2913 -0.0282
39.9400 13.2980 -0.0157
39.9600 13.3047 -0.0207
39.9800 13.3114 -0.0254
40.0000 13.3180 -0.0140
40.0200 13.3246 -0.0240
40.0400 13.3312 -0.0221
40.0600 13.3379 -0.0138
40.0800 13.3446 -0.0269
40.1000 13.3513 -0.0237
40.1200 13.3580 -0.0208
40.1400 13.3646 -0.0251
40.1600 13.3713 -0.0188
40.1800 13.3780 -0.0203
40.2000 13.3846 -0.0239
40.2200 13.3913 -0.0144
40.2400 13.3979 -0.0276
40.2600 13.4046 -0.0226
40.2800 13.4113 -0.0105
40.3000 13.4180 -0.0241
40.3200 13.4247 -0.0253
40.3400 13.4314 -0.0142
40.3600 13.4380 -0.0272
40.3800 13.4446 -0.0181
40.4000 13.4512 -0.0156
40.4200 13.4579 -0.0259
40.4400 13.4646 -0.0215
40.4600 13.4713 -0.0120
40.4800 13.4780 -0.0293
40.5000 13.4847 -0.0219
40.5200 13.4914 -0.0114
40.5400 13.4980 -0.0283
40.5600 13.5046 -0.0243
40.5800 13.5112 -0.0105
40.6000 13.5179 -0.0259
40.6200 13.5246 -0.0211
40.6400 13.5313 -0.0175
40.6600 13.5380 -0.0240
40.6800 13.5447 -0.0221
40.7000 13.5513 -0.0135
40.7200 13.5580 -0.0249
40.7400 13.5646 -0.0230
40.7600 13.5712 -0.0123
40.7800 13.5778 -0.0268
40.8000 13.5845 -0.0222
40.8200 13.5913 -0.0135
40.8400 13.5980 -0.0232
40.8600 13.6047 -0.0287
40.8800 13.6114 -0.0148
40.9000 13.6180 -0.0221
40.9200 13.6246 -0.0245
40.9400 13.6312 -0.0141
40.9600 13.6379 -0.0271
40.9800 13.6446 -0.0251
41.0000 13.6513 -0.0105
41.0200 13.6581 -0.0294
41.0400 13.6647 -0.0264
41.0600 13.6714 -0.0121
41.0800 13.6780 -0.0285
41.1000 13.6846 -0.0301
41.1200 13.6913 -0.0114
41.1400 13.6979 -0.0301
41.1600 13.7046 -0.0294
41.1800 13.7113 -0.0111
41.2000 13.7180 -0.0316
41.2200 13.7247 -0.0289
41.2400 13.7313 -0.0134
41.2600 13.7380 -0.0310
41.2800 13.7446 -0.0274
41.3000 13.7512 -0.0124
41.3200 13.7579 -0.0319
41.3400 13.7646 -0.0233
41.3600 13.7713 -0.0181
41.3800 13.7780 -0.0293
41.4000 13.7846 -0.0253
41.4200 13.7913 -0.0200
41.4400 13.7980 -0.0335
41.4600 13.8046 -0.0249
41.4800 13.8112 -0.0195
41.5000 13.8179 -0.0317
41.5200 13.8246 -0.0322
41.5400 13.8313 -0.0188
41.5600 13.8380 -0.0311
41.5800 13.8446 -0.0277
41.6000 13.8513 -0.0188
41.6200 13.8580 -0.0311
41.6400 13.8646 -0.0345
41.6600 13.8713 -0.0161
41.6800 13.8779 -0.0256
41.7000 13.8846 -0.0349
41.7200 13.8913 -0.0188
41.7400 13.8980 -0.0324
41.7600 13.9047 -0.0268
41.7800 13.9114 -0.0213
41.8000 13.9180 -0.0347
41.8200 13.9247 -0.0281
41.8400 13.9313 -0.0193
41.8600 13.9379 -0.0361
41.8800 13.9446 -0.0247
41.9000 13.9513 -0.0225
41.9200 13.9580 -0.0353
41.9400 13.9647 -0.0332
41.9600 13.9714 -0.0212
41.9800 13.9781 -0.0346
42.0000 13.9847 -0.0326
42.0200 13.9912 -0.0233
42.0400 13.9979 -0.0320
42.0600 14.0046 -0.0330
42.0800 14.0113 -0.0225
42.1000 14.0180 -0.0407
42.1200 14.0247 -0.0297
42.1400 14.0313 -0.0204
42.1600 14.0380 -0.0391
42.1800 14.0446 -0.0302
42.2000 14.0512 -0.0209
42.2200 14.0579 -0.0335
42.2400 14.0646 -0.0316
42.2600 14.0713 -0.0248
42.2800 14.0780 -0.0306
42.3000 14.0846 -0.0337
42.3200 14.0913 -0.0272
42.3400 14.0980 -0.0309
42.3600 14.1046 -0.0323
42.3800 14.1113 -0.0259
42.4000 14.1179 -0.0326
42.4200 14.1246 -0.0281
42.4400 14.1313 -0.0313
42.4600 14.1380 -0.0308
42.4800 14.1447 -0.0302
42.5000 14.1514 -0.0291
42.5200 14.1581 -0.0348
42.5400 14.1647 -0.0356
42.5600 14.1713 -0.0290
42.5800 14.1779 -0.0276
42.6000 14.1846 -0.0395
42.6200 14.1913 -0.0302
42.6400 14.1980 -0.0280
42.6600 14.2047 -0.0377
42.6800 14.2113 -0.0237
42.7000 14.2180 -0.0338
42.7200 14.2246 -0.0387
42.7400 14.2313 -0.0266
42.7600 14.2379 -0.0332
42.7800 14.2446 -0.0376
42.8000 14.2513 -0.0280
42.8200 14.2580 -0.0358
42.8400 14.2647 -0.0354
42.8600 14.2713 -0.0287
42.8800 14.2780 -0.0352
42.9000 14.2846 -0.0352
42.9200 14.2913 -0.0271
42.9400 14.2979 -0.0444
42.9600 14.3045 -0.0333
42.9800 14.3112 -0.0284
43.0000 14.3179 -0.0402
43.0200 14.3246 -0.0374
43.0400 14.3313 -0.0320
43.0600 14.3380 -0.0404
43.0800 14.3446 -0.0335
43.1000 14.3512 -0.0369
43.1200 14.3579 -0.0396
43.1400 14.3646 -0.0325
43.1600 14.3713 -0.0405
43.1800 14.3780 -0.0383
43.2000 14.3847 -0.0333
43.2200 14.3914 -0.0423
43.2400 14.3981 -0.0394
43.2600 14.4047 -0.0329
43.2800 14.4113 -0.0464
43.3000 14.4179 -0.0381
43.3200 14.4246 -0.0326
43.3400 14.4313 -0.0488
43.3600 14.4380 -0.0360
43.3800 14.4447 -0.0322
43.4000 14.4514 -0.0521
43.4200 14.4580 -0.0316
43.4400 14.4647 -0.0395
43.4600 14.4713 -0.0495
43.4800 14.4779 -0.0333
43.5000 14.4845 -0.0364
43.5200 14.4913 -0.0503
43.5400 14.4980 -0.0349
43.5600 14.5046 -0.0408
43.5800 14.5113 -0.0502
43.6000 14.5180 -0.0366
43.6200 14.5246 -0.0398
43.6400 14.5312 -0.0456
43.6600 14.5379 -0.0349
43.6800 14.5446 -0.0465
43.7000 14.5513 -0.0478
43.7200 14.5580 -0.0342
43.7400 14.5647 -0.0450
43.7600 14.5713 -0.0472
43.7800 14.5780 -0.0347
43.8000 14.5847 -0.0436
43.8200 14.5913 -0.0487
43.8400 14.5979 -0.0345
43.8600 14.6046 -0.0451
43.8800 14.6113 -0.0476
43.9000 14.6180 -0.0372
43.9200 14.6247 -0.0416
43.9400 14.6314 -0.0494
43.9600 14.6380 -0.0350
43.9800 14.6447 -0.0464
44.0000 14.6513 -0.0456
44.0200 14.6579 -0.0362
44.0400 14.6646 -0.0433
44.0600 14.6713 -0.0484
44.0800 14.6780 -0.0353
44.1000 14.6847 -0.0464
44.1200 14.6914 -0.0459
44.1400 14.6980 -0.0347
44.1600 14.7046 -0.0485
44.1800 14.7113 -0.0472
44.2000 14.7179 -0.0306
44.2200 14.7246 -0.0450
44.2400 14.7313 -0.0506
44.2600 14.7380 -0.0361
44.2800 14.7446 -0.0464
44.3000 14.7513 -0.0502
44.3200 14.7580 -0.0337
44.3400 14.7647 -0.0456
44.3600 14.7713 -0.0545
44.3800 14.7779 -0.0314
44.4000 14.7846 -0.0481
44.4200 14.7913 -0.0473
44.4400 14.7979 -0.0367
44.4600 14.8046 -0.0533
44.4800 14.8113 -0.0519
44.5000 14.8180 -0.0329
44.5200 14.8247 -0.0543
44.5400 14.8313 -0.0469
44.5600 14.8379 -0.0376
44.5800 14.8446 -0.0514
44.6000 14.8513 -0.0447
44.6200 14.8580 -0.0405
44.6400 14.8647 -0.0546
44.6600 14.8714 -0.0471
44.6800 14.8780 -0.0385
44.7000 14.8847 -0.0555
44.7200 14.8913 -0.0491
44.7400 14.8979 -0.0374
44.7600 14.9046 -0.0558
44.7800 14.9113 -0.0506
44.8000 14.9180 -0.0391
44.8200 14.9247 -0.0487
44.8400 14.9314 -0.0549
44.8600 14.9381 -0.0467
44.8800 14.9447 -0.0447
44.9000 14.9513 -0.0493
44.9200 14.9579 -0.0467
44.9400 14.9645 -0.0536
44.9600 14.9712 -0.0456
44.9800 14.9780 -0.0491
45.0000 14.9846 -0.0529
45.0200 14.9913 -0.0483
45.0400 14.9980 -0.0477
45.0600 15.0047 -0.0615
45.0800 15.0112 -0.0490
45.1000 15.0178 -0.0390
45.1200 15.0245 -0.0539
45.1400 15.0312 -0.0534
45.1600 15.0380 -0.0473
45.1800 15.0447 -0.0575
45.2000 15.0513 -0.0469
45.2200 15.0580 -0.0484
45.2400 15.0647 -0.0555
45.2600 15.0713 -0.0557
45.2800 15.0779 -0.0517
45.3000 15.0846 -0.0485
45.3200 15.0913 -0.0536
45.3400 15.0980 -0.0565
45.3600 15.1047 -0.0501
45.3800 15.1114 -0.0525
45.4000 15.1181 -0.0534
45.4200 15.1247 -0.0467
45.4400 15.1313 -0.0617
45.4600 15.1379 -0.0562
45.4800 15.1446 -0.0476
45.5000 15.1513 -0.0560
45.5200 15.1580 -0.0571
45.5400 15.1647 -0.0454
45.5600 15.1714 -0.0667
45.5800 15.1780 -0.0524
45.6000 15.1847 -0.0472
45.6200 15.1913 -0.0660
45.6400 15.1979 -0.0585
45.6600 15.2046 -0.0456
45.6800 15.2113 -0.0680
45.7000 15.2180 -0.0578
45.7200 15.2247 -0.0462
45.7400 15.2313 -0.0706
45.7600 15.2380 -0.0541
45.7800 15.2447 -0.0527
45.8000 15.2513 -0.0677
45.8200 15.2579 -0.0561
45.8400 15.2646 -0.0556
45.8600 15.2713 -0.0701
45.8800 15.2780 -0.0536
45.9000 15.2846 -0.0560
45.9200 15.2913 -0.0674
45.9400 15.2980 -0.0556
45.9600 15.3047 -0.0538
45.9800 15.3113 -0.0718
46.0000 15.3179 -0.0536
46.0200 15.3246 -0.0512
46.0400 15.3313 -0.0681
46.0600 15.3380 -0.0577
46.0800 15.3447 -0.0561
46.1000 15.3514 -0.0674
46.1200 15.3580 -0.0584
46.1400 15.3647 -0.0584
46.1600 15.3713 -0.0697
46.1800 15.3779 -0.0601
46.2000 15.3846 -0.0507
46.2200 15.3913 -0.0660
46.2400 15.3980 -0.0576
46.2600 15.4047 -0.0539
46.2800 15.4114 -0.0643
46.3000 15.4181 -0.0608
46.3200 15.4247 -0.0550
46.3400 15.4313 -0.0640
46.3600 15.4379 -0.0588
46.3800 15.4446 -0.0494
46.4000 15.4513 -0.0662
46.4200 15.4580 -0.0602
46.4400 15.4646 -0.0544
46.4600 15.4713 -0.0637
46.4800 15.4780 -0.0579
46.5000 15.4846 -0.0499
46.5200 15.4913 -0.0692
46.5400 15.4979 -0.0554
46.5600 15.5045 -0.0526
46.5800 15.5112 -0.0656
46.6000 15.5179 -0.0598
46.6200 15.5246 -0.0499
46.6400 15.5313 -0.0662
46.6600 15.5380 -0.0557
46.6800 15.5447 -0.0585
46.7000 15.5513 -0.0638
46.7200 15.5579 -0.0564
46.7400 15.5646 -0.0567
46.7600 15.5713 -0.0683
46.7800 15.5780 -0.0556
46.8000 15.5847 -0.0576
46.8200 15.5914 -0.0692
46.8400 15.5980 -0.0568
46.8600 15.6047 -0.0578
46.8800 15.6113 -0.0677
46.9000 15.6179 -0.0617
46.9200 15.6246 -0.0586
46.9400 15.6313 -0.0671
46.9600 15.6380 -0.0601
46.9800 15.6447 -0.0638
47.0000 15.6514 -0.0670
47.0200 15.6580 -0.0610
47.0400 15.6647 -0.0626
47.0600 15.6713 -0.0705
47.0800 15.6779 -0.0621
47.1000 15.6846 -0.0620
47.1200 15.6912 -0.0660
47.1400 15.6979 -0.0674
47.1600 15.7046 -0.0624
47.1800 15.7113 -0.0674
47.2000 15.7180 -0.0682
47.2200 15.7247 -0.0686
47.2400 15.7313 -0.0643
47.2600 15.7379 -0.0673
47.2800 15.7445 -0.0704
47.3000 15.7512 -0.0673
47.3200 15.7580 -0.0660
47.3400 15.7647 -0.0710
47.3600 15.7713 -0.0663
47.3800 15.7780 -0.0731
47.4000 15.7846 -0.0748
47.4200 15.7913 -0.0617
47.4400 15.7979 -0.0714
47.4600 15.8046 -0.0721
47.4800 15.8113 -0.0629
47.5000 15.8180 -0.0763
47.5200 15.8247 -0.0766
47.5400 15.8314 -0.0583
47.5600 15.8380 -0.0781
47.5800 15.8447 -0.0688
47.6000 15.8514 -0.0681
47.6200 15.8580 -0.0801
47.6400 15.8646 -0.0653
47.6600 15.8713 -0.0646
47.6800 15.8780 -0.0859
47.7000 15.8847 -0.0683
47.7200 15.8914 -0.0697
47.7400 15.8980 -0.0846
47.7600 15.9047 -0.0682
47.7800 15.9113 -0.0686
47.8000 15.9179 -0.0850
47.8200 15.9245 -0.0676
47.8400 15.9312 -0.0712
47.8600 15.9379 -0.0807
47.8800 15.9446 -0.0668
47.9000 15.9513 -0.0758
47.9200 15.9580 -0.0764
47.9400 15.9647 -0.0746
47.9600 15.9713 -0.0778
47.9800 15.9779 -0.0718
48.0000 15.9845 -0.0738
48.0200 15.9912 -0.0821
48.0400 15.9979 -0.0750
48.0600 16.0046 -0.0778
48.0800 16.0113 -0.0763
48.1000 16.0180 -0.0782
48.1200 16.0247 -0.0755
48.1400 16.0314 -0.0797
48.1600 16.0380 -0.0749
48.1800 16.0446 -0.0776
48.2000 16.0513 -0.0695
48.2200 16.0580 -0.0776
48.2400 16.0647 -0.0806
48.2600 16.0713 -0.0727
48.2800 16.0780 -0.0790
48.3000 16.0847 -0.0787
48.3200 16.0913 -0.0658
48.3400 16.0979 -0.0850
48.3600 16.1046 -0.0767
48.3800 16.1113 -0.0647
48.4000 16.1180 -0.0831
48.4200 16.1247 -0.0785
48.4400 16.1313 -0.0673
48.4600 16.1380 -0.0803
48.4800 16.1447 -0.0792
48.5000 16.1514 -0.0703
48.5200 16.1580 -0.0804
48.5400 16.1646 -0.0764
48.5600 16.1712 -0.0731
48.5800 16.1779 -0.0801
48.6000 16.1846 -0.0781
48.6200 16.1913 -0.0710
48.6400 16.1980 -0.0778
48.6600 16.2047 -0.0759
48.6800 16.2113 -0.0744
48.7000 16.2179 -0.0709
48.7200 16.2245 -0.0778
48.7400 16.2312 -0.0713
48.7600 16.2379 -0.0737
48.7800 16.2446 -0.0802
48.8000 16.2513 -0.0728
48.8200 16.2580 -0.0682
48.8400 16.2647 -0.0774
48.8600 16.2713 -0.0732
48.8800 16.2779 -0.0693
48.9000 16.2846 -0.0828
48.9200 16.2912 -0.0704
48.9400 16.2980 -0.0725
48.9600 16.3046 -0.0827
48.9800 16.3113 -0.0708
49.0000 16.3180 -0.0694
49.0200 16.3247 -0.0839
49.0400 16.3314 -0.0702
49.0600 16.3380 -0.0717
49.0800 16.3446 -0.0817
49.1000 16.3513 -0.0723
49.1200 16.3579 -0.0708
49.1400 16.3646 -0.0846
49.1600 16.3713 -0.0726
49.1800 16.3780 -0.0776
49.2000 16.3847 -0.0744
49.2200 16.3914 -0.0746
49.2400 16.3979 -0.0834
49.2600 16.4045 -0.0782
49.2800 16.4112 -0.0662
49.3000 16.4179 -0.0859
49.3200 16.4247 -0.0828
49.3400 16.4314 -0.0682
49.3600 16.4380 -0.0848
49.3800 16.4447 -0.0871
49.4000 16.4513 -0.0677
49.4200 16.4579 -0.0819
49.4400 16.4645 -0.0892
49.4600 16.4712 -0.0737
49.4800 16.4779 -0.0791
49.5000 16.4846 -0.0818
49.5200 16.4913 -0.0790
49.5400 16.4979 -0.0762
49.5600 16.5047 -0.0853
49.5800 16.5113 -0.0814
49.6000 16.5180 -0.0861
49.6200 16.5246 -0.0891
49.6400 16.5313 -0.0748
49.6600 16.5380 -0.0818
49.6800 16.5447 -0.0991
49.7000 16.5513 -0.0767
49.7200 16.5580 -0.0824
49.7400 16.5647 -0.0915
49.7600 16.5714 -0.0818
49.7800 16.5780 -0.0847
49.8000 16.5846 -0.0934
49.8200 16.5913 -0.0775
49.8400 16.5980 -0.0886
49.8600 16.6047 -0.0981
49.8800 16.6114 -0.0742
49.9000 16.6180 -0.0857
49.9200 16.6247 -0.1020
49.9400 16.6313 -0.0760
49.9600 16.6380 -0.0853
49.9800 16.6446 -0.0998
50.0000 16.6512 -0.0803
50.0200 16.6579 -0.0881
50.0400 16.6646 -0.0996
50.0600 16.6713 -0.0848
50.0800 16.6780 -0.0876
50.1000 16.6847 -0.0968
50.1200 16.6913 -0.0849
50.1400 16.6980 -0.0884
50.1600 16.7046 -0.0961
50.1800 16.7112 -0.0832
50.2000 16.7179 -0.0834
50.2200 16.7246 -0.1030
50.2400 16.7313 -0.0835
50.2600 16.7380 -0.0873
50.2800 16.7447 -0.1015
50.3000 16.7513 -0.0841
50.3200 16.7579 -0.0836
50.3400 16.7645 -0.1009
50.3600 16.7712 -0.0857
50.3800 16.7779 -0.0848
50.4000 16.7846 -0.0984
50.4200 16.7913 -0.0865
50.4400 16.7980 -0.0846
50.4600 16.8047 -0.1004
50.4800 16.8114 -0.0894
50.5000 16.8180 -0.0839
50.5200 16.8246 -0.0992
50.5400 16.8313 -0.0882
50.5600 16.8379 -0.0855
50.5800 16.8447 -0.0979
50.6000 16.8514 -0.0895
50.6200 16.8580 -0.0890
50.6400 16.8647 -0.1003
50.6600 16.8714 -0.0884
50.6800 16.8780 -0.0936
50.7000 16.8846 -0.0957
50.7200 16.8912 -0.0899
50.7400 16.8979 -0.0853
50.7600 16.9046 -0.1012
50.7800 16.9113 -0.0879
50.8000 16.9180 -0.0891
50.8200 16.9247 -0.0961
50.8400 16.9313 -0.0879
50.8600 16.9379 -0.0861
50.8800 16.9445 -0.1017
50.9000 16.9512 -0.0888
50.9200 16.9579 -0.0856
50.9400 16.9646 -0.1018
50.9600 16.9713 -0.0877
50.9800 16.9779 -0.0852
51.0000 16.9846 -0.1004
51.0200 16.9913 -0.0888
51.0400 16.9979 -0.0864
51.0600 17.0046 -0.0963
51.0800 17.0112 -0.0873
51.1000 17.0179 -0.0909
51.1200 17.0247 -0.0966
51.1400 17.0313 -0.0893
51.1600 17.0380 -0.0907
51.1800 17.0447 -0.1024
51.2000 17.0514 -0.0854
51.2200 17.0580 -0.0924
51.2400 17.0646 -0.1008
51.2600 17.0712 -0.0876
51.2800 17.0779 -0.0881
51.3000 17.0847 -0.0985
51.3200 17.0914 -0.0926
51.3400 17.0980 -0.0898
51.3600 17.1047 -0.0974
51.3800 17.1114 -0.0913
51.4000 17.1180 -0.0883
51.4200 17.1246 -0.1004
51.4400 17.1312 -0.0891
51.4600 17.1379 -0.0905
51.4800 17.1446 -0.1001
51.5000 17.1513 -0.0909
51.5200 17.1580 -0.0926
51.5400 17.1647 -0.1001
51.5600 17.1714 -0.0925
51.5800 17.1780 -0.0961
51.6000 17.1846 -0.0973
51.6200 17.1913 -0.0907
51.6400 17.1979 -0.0980
51.6600 17.2046 -0.0982
51.6800 17.2113 -0.0937
51.7000 17.2179 -0.0977
51.7200 17.2246 -0.0986
51.7400 17.2313 -0.0975
51.7600 17.2380 -0.0985
51.7800 17.2446 -0.0947
51.8000 17.2512 -0.1012
51.8200 17.2579 -0.0908
51.8400 17.2647 -0.1000
51.8600 17.2714 -0.1059
51.8800 17.2780 -0.0967
51.9000 17.2847 -0.0946
51.9200 17.2914 -0.1053
51.9400 17.2980 -0.0915
51.9600 17.3046 -0.1011
51.9800 17.3112 -0.1032
52.0000 17.3180 -0.0883
52.0200 17.3247 -0.1059
52.0400 17.3314 -0.1074
52.0600 17.3380 -0.0900
52.0800 17.3447 -0.1053
52.1000 17.3513 -0.1063
52.1200 17.3580 -0.0860
52.1400 17.3646 -0.1062
52.1600 17.3712 -0.1001
52.1800 17.3779 -0.0899
52.2000 17.3846 -0.1050
52.2200 17.3913 -0.1029
52.2400 17.3980 -0.0887
52.2600 17.4046 -0.1075
52.2800 17.4113 -0.0974
52.3000 17.4180 -0.0923
52.3200 17.4246 -0.1029
52.3400 17.4312 -0.1004
52.3600 17.4379 -0.0946
52.3800 17.4446 -0.1059
52.4000 17.4513 -0.0962
52.4200 17.4580 -0.0976
52.4400 17.4647 -0.1055
52.4600 17.4714 -0.0988
52.4800 17.4780 -0.1005
52.5000 17.4846 -0.1007
52.5200 17.4913 -0.0952
52.5400 17.4979 -0.1002
52.5600 17.5046 -0.1028
52.5800 17.5113 -0.1022
52.6000 17.5180 -0.0989
52.6200 17.5247 -0.0994
52.6400 17.5314 -0.1003
52.6600 17.5380 -0.1018
52.6800 17.5446 -0.0996
52.7000 17.5512 -0.0943
52.7200 17.5579 -0.1043
52.7400 17.5646 -0.1004
52.7600 17.5713 -0.1017
52.7800 17.5780 -0.0984
52.8000 17.5847 -0.1005
52.8200 17.5914 -0.1010
52.8400 17.5980 -0.1034
52.8600 17.6046 -0.1014
52.8800 17.6112 -0.0960
52.9000 17.6179 -0.1025
52.9200 17.6246 -0.1081
52.9400 17.6313 -0.0943
52.9600 17.6380 -0.1043
52.9800 17.6447 -0.1066
53.0000 17.6513 -0.1002
53.0200 17.6580 -0.1013
53.0400 17.6646 -0.1103
53.0600 17.6712 -0.1010
53.0800 17.6779 -0.1038
53.1000 17.6846 -0.1073
53.1200 17.6913 -0.1010
53.1400 17.6980 -0.1089
53.1600 17.7046 -0.1012
53.1800 17.7113 -0.0972
53.2000 17.7180 -0.1128
53.2200 17.7246 -0.1049
53.2400 17.7312 -0.0991
53.2600 17.7379 -0.1115
53.2800 17.7446 -0.1021
53.3000 17.7513 -0.1035
53.3200 17.7580 -0.1107
53.3400 17.7647 -0.1038
53.3600 17.7714 -0.1046
53.3800 17.7780 -0.1150
53.4000 17.7846 -0.1002
53.4200 17.7912 -0.1087
53.4400 17.7979 -0.1135
53.4600 17.8046 -0.1034
53.4800 17.8114 -0.1057
53.5000 17.8180 -0.1164
53.5200 17.8247 -0.1000
53.5400 17.8314 -0.1127
53.5600 17.8380 -0.1154
53.5800 17.8446 -0.0966
53.6000 17.8512 -0.1099
53.6200 17.8579 -0.1146
53.6400 17.8646 -0.1009
53.6600 17.8713 -0.1120
53.6800 17.8780 -0.1174
53.7000 17.8846 -0.0998
53.7200 17.8913 -0.1179
53.7400 17.8980 -0.1136
53.7600 17.9046 -0.1008
53.7800 17.9112 -0.1181
53.8000 17.9178 -0.1143
53.8200 17.9246 -0.0964
53.8400 17.9313 -0.1236
53.8600 17.9380 -0.1158
53.8800 17.9446 -0.0980
53.9000 17.9513 -0.1196
53.9200 17.9580 -0.1191
53.9400 17.9646 -0.1065
53.9600 17.9712 -0.1199
53.9800 17.9779 -0.1103
54.0000 17.9846 -0.1128
54.0200 17.9913 -0.1239
54.0400 17.9980 -0.1113
54.0600 18.0047 -0.1133
54.0800 18.0114 -0.1262
54.1000 18.0180 -0.1174
54.1200 18.0247 -0.1124
54.1400 18.0313 -0.1217
54.1600 18.0379 -0.1141
54.1800 18.0446 -0.1161
54.2000 18.0513 -0.1208
54.2200 18.0580 -0.1188
54.2400 18.0647 -0.1177
54.2600 18.0714 -0.1256
54.2800 18.0780 -0.1193
54.3000 18.0846 -0.1169
54.3200 18.0912 -0.1190
54.3400 18.0979 -0.1230
54.3600 18.1046 -0.1162
54.3800 18.1113 -0.1233
54.4000 18.1180 -0.1244
54.4200 18.1247 -0.1178
54.4400 18.1313 -0.1202
54.4600 18.1380 -0.1234
54.4800 18.1446 -0.1231
54.5000 18.1512 -0.1243
54.5200 18.1579 -0.1204
54.5400 18.1646 -0.1248
54.5600 18.1713 -0.1277
54.5800 18.1780 -0.1277
54.6000 18.1846 -0.1183
54.6200 18.1913 -0.1255
54.6400 18.1980 -0.1309
54.6600 18.2047 -0.1238
54.6800 18.2113 -0.1268
54.7000 18.2179 -0.1287
54.7200 18.2246 -0.1257
54.7400 18.2313 -0.1257
54.7600 18.2380 -0.1278
54.7800 18.2447 -0.1250
54.8000 18.2514 -0.1311
54.8200 18.2581 -0.1313
54.8400 18.2647 -0.1247
54.8600 18.2712 -0.1308
54.8800 18.2779 -0.1338
54.9000 18.2846 -0.1242
54.9200 18.2913 -0.1296
54.9400 18.2980 -0.1314
54.9600 18.3047 -0.1301
54.9800 18.3114 -0.1327
55.0000 18.3180 -0.1401
55.0200 18.3246 -0.1284
55.0400 18.3313 -0.1337
55.0600 18.3379 -0.1339
55.0800 18.3446 -0.1324
55.1000 18.3513 -0.1329
55.1200 18.3580 -0.1384
55.1400 18.3647 -0.1351
55.1600 18.3713 -0.1310
55.1800 18.3780 -0.1387
55.2000 18.3846 -0.1350
55.2200 18.3912 -0.1344
55.2400 18.3978 -0.1391
55.2600 18.4045 -0.1328
55.2800 18.4112 -0.1339
55.3000 18.4180 -0.1412
55.3200 18.4247 -0.1348
55.3400 18.4314 -0.1374
55.3600 18.4380 -0.1398
55.3800 18.4446 -0.1364
55.4000 18.4512 -0.1338
55.4200 18.4579 -0.1440
55.4400 18.4646 -0.1368
55.4600 18.4713 -0.1361
55.4800 18.4781 -0.1421
55.5000 18.4847 -0.1381
55.5200 18.4914 -0.1336
55.5400 18.4980 -0.1453
55.5600 18.5046 -0.1385
55.5800 18.5113 -0.1386
55.6000 18.5179 -0.1394
55.6200 18.5246 -0.1399
55.6400 18.5313 -0.1388
55.6600 18.5380 -0.1422
55.6800 18.5447 -0.1420
55.7000 18.5513 -0.1376
55.7200 18.5580 -0.1426
55.7400 18.5646 -0.1421
55.7600 18.5712 -0.1372
55.7800 18.5779 -0.1417
55.8000 18.5846 -0.1435
55.8200 18.5913 -0.1374
55.8400 18.5980 -0.1449
55.8600 18.6047 -0.1428
55.8800 18.6113 -0.1383
55.9000 18.6180 -0.1454
55.9200 18.6246 -0.1456
55.9400 18.6312 -0.1282
55.9600 18.6379 -0.1475
55.9800 18.6446 -0.1460
56.0000 18.6513 -0.1348
56.0200 18.6580 -0.1451
56.0400 18.6647 -0.1460
56.0600 18.6713 -0.1351
56.0800 18.6780 -0.1464
56.1000 18.6846 -0.1440
56.1200 18.6912 -0.1351
56.1400 18.6979 -0.1469
56.1600 18.7046 -0.1453
56.1800 18.7113 -0.1320
56.2000 18.7180 -0.1538
56.2200 18.7247 -0.1498
56.2400 18.7314 -0.1267
56.2600 18.7380 -0.1561
56.2800 18.7447 -0.1476
56.3000 18.7513 -0.1321
56.3200 18.7579 -0.1515
56.3400 18.7646 -0.1480
56.3600 18.7713 -0.1311
56.3800 18.7780 -0.1561
56.4000 18.7847 -0.1410
56.4200 18.7914 -0.1353
56.4400 18.7981 -0.1592
56.4600 18.8047 -0.1403
56.4800 18.8112 -0.1316
56.5000 18.8179 -0.1568
56.5200 18.8246 -0.1381
56.5400 18.8313 -0.1420
56.5600 18.8380 -0.1577
56.5800 18.8446 -0.1374
56.6000 18.8513 -0.1395
56.6200 18.8580 -0.1592
56.6400 18.8646 -0.1346
56.6600 18.8712 -0.1465
56.6800 18.8779 -0.1536
56.7000 18.8846 -0.1357
56.7200 18.8913 -0.1471
56.7400 18.8980 -0.1512
56.7600 18.9046 -0.1360
56.7800 18.9113 -0.1472
56.8000 18.9180 -0.1470
56.8200 18.9247 -0.1377
56.8400 18.9313 -0.1485
56.8600 18.9379 -0.1398
56.8800 18.9446 -0.1403
56.9000 18.9513 -0.1453
56.9200 18.9580 -0.1439
56.9400 18.9647 -0.1433
56.9600 18.9714 -0.1460
56.9800 18.9781 -0.1399
57.0000 18.9847 -0.1462
57.0200 18.9913 -0.1421
57.0400 18.9979 -0.1387
57.0600 19.0046 -0.1483
57.0800 19.0113 -0.1407
57.1000 19.0180 -0.1390
57.1200 19.0247 -0.1486
57.1400 19.0314 -0.1364
57.1600 19.0380 -0.1458
57.1800 19.0447 -0.1477
57.2000 19.0513 -0.1306
57.2200 19.0579 -0.1418
57.2400 19.0646 -0.1512
57.2600 19.0713 -0.1349
57.2800 19.0780 -0.1441
57.3000 19.0847 -0.1481
57.3200 19.0913 -0.1339
57.3400 19.0980 -0.1510
57.3600 19.1047 -0.1464
57.3800 19.1113 -0.1328
57.4000 19.1179 -0.1502
57.4200 19.1245 -0.1456
57.4400 19.1312 -0.1338
57.4600 19.1379 -0.1536
57.4800 19.1446 -0.1469
57.5000 19.1513 -0.1361
57.5200 19.1580 -0.1521
57.5400 19.1646 -0.1515
57.5600 19.1712 -0.1372
57.5800 19.1779 -0.1572
57.6000 19.1846 -0.1466
57.6200 19.1913 -0.1449
57.6400 19.1980 -0.1601
57.6600 19.2047 -0.1458
57.6800 19.2114 -0.1456
57.7000 19.2180 -0.1623
57.7200 19.2247 -0.1497
57.7400 19.2313 -0.1456
57.7600 19.2380 -0.1595
57.7800 19.2446 -0.1538
57.8000 19.2513 -0.1523
57.8200 19.2580 -0.1582
57.8400 19.2647 -0.1565
57.8600 19.2714 -0.1514
57.8800 19.2780 -0.1605
57.9000 19.2847 -0.1597
57.9200 19.2913 -0.1557
57.9400 19.2979 -0.1590
57.9600 19.3045 -0.1621
57.9800 19.3112 -0.1553
58.0000 19.3180 -0.1579
58.0200 19.3246 -0.1594
58.0400 19.3313 -0.1599
58.0600 19.3380 -0.1640
58.0800 19.3446 -0.1657
58.1000 19.3512 -0.1556
58.1200 19.3579 -0.1653
58.1400 19.3646 -0.1661
58.1600 19.3713 -0.1588
58.1800 19.3780 -0.1687
58.2000 19.3847 -0.1676
58.2200 19.3913 -0.1557
58.2400 19.3980 -0.1652
58.2600 19.4046 -0.1704
58.2800 19.4113 -0.1602
58.3000 19.4179 -0.1649
58.3200 19.4246 -0.1620
58.3400 19.4313 -0.1617
58.3600 19.4380 -0.1729
58.3800 19.4447 -0.1637
58.4000 19.4513 -0.1573
58.4200 19.4580 -0.1747
58.4400 19.4647 -0.1680
58.4600 19.4713 -0.1574
58.4800 19.4779 -0.1719
58.5000 19.4846 -0.1680
58.5200 19.4913 -0.1558
58.5400 19.4980 -0.1713
58.5600 19.5047 -0.1705
58.5800 19.5113 -0.1658
58.6000 19.5180 -0.1706
58.6200 19.5247 -0.1679
58.6400 19.5313 -0.1633
58.6600 19.5379 -0.1750
58.6800 19.5445 -0.1656
58.7000 19.5513 -0.1631
58.7200 19.5580 -0.1756
58.7400 19.5647 -0.1691
58.7600 19.5713 -0.1654
58.7800 19.5780 -0.1708
58.8000 19.5847 -0.1708
58.8200 19.5913 -0.1712
58.8400 19.5979 -0.1716
58.8600 19.6045 -0.1669
58.8800 19.6112 -0.1727
58.9000 19.6179 -0.1729
58.9200 19.6246 -0.1699
58.9400 19.6313 -0.1680
58.9600 19.6380 -0.1761
58.9800 19.6447 -0.1779
59.0000 19.6513 -0.1725
59.0200 19.6579 -0.1731
59.0400 19.6646 -0.1787
59.0600 19.6713 -0.1687
59.0800 19.6780 -0.1814
59.1000 19.6847 -0.1735
59.1200 19.6914 -0.1719
59.1400 19.6980 -0.1775
59.1600 19.7047 -0.1760
59.1800 19.7113 -0.1745
59.2000 19.7179 -0.1799
59.2200 19.7245 -0.1747
59.2400 19.7313 -0.1735
59.2600 19.7380 -0.1817
59.2800 19.7447 -0.1722
59.3000 19.7514 -0.1767
59.3200 19.7580 -0.1786
59.3400 19.7647 -0.1723
59.3600 19.7713 -0.1782
59.3800 19.7779 -0.1781
59.4000 19.7845 -0.1740
59.4200 19.7912 -0.1782
59.4400 19.7980 -0.1791
59.4600 19.8047 -0.1788
59.4800 19.8114 -0.1781
59.5000 19.8180 -0.1796
59.5200 19.8247 -0.1740
59.5400 19.8313 -0.1833
59.5600 19.8379 -0.1723
59.5800 19.8445 -0.1749
59.6000 19.8512 -0.1783
59.6200 19.8580 -0.1761
59.6400 19.8646 -0.1757
59.6600 19.8713 -0.1812
59.6800 19.8780 -0.1736
59.7000 19.8846 -0.1769
59.7200 19.8913 -0.1795
59.7400 19.8979 -0.1779
59.7600 19.9046 -0.1732
59.7800 19.9113 -0.1788
59.8000 19.9180 -0.1799
59.8200 19.9247 -0.1733
59.8400 19.9314 -0.1811
59.8600 19.9381 -0.1759
59.8800 19.9447 -0.1766
59.9000 19.9514 -0.1785
59.9200 19.9580 -0.1795
59.9400 19.9646 -0.1703
59.9600 19.9713 -0.1805
59.9800 19.9780 -0.1778
60.0000 19.9847 -0.1739
60.0200 19.9914 -0.1803
60.0400 19.9980 -0.1792
60.0600 20.0047 -0.1754
60.0800 20.0113 -0.1832
60.1000 20.0179 -0.1760
60.1200 20.0245 -0.1731
60.1400 20.0312 -0.1826
60.1600 20.0380 -0.1782
60.1800 20.0447 -0.1729
60.2000 20.0513 -0.1857
60.2200 20.0580 -0.1761
60.2400 20.0647 -0.1821
60.2600 20.0713 -0.1809
60.2800 20.0779 -0.1770
60.3000 20.0846 -0.1797
60.3200 20.0913 -0.1845
60.3400 20.0980 -0.1845
60.3600 20.1046 -0.1811
60.3800 20.1113 -0.1866
60.4000 20.1180 -0.1795
60.4200 20.1247 -0.1855
60.4400 20.1313 -0.1872
60.4600 20.1379 -0.1796
60.4800 20.1446 -0.1853
60.5000 20.1512 -0.1827
60.5200 20.1580 -0.1820
60.5400 20.1647 -0.1912
60.5600 20.1713 -0.1878
60.5800 20.1780 -0.1827
60.6000 20.1847 -0.1813
60.6200 20.1913 -0.1919
60.6400 20.1979 -0.1846
60.6600 20.2046 -0.1859
60.6800 20.2113 -0.1865
60.7000 20.2180 -0.1880
60.7200 20.2247 -0.1891
60.7400 20.2314 -0.1903
60.7600 20.2380 -0.1833
60.7800 20.2447 -0.1939
60.8000 20.2513 -0.1935
60.8200 20.2579 -0.1815
60.8400 20.2646 -0.1944
60.8600 20.2713 -0.1933
60.8800 20.2780 -0.1841
60.9000 20.2846 -0.1944
60.9200 20.2913 -0.1923
60.9400 20.2980 -0.1886
60.9600 20.3047 -0.2015
60.9800 20.3113 -0.1937
61.0000 20.3179 -0.1888
61.0200 20.3245 -0.1983
61.0400 20.3312 -0.1926
61.0600 20.3379 -0.1888
61.0800 20.3446 -0.2043
61.1000 20.3513 -0.1727
61.1200 20.3580 -0.1370
61.1400 20.3647 -0.0885
61.1600 20.3713 -0.0463
61.1800 20.3779 -0.0297
61.2000 20.3846 -0.0099
61.2200 20.3913 0.0101
61.2400 20.3980 0.0084
61.2600 20.4047 0.0180
61.2800 20.4114 0.0509
61.3000 20.4180 0.0669
61.3200 20.4247 0.0931
61.3400 20.4313 0.1334
61.3600 20.4379 0.1484
61.3800 20.4446 0.1795
61.4000 20.4513 0.2128
61.4200 20.4580 0.2225
61.4400 20.4647 0.2608
61.4600 20.4714 0.2897
61.4800 20.4780 0.3111
61.5000 20.4847 0.3347
61.5200 20.4913 0.3636
61.5400 20.4979 0.3849
61.5600 20.5045 0.4109
61.5800 20.5112 0.4342
61.6000 20.5179 0.4634
61.6200 20.5246 0.4885
61.6400 20.5313 0.5157
61.6600 20.5380 0.5376
61.6800 20.5447 0.5688
61.7000 20.5513 0.5962
61.7200 20.5579 0.6185
61.7400 20.5645 0.6499
61.7600 20.5712 0.6811
61.7800 20.5779 0.6981
61.8000 20.5846 0.7273
61.8200 20.5913 0.7600
61.8400 20.5980 0.7792
61.8600 20.6046 0.8059
61.8800 20.6113 0.8330
61.9000 20.6179 0.8537
61.9200 20.6246 0.8846
61.9400 20.6312 0.9116
61.9600 20.6380 0.9181
61.9800 20.6447 0.9212
62.0000 20.6514 0.9094
62.0200 20.6580 0.8886
62.0400 20.6647 0.8879
62.0600 20.6714 0.8861
62.0800 20.6780 0.8751
62.1000 20.6846 0.8858
62.1200 20.6912 0.8789
62.1400 20.6980 0.8739
62.1600 20.7047 0.8792
62.1800 20.7114 0.8853
62.2000 20.7180 0.8778
62.2200 20.7247 0.8845
62.2400 20.7313 0.8808
62.2600 20.7379 0.8808
62.2800 20.7445 0.8804
62.3000 20.7512 0.8852
62.3200 20.7579 0.8790
62.3400 20.7646 0.8798
62.3600 20.7713 0.8779
62.3800 20.7779 0.8724
62.4000 20.7846 0.8784
62.4200 20.7913 0.8762
62.4400 20.7979 0.8702
62.4600 20.8045 0.8733
62.4800 20.8112 0.8750
62.5000 20.8179 0.8622
62.5200 20.8246 0.8697
62.5400 20.8313 0.8687
62.5600 20.8380 0.8636
62.5800 20.8447 0.8655
62.6000 20.8514 0.8634
62.6200 20.8580 0.8643
62.6400 20.8646 0.8721
62.6600 20.8712 0.8616
62.6800 20.8780 0.8587
62.7000 20.8847 0.8638
62.7200 20.8914 0.8658
62.7400 20.8980 0.8542
62.7600 20.9047 0.8579
62.7800 20.9114 0.8623
62.8000 20.9179 0.8543
62.8200 20.9246 0.8572
62.8400 20.9312 0.8621
62.8600 20.9380 0.8515
62.8800 20.9447 0.8555
62.9000 20.9513 0.8560
62.9200 20.9580 0.8445
62.9400 20.9647 0.8540
62.9600 20.9714 0.8552
62.9800 20.9780 0.8379
63.0000 20.9846 0.8547
63.0200 20.9912 0.8611
63.0400 20.9979 0.8396
63.0600 21.0046 0.8553
63.0800 21.0113 0.8600
63.1000 21.0180 0.8452
63.1200 21.0247 0.8541
63.1400 21.0314 0.8507
63.1600 21.0380 0.8348
63.1800 21.0445 0.8568
63.2000 21.0512 0.8451
63.2200 21.0579 0.8324
63.2400 21.0646 0.8511
63.2600 21.0713 0.8405
63.2800 21.0780 0.8346
63.3000 21.0847 0.8576
63.3200 21.0913 0.8367
63.3400 21.0980 0.8383
63.3600 21.1046 0.8554
63.3800 21.1112 0.8359
63.4000 21.1179 0.8350
63.4200 21.1246 0.8518
63.4400 21.1313 0.8296
63.4600 21.1380 0.8320
63.4800 21.1447 0.8521
63.5000 21.1514 0.8330
63.5200 21.1580 0.8308
63.5400 21.1646 0.8478
63.5600 21.1713 0.8290
63.5800 21.1779 0.8327
63.6000 21.1846 0.8448
63.6200 21.1913 0.8270
63.6400 21.1980 0.8362
63.6600 21.2047 0.8322
63.6800 21.2114 0.8230
63.7000 21.2180 0.8304
63.7200 21.2246 0.8341
63.7400 21.2312 0.8197
63.7600 21.2379 0.8295
63.7800 21.2447 0.8228
63.8000 21.2513 0.8151
63.8200 21.2580 0.8279
63.8400 21.2647 0.8225
63.8600 21.2713 0.8146
63.8800 21.2779 0.8288
63.9000 21.2846 0.8177
63.9200 21.2912 0.8096
63.9400 21.2979 0.8264
63.9600 21.3046 0.8151
63.9800 21.3113 0.8076
64.0000 21.3180 0.8244
64.0200 21.3246 0.8138
64.0400 21.3313 0.8058
64.0600 21.3380 0.8207
64.0800 21.3446 0.8078
64.1000 21.3512 0.8079
64.1200 21.3579 0.8107
64.1400 21.3647 0.8037
64.1600 21.3714 0.8026
64.1800 21.3780 0.8136
64.2000 21.3847 0.7994
64.2200 21.3914 0.8033
64.2400 21.3980 0.8102
64.2600 21.4046 0.7984
64.2800 21.4112 0.8030
64.3000 21.4180 0.8059
64.3200 21.4247 0.7964
64.3400 21.4314 0.8014
64.3600 21.4380 0.7966
64.3800 21.4447 0.7970
64.4000 21.4513 0.7996
64.4200 21.4580 0.7950
64.4400 21.4646 0.7922
64.4600 21.4712 0.7999
64.4800 21.4779 0.7940
64.5000 21.4846 0.7870
64.5200 21.4913 0.7943
64.5400 21.4980 0.7919
64.5600 21.5047 0.7887
64.5800 21.5113 0.7916
64.6000 21.5180 0.7915
64.6200 21.5246 0.7872
64.6400 21.5312 0.7940
64.6600 21.5379 0.7840
64.6800 21.5446 0.7917
64.7000 21.5513 0.7860
64.7200 21.5580 0.7848
64.7400 21.5647 0.7854
64.7600 21.5713 0.7807
64.7800 21.5780 0.7816
64.8000 21.5846 0.7857
64.8200 21.5913 0.7789
64.8400 21.5980 0.7859
64.8600 21.6047 0.7779
64.8800 21.6113 0.7758
64.9000 21.6180 0.7779
64.9200 21.6247 0.7795
64.9400 21.6314 0.7765
64.9600 21.6380 0.7763
64.9800 21.6446 0.7815
65.0000 21.6513 0.7753
65.0200 21.6579 0.7825
65.0400 21.6646 0.7810
65.0600 21.6713 0.7744
65.0800 21.6780 0.7746
65.1000 21.6847 0.7761
65.1200 21.6914 0.7722
65.1400 21.6980 0.7708
65.1600 21.7046 0.7783
65.1800 21.7112 0.7756
65.2000 21.7179 0.7689
65.2200 21.7246 0.7812
65.2400 21.7313 0.7680
65.2600 21.7380 0.7721
65.2800 21.7447 0.7778
65.3000 21.7513 0.7675
65.3200 21.7580 0.7663
65.3400 21.7645 0.7743
65.3600 21.7712 0.7666
65.3800 21.7779 0.7680
65.4000 21.7846 0.7705
65.4200 21.7913 0.7611
65.4400 21.7979 0.7666
65.4600 21.8046 0.7728
65.4800 21.8113 0.7597
65.5000 21.8180 0.7624
65.5200 21.8246 0.7677
65.5400 21.8312 0.7552
65.5600 21.8379 0.7623
65.5800 21.8447 0.7669
65.6000 21.8514 0.7575
65.6200 21.8581 0.7580
65.6400 21.8647 0.7641
65.6600 21.8714 0.7541
65.6800 21.8780 0.7592
65.7000 21.8846 0.7603
65.7200 21.8912 0.7530
65.7400 21.8979 0.7553
65.7600 21.9047 0.7552
65.7800 21.9114 0.7477
65.8000 21.9180 0.7569
65.8200 21.9247 0.7491
65.8400 21.9314 0.7452
65.8600 21.9380 0.7529
65.8800 21.9446 0.7527
65.9000 21.9512 0.7448
65.9200 21.9579 0.7552
65.9400 21.9646 0.7473
65.9600 21.9713 0.7405
65.9800 21.9780 0.7507
66.0000 21.9847 0.7440
66.0200 21.9914 0.7430
66.0400 21.9980 0.7488
66.0600 22.0046 0.7402
66.0800 22.0113 0.7418
66.1000 22.0179 0.7471
66.1200 22.0246 0.7391
66.1400 22.0313 0.7391
66.1600 22.0379 0.7455
66.1800 22.0446 0.7344
66.2000 22.0513 0.7353
66.2200 22.0580 0.7440
66.2400 22.0646 0.7331
66.2600 22.0712 0.7412
66.2800 22.0779 0.7381
66.3000 22.0846 0.7312
66.3200 22.0914 0.7374
66.3400 22.0980 0.7371
66.3600 22.1047 0.7301
66.3800 22.1114 0.7388
66.4000 22.1180 0.7352
66.4200 22.1246 0.7316
66.4400 22.1312 0.7360
66.4600 22.1379 0.7319
66.4800 22.1447 0.7320
66.5000 22.1514 0.7336
66.5200 22.1580 0.7259
66.5400 22.1647 0.7342
66.5600 22.1714 0.7372
66.5800 22.1780 0.7219
66.6000 22.1846 0.7322
66.6200 22.1912 0.7287
66.6400 22.1979 0.7236
66.6600 22.2046 0.7314
66.6800 22.2113 0.7286
66.7000 22.2180 0.7259
66.7200 22.2246 0.7254
66.7400 22.2313 0.7203
66.7600 22.2380 0.7313
66.7800 22.2446 0.7250
66.8000 22.2512 0.7212
66.8200 22.2579 0.7241
66.8400 22.2646 0.7241
66.8600 22.2713 0.7185
66.8800 22.2780 0.7254
66.9000 22.2847 0.7225
66.9200 22.2913 0.7189
66.9400 22.2980 0.7169
66.9600 22.3046 0.7179
66.9800 22.3112 0.7200
67.0000 22.3179 0.7211
67.0200 22.3246 0.7136
67.0400 22.3313 0.7180
67.0600 22.3380 0.7190
67.0800 22.3447 0.7085
67.1000 22.3514 0.7163
67.1200 22.3580 0.7131
67.1400 22.3646 0.7095
67.1600 22.3712 0.7137
67.1800 22.3779 0.7131
67.2000 22.3846 0.7117
67.2200 22.3913 0.7158
67.2400 22.3980 0.7074
67.2600 22.4047 0.7087
67.2800 22.4114 0.7082
67.3000 22.4180 0.7063
67.3200 22.4246 0.7057
67.3400 22.4312 0.7117
67.3600 22.4379 0.7018
67.3800 22.4446 0.7073
67.4000 22.4514 0.7037
67.4200 22.4580 0.7026
67.4400 22.4647 0.7027
67.4600 22.4713 0.7026
67.4800 22.4780 0.6986
67.5000 22.4846 0.7011
67.5200 22.4912 0.7015
67.5400 22.4979 0.7005
67.5600 22.5046 0.7032
67.5800 22.5113 0.6960
67.6000 22.5180 0.6954
67.6200 22.5246 0.7050
67.6400 22.5313 0.6933
67.6600 22.5380 0.6910
67.6800 22.5446 0.7011
67.7000 22.5512 0.6887
67.7200 22.5579 0.6979
67.7400 22.5646 0.6966
67.7600 22.5713 0.6878
67.7800 22.5780 0.6971
67.8000 22.5847 0.6947
67.8200 22.5914 0.6823
67.8400 22.5981 0.6943
67.8600 22.6046 0.6916
67.8800 22.6113 0.6854
67.9000 22.6179 0.6918
67.9200 22.6246 0.6911
67.9400 22.6314 0.6796
67.9600 22.6380 0.6900
67.9800 22.6447 0.6842
68.0000 22.6514 0.6819
68.0200 22.6580 0.6879
68.0400 22.6647 0.6880
68.0600 22.6713 0.6820
68.0800 22.6779 0.6842
68.1000 22.6846 0.6876
68.1200 22.6913 0.6803
68.1400 22.6979 0.6838
68.1600 22.7046 0.6854
68.1800 22.7113 0.6786
68.2000 22.7180 0.6800
68.2200 22.7246 0.6832
68.2400 22.7312 0.6754
68.2600 22.7378 0.6829
68.2800 22.7445 0.6838
68.3000 22.7513 0.6730
68.3200 22.7580 0.6766
68.3400 22.7647 0.6836
68.3600 22.7713 0.6685
68.3800 22.7780 0.6764
68.4000 22.7846 0.6779
68.4200 22.7912 0.6745
68.4400 22.7979 0.6752
68.4600 22.8046 0.6785
68.4800 22.8113 0.6681
68.5000 22.8180 0.6782
68.5200 22.8247 0.6776
68.5400 22.8314 0.6686
68.5600 22.8380 0.6727
68.5800 22.8447 0.6717
68.6000 22.8513 0.6642
68.6200 22.8580 0.6769
68.6400 22.8647 0.6738
68.6600 22.8713 0.6647
68.6800 22.8780 0.6728
68.7000 22.8847 0.6641
68.7200 22.8914 0.6688
68.7400 22.8981 0.6672
68.7600 22.9047 0.6655
68.7800 22.9112 0.6610
68.8000 22.9179 0.6683
68.8200 22.9246 0.6605
68.8400 22.9313 0.6629
68.8600 22.9380 0.6636
68.8800 22.9447 0.6612
68.9000 22.9513 0.6585
68.9200 22.9580 0.6622
68.9400 22.9646 0.6573
68.9600 22.9712 0.6589
68.9800 22.9779 0.6605
69.0000 22.9846 0.6565
69.0200 22.9913 0.6564
69.0400 22.9980 0.6620
69.0600 23.0046 0.6564
69.0800 23.0113 0.6520
69.1000 23.0180 0.6558
69.1200 23.0246 0.6550
69.1400 23.0312 0.6511
69.1600 23.0379 0.6534
69.1800 23.0446 0.6565
69.2000 23.0513 0.6497
69.2200 23.0580 0.6472
69.2400 23.0647 0.6486
69.2600 23.0714 0.6503
69.2800 23.0781 0.6489
69.3000 23.0847 0.6464
69.3200 23.0912 0.6464
69.3400 23.0979 0.6466
69.3600 23.1046 0.6432
69.3800 23.1113 0.6461
69.4000 23.1180 0.6429
69.4200 23.1247 0.6476
69.4400 23.1314 0.6457
69.4600 23.1380 0.6439
69.4800 23.1446 0.6461
69.5000 23.1513 0.6448
69.5200 23.1579 0.6430
69.5400 23.1646 0.6490
69.5600 23.1713 0.6391
69.5800 23.1780 0.6414
69.6000 23.1847 0.6490
69.6200 23.1913 0.6387
69.6400 23.1980 0.6388
69.6600 23.2046 0.6469
69.6800 23.2112 0.6360
69.7000 23.2178 0.6377
69.7200 23.2245 0.6495
69.7400 23.2312 0.6349
69.7600 23.2380 0.6404
69.7800 23.2446 0.6415
69.8000 23.2513 0.6274
69.8200 23.2580 0.6397
69.8400 23.2646 0.6433
69.8600 23.2712 0.6309
69.8800 23.2779 0.6397
69.9000 23.2846 0.6368
69.9200 23.2913 0.6308
69.9400 23.2980 0.6372
69.9600 23.3047 0.6317
69.9800 23.3114 0.6261
70.0000 23.3180 0.6415
70.0200 23.3247 0.6249
70.0400 23.3313 0.6295
70.0600 23.3379 0.6388
70.0800 23.3446 0.6240
70.1000 23.3513 0.6278
70.1200 23.3580 0.6318
70.1400 23.3647 0.6243
70.1600 23.3714 0.6264
70.1800 23.3780 0.6248
70.2000 23.3846 0.6204
70.2200 23.3912 0.6247
70.2400 23.3979 0.6211
70.2600 23.4046 0.6196
70.2800 23.4113 0.6277
70.3000 23.4180 0.6203
70.3200 23.4247 0.6176
70.3400 23.4314 0.6242
70.3600 23.4380 0.6137
70.3800 23.4447 0.6205
70.4000 23.4512 0.6227
70.4200 23.4579 0.6164
70.4400 23.4646 0.6158
70.4600 23.4713 0.6164
70.4800 23.4780 0.6121
70.5000 23.4847 0.6169
70.5200 23.4913 0.6100
70.5400 23.4980 0.6120
70.5600 23.5046 0.6134
70.5800 23.5112 0.6100
70.6000 23.5179 0.6118
70.6200 23.5246 0.6151
70.6400 23.5313 0.6064
70.6600 23.5380 0.6121
70.6800 23.5447 0.6120
70.7000 23.5514 0.6081
70.7200 23.5580 0.6105
70.7400 23.5647 0.6081
70.7600 23.5713 0.6061
70.7800 23.5779 0.6091
70.8000 23.5846 0.6080
70.8200 23.5913 0.6032
70.8400 23.5980 0.6073
70.8600 23.6047 0.6020
70.8800 23.6114 0.6043
70.9000 23.6181 0.6032
70.9200 23.6247 0.6036
70.9400 23.6313 0.5981
70.9600 23.6379 0.6091
70.9800 23.6446 0.6025
71.0000 23.6513 0.5998
71.0200 23.6580 0.6029
71.0400 23.6647 0.5982
71.0600 23.6713 0.6001
71.0800 23.6780 0.5974
71.1000 23.6847 0.5962
71.1200 23.6913 0.6007
71.1400 23.6979 0.5971
71.1600 23.7046 0.5989
71.1800 23.7113 0.5964
71.2000 23.7180 0.5931
71.2200 23.7246 0.5959
71.2400 23.7313 0.5965
71.2600 23.7380 0.5984
71.2800 23.7447 0.5957
71.3000 23.7513 0.5963
71.3200 23.7579 0.5907
71.3400 23.7646 0.5968
71.3600 23.7713 0.5904
71.3800 23.7780 0.5883
71.4000 23.7847 0.5960
71.4200 23.7914 0.5889
71.4400 23.7981 0.5855
71.4600 23.8047 0.5961
71.4800 23.8113 0.5863
71.5000 23.8179 0.5927
71.5200 23.8246 0.5921
71.5400 23.8313 0.5885
71.5600 23.8380 0.5840
71.5800 23.8447 0.5905
71.6000 23.8514 0.5829
71.6200 23.8580 0.5836
71.6400 23.8647 0.5855
71.6600 23.8713 0.5827
71.6800 23.8779 0.5870
71.7000 23.8846 0.5829
71.7200 23.8913 0.5815
71.7400 23.8980 0.5851
71.7600 23.9046 0.5821
71.7800 23.9113 0.5803
71.8000 23.9180 0.5816
71.8200 23.9247 0.5802
71.8400 23.9313 0.5768
71.8600 23.9378 0.5786
71.8800 23.9445 0.5779
71.9000 23.9512 0.5787
71.9200 23.9579 0.5758
71.9400 23.9646 0.5728
71.9600 23.9713 0.5832
71.9800 23.9780 0.5686
72.0000 23.9846 0.5744
72.0200 23.9912 0.5757
72.0400 23.9978 0.5685
72.0600 24.0045 0.5744
72.0800 24.0113 0.5760
72.1000 24.0180 0.5640
72.1200 24.0247 0.5698
72.1400 24.0314 0.5771
72.1600 24.0381 0.5629
72.1800 24.0447 0.5666
72.2000 24.0513 0.5762
72.2200 24.0580 0.5654
72.2400 24.0646 0.5655
72.2600 24.0713 0.5741
72.2800 24.0780 0.5606
72.3000 24.0847 0.5699
72.3200 24.0914 0.5703
72.3400 24.0980 0.5604
72.3600 24.1047 0.5691
72.3800 24.1113 0.5687
72.4000 24.1179 0.5577
72.4200 24.1245 0.5659
72.4400 24.1312 0.5684
72.4600 24.1380 0.5616
72.4800 24.1446 0.5599
72.5000 24.1513 0.5692
72.5200 24.1580 0.5589
72.5400 24.1646 0.5561
72.5600 24.1712 0.5662
72.5800 24.1779 0.5629
72.6000 24.1845 0.5548
72.6200 24.1913 0.5697
72.6400 24.1980 0.5560
72.6600 24.2047 0.5516
72.6800 24.2113 0.5679
72.7000 24.2180 0.5548
72.7200 24.2247 0.5491
72.7400 24.2313 0.5722
72.7600 24.2379 0.5503
72.7800 24.2446 0.5485
72.8000 24.2513 0.5672
72.8200 24.2580 0.5482
72.8400 24.2647 0.5559
72.8600 24.2714 0.5649
72.8800 24.2780 0.5441
72.9000 24.2847 0.5520
72.9200 24.2913 0.5654
72.9400 24.2979 0.5425
72.9600 24.3046 0.5575
72.9800 24.3113 0.5602
73.0000 24.3180 0.5384
73.0200 24.3247 0.5495
73.0400 24.3314 0.5566
73.0600 24.3380 0.5391
73.0800 24.3447 0.5535
73.1000 24.3513 0.5492
73.1200 24.3579 0.5412
73.1400 24.3645 0.5528
73.1600 24.3713 0.5491
73.1800 24.3780 0.5422
73.2000 24.3846 0.5503
73.2200 24.3913 0.5452
73.2400 24.3980 0.5458
73.2600 24.4046 0.5428
73.2800 24.4113 0.5408
73.3000 24.4179 0.5425
73.3200 24.4246 0.5459
73.3400 24.4312 0.5388
73.3600 24.4379 0.5427
73.3800 24.4446 0.5413
73.4000 24.4513 0.5366
73.4200 24.4580 0.5427
73.4400 24.4647 0.5377
73.4600 24.4713 0.5385
73.4800 24.4779 0.5388
73.5000 24.4846 0.5361
73.5200 24.4913 0.5376
73.5400 24.4980 0.5360
73.5600 24.5047 0.5318
73.5800 24.5114 0.5415
73.6000 24.5181 0.5289
73.6200 24.5247 0.5273
73.6400 24.5313 0.5409
73.6600 24.5379 0.5296
73.6800 24.5446 0.5267
73.7000 24.5513 0.5417
73.7200 24.5580 0.5243
73.7400 24.5647 0.5222
73.7600 24.5714 0.5352
73.7800 24.5780 0.5193
73.8000 24.5847 0.5210
73.8200 24.5913 0.5313
73.8400 24.5979 0.5198
73.8600 24.6046 0.5243
73.8800 24.6112 0.5323
73.9000 24.6180 0.5142
73.9200 24.6247 0.5245
73.9400 24.6313 0.5304
73.9600 24.6380 0.5179
73.9800 24.6447 0.5182
74.0000 24.6513 0.5236
74.0200 24.6579 0.5165
74.0400 24.6645 0.5212
74.0600 24.6712 0.5232
74.0800 24.6780 0.5179
74.1000 24.6847 0.5144
74.1200 24.6913 0.5208
74.1400 24.6980 0.5121
74.1600 24.7047 0.5186
74.1800 24.7113 0.5216
74.2000 24.7179 0.5142
74.2200 24.7246 0.5143
74.2400 24.7313 0.5177
74.2600 24.7380 0.5137
74.2800 24.7447 0.5145
74.3000 24.7514 0.5150
74.3200 24.7581 0.5123
74.3400 24.7647 0.5096
74.3600 24.7714 0.5152
74.3800 24.7780 0.5137
74.4000 24.7846 0.5135
74.4200 24.7913 0.5140
74.4400 24.7980 0.5088
74.4600 24.8047 0.5120
74.4800 24.8114 0.5132
74.5000 24.8180 0.5139
74.5200 24.8247 0.5071
74.5400 24.8313 0.5140
74.5600 24.8379 0.5096
74.5800 24.8445 0.5086
74.6000 24.8512 0.5135
74.6200 24.8580 0.5104
74.6400 24.8647 0.5032
74.6600 24.8713 0.5111
74.6800 24.8780 0.5076
74.7000 24.8847 0.5044
74.7200 24.8913 0.5095
74.7400 24.8979 0.5053
74.7600 24.9046 0.5011
74.7800 24.9112 0.5093
74.8000 24.9180 0.5056
74.8200 24.9246 0.5045
74.8400 24.9313 0.5072
74.8600 24.9380 0.5027
74.8800 24.9447 0.4985
74.9000 24.9513 0.5001
74.9200 24.9579 0.5113
74.9400 24.9646 0.4976
74.9600 24.9712 0.5004
74.9800 24.9780 0.5090
75.0000 24.9847 0.4985
75.0200 24.9914 0.4969
75.0400 24.9980 0.5041
75.0600 25.0047 0.4891
75.0800 25.0113 0.4984
75.1000 25.0179 0.5043
75.1200 25.0246 0.4904
75.1400 25.0313 0.4981
75.1600 25.0380 0.5047
75.1800 25.0447 0.4860
75.2000 25.0514 0.5005
75.2200 25.0580 0.5012
75.2400 25.0647 0.4870
75.2600 25.0713 0.4969
75.2800 25.0779 0.5008
75.3000 25.0846 0.4868
75.3200 25.0913 0.4982
75.3400 25.0980 0.4969
75.3600 25.1046 0.4875
75.3800 25.1113 0.4967
75.4000 25.1180 0.4934
75.4200 25.1247 0.4845
75.4400 25.1313 0.4975
75.4600 25.1379 0.4953
75.4800 25.1445 0.4815
75.5000 25.1512 0.4938
75.5200 25.1579 0.4909
75.5400 25.1646 0.4859
75.5600 25.1713 0.4850
75.5800 25.1780 0.4940
75.6000 25.1847 0.4836
75.6200 25.1913 0.4849
75.6400 25.1979 0.4899
75.6600 25.2046 0.4857
75.6800 25.2113 0.4866
75.7000 25.2180 0.4870
75.7200 25.2247 0.4737
75.7400 25.2314 0.4897
75.7600 25.2380 0.4819
75.7800 25.2447 0.4770
75.8000 25.2513 0.4879
75.8200 25.2579 0.4786
75.8400 25.2646 0.4794
75.8600 25.2713 0.4873
75.8800 25.2780 0.4771
75.9000 25.2847 0.4754
75.9200 25.2914 0.4825
75.9400 25.2980 0.4747
75.9600 25.3047 0.4792
75.9800 25.3114 0.4778
76.0000 25.3180 0.4721
76.0200 25.3246 0.4810
76.0400 25.3312 0.4733
76.0600 25.3379 0.4702
76.0800 25.3446 0.4836
76.1000 25.3513 0.4667
76.1200 25.3580 0.4714
76.1400 25.3647 0.4762
76.1600 25.3713 0.4643
76.1800 25.3779 0.4669
76.2000 25.3845 0.4805
76.2200 25.3912 0.4614
76.2400 25.3979 0.4694
76.2600 25.4046 0.4749
76.2800 25.4113 0.4581
76.3000 25.4180 0.4692
76.3200 25.4246 0.4794
76.3400 25.4313 0.4555
76.3600 25.4379 0.4641
76.3800 25.4446 0.4718
76.4000 25.4512 0.4588
76.4200 25.4580 0.4600
76.4400 25.4647 0.4740
76.4600 25.4713 0.4602
76.4800 25.4780 0.4590
76.5000 25.4847 0.4698
76.5200 25.4914 0.4511
76.5400 25.4980 0.4607
76.5600 25.5046 0.4684
76.5800 25.5113 0.4499
76.6000 25.5180 0.4580
76.6200 25.5247 0.4689
76.6400 25.5314 0.4476
76.6600 25.5381 0.4575
76.6800 25.5447 0.4627
76.7000 25.5513 0.4459
76.7200 25.5579 0.4555
76.7400 25.5646 0.4638
76.7600 25.5712 0.4422
76.7800 25.5779 0.4589
76.8000 25.5846 0.4582
76.8200 25.5913 0.4385
76.8400 25.5979 0.4536
76.8600 25.6046 0.4669
76.8800 25.6113 0.4363
76.9000 25.6179 0.4511
76.9200 25.6245 0.4603
76.9400 25.6312 0.4381
76.9600 25.6379 0.4523
76.9800 25.6446 0.4508
77.0000 25.6513 0.4353
77.0200 25.6580 0.4498
77.0400 25.6647 0.4496
77.0600 25.6714 0.4322
77.0800 25.6780 0.4520
77.1000 25.6846 0.4506
77.1200 25.6912 0.4321
77.1400 25.6979 0.4443
77.1600 25.7046 0.4493
77.1800 25.7113 0.4330
77.2000 25.7180 0.4469
77.2200 25.7247 0.4447
77.2400 25.7314 0.4292
77.2600 25.7380 0.4419
77.2800 25.7446 0.4454
77.3000 25.7512 0.4290
77.3200 25.7579 0.4437
77.3400 25.7647 0.4407
77.3600 25.7714 0.4273
77.3800 25.7780 0.4377
77.4000 25.7847 0.4430
77.4200 25.7914 0.4294
77.4400 25.7980 0.4357
77.4600 25.8046 0.4402
77.4800 25.8113 0.4237
77.5000 25.8179 0.4377
77.5200 25.8246 0.4400
77.5400 25.8313 0.4214
77.5600 25.8380 0.4367
77.5800 25.8447 0.4380
77.6000 25.8514 0.4153
77.6200 25.8580 0.4353
77.6400 25.8645 0.4381
77.6600 25.8712 0.4247
77.6800 25.8779 0.4304
77.7000 25.8846 0.4332
77.7200 25.8913 0.4225
77.7400 25.8980 0.4363
77.7600 25.9047 0.4287
77.7800 25.9113 0.4219
77.8000 25.9179 0.4272
77.8200 25.9246 0.4289
77.8400 25.9312 0.4254
77.8600 25.9379 0.4261
77.8800 25.9446 0.4264
77.9000 25.9513 0.4238
77.9200 25.9580 0.4196
77.9400 25.9647 0.4335
77.9600 25.9714 0.4247
77.9800 25.9780 0.4106
78.0000 25.9846 0.4283
78.0200 25.9912 0.4200
78.0400 25.9979 0.4164
78.0600 26.0046 0.4277
78.0800 26.0113 0.4186
78.1000 26.0180 0.4113
78.1200 26.0247 0.4276
78.1400 26.0314 0.4128
78.1600 26.0380 0.4086
78.1800 26.0446 0.4263
78.2000 26.0512 0.4125
78.2200 26.0579 0.4056
78.2400 26.0647 0.4268
78.2600 26.0714 0.4074
78.2800 26.0780 0.4075
78.3000 26.0847 0.4225
78.3200 26.0913 0.4042
78.3400 26.0980 0.4086
78.3600 26.1046 0.4303
78.3800 26.1112 0.3983
78.4000 26.1179 0.4045
78.4200 26.1246 0.4252
78.4400 26.1313 0.3947
78.4600 26.1379 0.4092
78.4800 26.1446 0.4211
78.5000 26.1513 0.3899
78.5200 26.1580 0.4101
78.5400 26.1646 0.4165
78.5600 26.1712 0.3918
78.5800 26.1779 0.4160
78.6000 26.1846 0.4084
78.6200 26.1914 0.3919
78.6400 26.1980 0.4083
78.6600 26.2047 0.4090
78.6800 26.2114 0.3938
78.7000 26.2180 0.4064
78.7200 26.2246 0.4035
78.7400 26.2312 0.3988
78.7600 26.2380 0.4032
78.7800 26.2447 0.4005
78.8000 26.2514 0.4010
78.8200 26.2580 0.4018
78.8400 26.2647 0.3994
78.8600 26.2713 0.3975
78.8800 26.2780 0.3982
78.9000 26.2846 0.4037
78.9200 26.2912 0.3987
78.9400 26.2979 0.3983
78.9600 26.3046 0.4022
78.9800 26.3113 0.3948
79.0000 26.3180 0.3955
79.0200 26.3247 0.4058
79.0400 26.3313 0.3932
79.0600 26.3380 0.3908
79.0800 26.3446 0.4082
79.1000 26.3512 0.3909
79.1200 26.3579 0.3945
79.1400 26.3646 0.4039
79.1600 26.3713 0.3881
79.1800 26.3780 0.3914
79.2000 26.3847 0.4030
79.2200 26.3914 0.3852
79.2400 26.3980 0.3983
79.2600 26.4046 0.4012
79.2800 26.4112 0.3827
79.3000 26.4179 0.3899
79.3200 26.4246 0.4004
79.3400 26.4313 0.3800
79.3600 26.4380 0.3955
79.3800 26.4447 0.3965
79.4000 26.4514 0.3813
79.4200 26.4580 0.3949
79.4400 26.4646 0.3951
79.4600 26.4713 0.3840
79.4800 26.4779 0.3970
79.5000 26.4846 0.3853
79.5200 26.4913 0.3864
79.5400 26.4980 0.3970
79.5600 26.5047 0.3848
79.5800 26.5114 0.3902
79.6000 26.5180 0.3888
79.6200 26.5246 0.3846
79.6400 26.5312 0.3959
79.6600 26.5379 0.3950
79.6800 26.5446 0.3768
79.7000 26.5513 0.3916
79.7200 26.5580 0.3885
79.7400 26.5647 0.3790
79.7600 26.5713 0.3935
79.7800 26.5780 0.3849
79.8000 26.5845 0.3772
79.8200 26.5912 0.3973
79.8400 26.5979 0.3778
79.8600 26.6046 0.3781
79.8800 26.6113 0.3940
79.9000 26.6180 0.3720
79.9200 26.6246 0.3758
79.9400 26.6313 0.3970
79.9600 26.6380 0.3771
79.9800 26.6446 0.3741
80.0000 26.6512 0.3897
80.0200 26.6579 0.3776
80.0400 26.6646 0.3809
80.0600 26.6713 0.3870
80.0800 26.6780 0.3724
80.1000 26.6847 0.3814
80.1200 26.6914 0.3827
80.1400 26.6981 0.3661
80.1600 26.7046 0.3852
80.1800 26.7112 0.3842
80.2000 26.7179 0.3691
80.2200 26.7246 0.3785
80.2400 26.7313 0.3781
80.2600 26.7380 0.3637
80.2800 26.7447 0.3800
80.3000 26.7514 0.3741
80.3200 26.7580 0.3670
80.3400 26.7646 0.3792
80.3600 26.7712 0.3720
80.3800 26.7779 0.3673
80.4000 26.7846 0.3814
80.4200 26.7913 0.3670
80.4400 26.7980 0.3668
80.4600 26.8046 0.3767
80.4800 26.8113 0.3654
80.5000 26.8180 0.3636
80.5200 26.8246 0.3741
80.5400 26.8313 0.3620
80.5600 26.8379 0.3663
80.5800 26.8446 0.3683
80.6000 26.8513 0.3570
80.6200 26.8579 0.3681
80.6400 26.8646 0.3655
80.6600 26.8713 0.3548
80.6800 26.8780 0.3665
80.7000 26.8846 0.3591
80.7200 26.8912 0.3520
80.7400 26.8979 0.3659
80.7600 26.9046 0.3554
80.7800 26.9113 0.3544
80.8000 26.9180 0.3626
80.8200 26.9247 0.3513
80.8400 26.9314 0.3565
80.8600 26.9380 0.3607
80.8800 26.9446 0.3441
80.9000 26.9512 0.3592
80.9200 26.9579 0.3627
80.9400 26.9646 0.3433
80.9600 26.9714 0.3519
80.9800 26.9780 0.3607
81.0000 26.9847 0.3378
81.0200 26.9914 0.3538
81.0400 26.9980 0.3561
81.0600 27.0046 0.3412
81.0800 27.0112 0.3572
81.1000 27.0179 0.3459
81.1200 27.0246 0.3333
81.1400 27.0313 0.3549
81.1600 27.0380 0.3480
81.1800 27.0447 0.3331
81.2000 27.0513 0.3572
81.2200 27.0580 0.3398
81.2400 27.0646 0.3337
81.2600 27.0712 0.3584
81.2800 27.0778 0.3413
81.3000 27.0846 0.3323
81.3200 27.0913 0.3513
81.3400 27.0980 0.3308
81.3600 27.1047 0.3384
81.3800 27.1113 0.3493
81.4000 27.1180 0.3349
81.4200 27.1246 0.3362
81.4400 27.1313 0.3478
81.4600 27.1379 0.3288
81.4800 27.1446 0.3405
81.5000 27.1513 0.3452
81.5200 27.1580 0.3273
81.5400 27.1647 0.3404
81.5600 27.1713 0.3391
81.5800 27.1780 0.3285
81.6000 27.1846 0.3399
81.6200 27.1912 0.3372
81.6400 27.1979 0.3328
81.6600 27.2046 0.3353
81.6800 27.2113 0.3362
81.7000 27.2180 0.3385
81.7200 27.2247 0.3295
81.7400 27.2314 0.3305
81.7600 27.2380 0.3322
81.7800 27.2446 0.3342
81.8000 27.2512 0.3365
81.8200 27.2579 0.3341
81.8400 27.2646 0.3280
81.8600 27.2714 0.3330
81.8800 27.2780 0.3322
81.9000 27.2847 0.3246
81.9200 27.2914 0.3324
81.9400 27.2980 0.3361
81.9600 27.3046 0.3190
81.9800 27.3112 0.3328
82.0000 27.3179 0.3378
82.0200 27.3246 0.3200
82.0400 27.3313 0.3304
82.0600 27.3380 0.3331
82.0800 27.3446 0.3204
82.1000 27.3513 0.3287
82.1200 27.3580 0.3310
82.1400 27.3646 0.3136
82.1600 27.3712 0.3344
82.1800 27.3779 0.3311
82.2000 27.3846 0.3116
82.2200 27.3913 0.3301
82.2400 27.3980 0.3320
82.2600 27.4047 0.3104
82.2800 27.4114 0.3318
82.3000 27.4181 0.3296
82.3200 27.4247 0.3115
82.3400 27.4313 0.3302
82.3600 27.4379 0.3336
82.3800 27.4446 0.3092
82.4000 27.4514 0.3312
82.4200 27.4581 0.3265
82.4400 27.4647 0.3072
82.4600 27.4714 0.3276
82.4800 27.4780 0.3248
82.5000 27.4846 0.3127
82.5200 27.4912 0.3267
82.5400 27.4979 0.3205
82.5600 27.5046 0.3166
82.5800 27.5113 0.3204
82.6000 27.5180 0.3174
82.6200 27.5246 0.3163
82.6400 27.5313 0.3201
82.6600 27.5380 0.3204
82.6800 27.5446 0.3161
82.7000 27.5512 0.3199
82.7200 27.5578 0.3212
82.7400 27.5645 0.3138
82.7600 27.5713 0.3109
82.7800 27.5780 0.3256
82.8000 27.5847 0.3114
82.8200 27.5913 0.3083
82.8400 27.5980 0.3225
82.8600 27.6046 0.3153
82.8800 27.6112 0.3066
82.9000 27.6179 0.3231
82.9200 27.6246 0.3094
82.9400 27.6313 0.3092
82.9600 27.6380 0.3138
82.9800 27.6447 0.3114
83.0000 27.6514 0.3130
83.0200 27.6580 0.3124
83.0400 27.6647 0.3002
83.0600 27.6713 0.3090
83.0800 27.6779 0.3163
83.1000 27.6846 0.3094
83.1200 27.6913 0.3020
83.1400 27.6980 0.3084
83.1600 27.7047 0.3102
83.1800 27.7114 0.3014
83.2000 27.7180 0.3081
83.2200 27.7247 0.3046
83.2400 27.7312 0.3019
83.2600 27.7379 0.3132
83.2800 27.7446 0.3022
83.3000 27.7513 0.2953
83.3200 27.7580 0.3158
83.3400 27.7647 0.2977
83.3600 27.7713 0.2954
83.3800 27.7780 0.3156
83.4000 27.7846 0.2984
83.4200 27.7912 0.2911
83.4400 27.7979 0.3151
83.4600 27.8046 0.2936
83.4800 27.8113 0.2972
83.5000 27.8180 0.3152
83.5200 27.8246 0.2895
83.5400 27.8313 0.2973
83.5600 27.8380 0.3069
83.5800 27.8447 0.2846
83.6000 27.8513 0.3014
83.6200 27.8579 0.3058
83.6400 27.8646 0.2868
83.6600 27.8713 0.3023
83.6800 27.8780 0.2968
83.7000 27.8847 0.2886
83.7200 27.8914 0.3039
83.7400 27.8981 0.2909
83.7600 27.9047 0.2899
83.7800 27.9113 0.3013
83.8000 27.9179 0.2927
83.8200 27.9246 0.2952
83.8400 27.9313 0.2928
83.8600 27.9380 0.2901
83.8800 27.9447 0.2914
83.9000 27.9514 0.2934
83.9200 27.9580 0.2828
83.9400 27.9646 0.2960
83.9600 27.9713 0.2942
83.9800 27.9779 0.2883
84.0000 27.9846 0.2905
84.0200 27.9913 0.2868
84.0400 27.9980 0.2881
84.0600 28.0046 0.2923
84.0800 28.0113 0.2854
84.1000 28.0180 0.2867
84.1200 28.0247 0.2915
84.1400 28.0313 0.2814
84.1600 28.0379 0.2836
84.1800 28.0445 0.2926
84.2000 28.0512 0.2825
84.2200 28.0579 0.2798
84.2400 28.0646 0.2908
84.2600 28.0713 0.2784
84.2800 28.0780 0.2856
84.3000 28.0846 0.2848
84.3200 28.0912 0.2800
84.3400 28.0979 0.2832
84.3600 28.1046 0.2871
84.3800 28.1113 0.2760
84.4000 28.1180 0.2801
84.4200 28.1247 0.2852
84.4400 28.1314 0.2783
84.4600 28.1381 0.2760
84.4800 28.1447 0.2836
84.5000 28.1513 0.2777
84.5200 28.1579 0.2824
84.5400 28.1646 0.2769
84.5600 28.1713 0.2765
84.5800 28.1780 0.2784
84.6000 28.1847 0.2814
84.6200 28.1913 0.2757
84.6400 28.1980 0.2753
84.6600 28.2046 0.2757
84.6800 28.2113 0.2770
84.7000 28.2179 0.2773
84.7200 28.2245 0.2767
84.7400 28.2313 0.2761
84.7600 28.2380 0.2721
84.7800 28.2447 0.2784
84.8000 28.2513 0.2755
84.8200 28.2580 0.2673
84.8400 28.2647 0.2748
84.8600 28.2713 0.2726
84.8800 28.2779 0.2679
84.9000 28.2846 0.2764
84.9200 28.2913 0.2734
84.9400 28.2980 0.2651
84.9600 28.3047 0.2680
84.9800 28.3113 0.2789
85.0000 28.3180 0.2676
85.0200 28.3246 0.2690
85.0400 28.3313 0.2714
85.0600 28.3379 0.2644
85.0800 28.3446 0.2699
85.1000 28.3513 0.2737
85.1200 28.3580 0.2560
85.1400 28.3647 0.2723
85.1600 28.3714 0.2740
85.1800 28.3780 0.2534
85.2000 28.3847 0.2727
85.2200 28.3913 0.2701
85.2400 28.3979 0.2552
85.2600 28.4046 0.2705
85.2800 28.4113 0.2702
85.3000 28.4180 0.2511
85.3200 28.4247 0.2708
85.3400 28.4314 0.2637
85.3600 28.4381 0.2497
85.3800 28.4447 0.2725
85.4000 28.4513 0.2633
85.4200 28.4579 0.2516
85.4400 28.4646 0.2783
85.4600 28.4713 0.2565
85.4800 28.4780 0.2502
85.5000 28.4847 0.2714
85.5200 28.4913 0.2631
85.5400 28.4980 0.2509
85.5600 28.5046 0.2720
85.5800 28.5113 0.2566
85.6000 28.5179 0.2513
85.6200 28.5246 0.2752
85.6400 28.5313 0.2579
85.6600 28.5380 0.2435
85.6800 28.5446 0.2679
85.7000 28.5513 0.2582
85.7200 28.5580 0.2463
85.7400 28.5647 0.2683
85.7600 28.5713 0.2561
85.7800 28.5779 0.2405
85.8000 28.5846 0.2660
85.8200 28.5913 0.2616
85.8400 28.5980 0.2430
85.8600 28.6047 0.2627
85.8800 28.6114 0.2504
85.9000 28.6181 0.2429
85.9200 28.6247 0.2623
85.9400 28.6313 0.2532
85.9600 28.6379 0.2424
85.9800 28.6446 0.2595
86.0000 28.6513 0.2533
86.0200 28.6580 0.2402
86.0400 28.6647 0.2561
86.0600 28.6714 0.2521
86.0800 28.6780 0.2410
86.1000 28.6847 0.2533
86.1200 28.6913 0.2490
86.1400 28.6979 0.2439
86.1600 28.7046 0.2506
86.1800 28.7113 0.2470
86.2000 28.7180 0.2417
86.2200 28.7246 0.2500
86.2400 28.7313 0.2467
86.2600 28.7380 0.2376
86.2800 28.7447 0.2477
86.3000 28.7513 0.2386
86.3200 28.7579 0.2410
86.3400 28.7645 0.2470
86.3600 28.7712 0.2419
86.3800 28.7779 0.2314
86.4000 28.7846 0.2454
86.4200 28.7913 0.2418
86.4400 28.7980 0.2334
86.4600 28.8046 0.2416
86.4800 28.8112 0.2391
86.5000 28.8179 0.2329
86.5200 28.8245 0.2413
86.5400 28.8313 0.2371
86.5600 28.8380 0.2367
86.5800 28.8447 0.2331
86.6000 28.8514 0.2332
86.6200 28.8581 0.2313
86.6400 28.8647 0.2373
86.6600 28.8714 0.2368
86.6800 28.8780 0.2261
86.7000 28.8846 0.2344
86.7200 28.8913 0.2365
86.7400 28.8980 0.2275
86.7600 28.9047 0.2338
86.7800 28.9114 0.2334
86.8000 28.9181 0.2270
86.8200 28.9247 0.2296
86.8400 28.9313 0.2293
86.8600 28.9379 0.2291
86.8800 28.9445 0.2252
86.9000 28.9512 0.2346
86.9200 28.9579 0.2210
86.9400 28.9646 0.2268
86.9600 28.9713 0.2328
86.9800 28.9780 0.2213
87.0000 28.9847 0.2162
87.0200 28.9913 0.2296
87.0400 28.9979 0.2252
87.0600 29.0045 0.2199
87.0800 29.0113 0.2288
87.1000 29.0180 0.2197
87.1200 29.0246 0.2217
87.1400 29.0313 0.2296
87.1600 29.0380 0.2187
87.1800 29.0447 0.2200
87.2000 29.0513 0.2240
87.2200 29.0580 0.2179
87.2400 29.0646 0.2211
87.2600 29.0713 0.2215
87.2800 29.0780 0.2158
87.3000 29.0847 0.2184
87.3200 29.0914 0.2255
87.3400 29.0981 0.2145
87.3600 29.1047 0.2171
87.3800 29.1113 0.2214
87.4000 29.1179 0.2132
87.4200 29.1245 0.2115
87.4400 29.1313 0.2261
87.4600 29.1380 0.2135
87.4800 29.1447 0.2064
87.5000 29.1514 0.2197
87.5200 29.1580 0.2140
87.5400 29.1647 0.2049
87.5600 29.1713 0.2248
87.5800 29.1779 0.2094
87.6000 29.1845 0.2048
87.6200 29.1912 0.2208
87.6400 29.1980 0.2033
87.6600 29.2046 0.2043
87.6800 29.2113 0.2199
87.7000 29.2180 0.2026
87.7200 29.2247 0.2048
87.7400 29.2313 0.2170
87.7600 29.2379 0.2019
87.7800 29.2446 0.2036
87.8000 29.2512 0.2134
87.8200 29.2579 0.2012
87.8400 29.2646 0.2042
87.8600 29.2713 0.2162
87.8800 29.2780 0.1926
87.9000 29.2847 0.2063
87.9200 29.2913 0.2125
87.9400 29.2979 0.1956
87.9600 29.3046 0.2046
87.9800 29.3113 0.2113
88.0000 29.3180 0.1931
88.0200 29.3247 0.2041
88.0400 29.3314 0.2094
88.0600 29.3380 0.1963
88.0800 29.3447 0.1973
88.1000 29.3513 0.2046
88.1200 29.3579 0.1949
88.1400 29.3646 0.2070
88.1600 29.3713 0.2024
88.1800 29.3780 0.1943
88.2000 29.3847 0.1960
88.2200 29.3913 0.1996
88.2400 29.3980 0.1948
88.2600 29.4047 0.1932
88.2800 29.4114 0.1971
88.3000 29.4179 0.1954
88.3200 29.4245 0.1953
88.3400 29.4312 0.1957
88.3600 29.4379 0.1966
88.3800 29.4446 0.1930
88.4000 29.4513 0.1975
88.4200 29.4580 0.1960
88.4400 29.4647 0.1867
88.4600 29.4713 0.1956
88.4800 29.4779 0.1989
88.5000 29.4845 0.1837
88.5200 29.4912 0.2008
88.5400 29.4979 0.1913
88.5600 29.5046 0.1877
88.5800 29.5113 0.1930
88.6000 29.5180 0.1935
88.6200 29.5247 0.1889
88.6400 29.5313 0.1933
88.6600 29.5379 0.1865
88.6800 29.5446 0.1908
88.7000 29.5513 0.1940
88.7200 29.5580 0.1838
88.7400 29.5647 0.1915
88.7600 29.5713 0.1927
88.7800 29.5780 0.1832
88.8000 29.5847 0.1943
88.8200 29.5914 0.1881
88.8400 29.5980 0.1792
88.8600 29.6046 0.1968
88.8800 29.6113 0.1829
88.9000 29.6180 0.1802
88.9200 29.6247 0.1933
88.9400 29.6314 0.1871
88.9600 29.6380 0.1782
88.9800 29.6447 0.1910
89.0000 29.6513 0.1821
89.0200 29.6579 0.1865
89.0400 29.6645 0.1907
89.0600 29.6712 0.1763
89.0800 29.6780 0.1833
89.1000 29.6847 0.1894
89.1200 29.6913 0.1742
89.1400 29.6980 0.1781
89.1600 29.7047 0.1861
89.1800 29.7113 0.1798
89.2000 29.7179 0.1760
89.2200 29.7246 0.1850
89.2400 29.7312 0.1784
89.2600 29.7379 0.1771
89.2800 29.7446 0.1782
89.3000 29.7513 0.1736
89.3200 29.7580 0.1847
89.3400 29.7647 0.1776
89.3600 29.7713 0.1710
89.3800 29.7780 0.1760
89.4000 29.7846 0.1829
89.4200 29.7912 0.1764
89.4400 29.7980 0.1779
89.4600 29.8047 0.1742
89.4800 29.8114 0.1706
89.5000 29.8180 0.1754
89.5200 29.8247 0.1788
89.5400 29.8313 0.1674
89.5600 29.8379 0.1770
89.5800 29.8446 0.1809
89.6000 29.8512 0.1695
89.6200 29.8580 0.1736
89.6400 29.8647 0.1776
89.6600 29.8714 0.1688
89.6800 29.8780 0.1765
89.7000 29.8847 0.1699
89.7200 29.8914 0.1663
89.7400 29.8980 0.1767
89.7600 29.9046 0.1718
89.7800 29.9112 0.1605
89.8000 29.9179 0.1719
89.8200 29.9246 0.1714
89.8400 29.9313 0.1593
89.8600 29.9380 0.1737
89.8800 29.9447 0.1666
89.9000 29.9513 0.1630
89.9200 29.9579 0.1737
89.9400 29.9646 0.1633
89.9600 29.9712 0.1608
89.9800 29.9779 0.1768
90.0000 29.9846 0.1616
90.0200 29.9913 0.1548
90.0400 29.9980 0.1728
90.0600 30.0047 0.1667
90.0800 30.0113 0.1517
90.1000 30.0179 0.1710
90.1200 30.0246 0.1642
90.1400 30.0313 0.1559
90.1600 30.0380 0.1657
90.1800 30.0447 0.1643
90.2000 30.0514 0.1514
90.2200 30.0580 0.1651
90.2400 30.0647 0.1656
90.2600 30.0714 0.1516
90.2800 30.0780 0.1673
90.3000 30.0846 0.1639
90.3200 30.0912 0.1516
90.3400 30.0980 0.1634
90.3600 30.1047 0.1577
90.3800 30.1114 0.1483
90.4000 30.1180 0.1623
90.4200 30.1247 0.1578
90.4400 30.1314 0.1514
90.4600 30.1380 0.1567
90.4800 30.1446 0.1605
90.5000 30.1512 0.1519
90.5200 30.1579 0.1595
90.5400 30.1646 0.1541
90.5600 30.1713 0.1516
90.5800 30.1780 0.1548
90.6000 30.1847 0.1547
90.6200 30.1913 0.1484
90.6400 30.1979 0.1561
90.6600 30.2045 0.1506
90.6800 30.2112 0.1497
90.7000 30.2179 0.1511
90.7200 30.2246 0.1538
90.7400 30.2313 0.1461
90.7600 30.2380 0.1493
90.7800 30.2446 0.1531
90.8000 30.2513 0.1437
90.8200 30.2579 0.1491
90.8400 30.2646 0.1533
90.8600 30.2712 0.1460
90.8800 30.2780 0.1421
90.9000 30.2847 0.1476
90.9200 30.2913 0.1444
90.9400 30.2980 0.1398
90.9600 30.3047 0.1496
90.9800 30.3114 0.1442
91.0000 30.3180 0.1367
91.0200 30.3246 0.1507
91.0400 30.3312 0.1426
91.0600 30.3380 0.1379
91.0800 30.3447 0.1469
91.1000 30.3514 0.1433
91.1200 30.3580 0.1340
91.1400 30.3647 0.1446
91.1600 30.3713 0.1371
91.1800 30.3779 0.1368
91.2000 30.3846 0.1396
91.2200 30.3912 0.1426
91.2400 30.3979 0.1319
91.2600 30.4046 0.1411
91.2800 30.4113 0.1372
91.3000 30.4179 0.1297
91.3200 30.4246 0.1425
91.3400 30.4313 0.1288
91.3600 30.4379 0.1299
91.3800 30.4446 0.1418
91.4000 30.4512 0.1309
91.4200 30.4579 0.1295
91.4400 30.4646 0.1429
91.4600 30.4713 0.1279
91.4800 30.4780 0.1331
91.5000 30.4847 0.1358
91.5200 30.4914 0.1291
91.5400 30.4980 0.1291
91.5600 30.5046 0.1349
91.5800 30.5112 0.1231
91.6000 30.5179 0.1324
91.6200 30.5247 0.1329
91.6400 30.5313 0.1243
91.6600 30.5380 0.1293
91.6800 30.5447 0.1332
91.7000 30.5514 0.1207
91.7200 30.5580 0.1274
91.7400 30.5646 0.1257
91.7600 30.5712 0.1253
91.7800 30.5779 0.1263
91.8000 30.5846 0.1313
91.8200 30.5913 0.1231
91.8400 30.5980 0.1218
91.8600 30.6047 0.1307
91.8800 30.6114 0.1191
91.9000 30.6180 0.1198
91.9200 30.6246 0.1270
91.9400 30.6313 0.1220
91.9600 30.6379 0.1178
91.9800 30.6446 0.1278
92.0000 30.6513 0.1191
92.0200 30.6580 0.1189
92.0400 30.6647 0.1274
92.0600 30.6714 0.1217
92.0800 30.6780 0.1152
92.1000 30.6846 0.1272
92.1200 30.6912 0.1188
92.1400 30.6979 0.1167
92.1600 30.7046 0.1218
92.1800 30.7113 0.1207
92.2000 30.7180 0.1189
92.2200 30.7247 0.1228
92.2400 30.7313 0.1115
92.2600 30.7380 0.1174
92.2800 30.7446 0.1240
92.3000 30.7512 0.1146
92.3200 30.7579 0.1139
92.3400 30.7646 0.1230
92.3600 30.7713 0.1149
92.3800 30.7780 0.1106
92.4000 30.7847 0.1214
92.4200 30.7914 0.1117
92.4400 30.7980 0.1089
92.4600 30.8046 0.1236
92.4800 30.8113 0.1138
92.5000 30.8179 0.1140
92.5200 30.8246 0.1193
92.5400 30.8313 0.1059
92.5600 30.8380 0.1124
92.5800 30.8447 0.1186
92.6000 30.8514 0.1126
92.6200 30.8580 0.1015
92.6400 30.8646 0.1184
92.6600 30.8712 0.1125
92.6800 30.8779 0.1068
92.7000 30.8846 0.1150
92.7200 30.8914 0.1077
92.7400 30.8980 0.1031
92.7600 30.9047 0.1151
92.7800 30.9113 0.1054
92.8000 30.9180 0.1094
92.8200 30.9246 0.1129
92.8400 30.9312 0.1004
92.8600 30.9379 0.1063
92.8800 30.9446 0.1086
92.9000 30.9513 0.1030
92.9200 30.9579 0.1067
92.9400 30.9646 0.1077
92.9600 30.9713 0.0956
92.9800 30.9780 0.1015
93.0000 30.9846 0.1038
93.0200 30.9913 0.1033
93.0400 30.9979 0.1002
93.0600 31.0046 0.0972
93.0800 31.0113 0.0983
93.1000 31.0180 0.1053
93.1200 31.0247 0.0994
93.1400 31.0314 0.0972
93.1600 31.0380 0.0961
93.1800 31.0446 0.1004
93.2000 31.0512 0.0978
93.2200 31.0579 0.0949
93.2400 31.0647 0.0976
93.2600 31.0713 0.0973
93.2800 31.0780 0.0891
93.3000 31.0847 0.1016
93.3200 31.0913 0.0909
93.3400 31.0980 0.0894
93.3600 31.1046 0.1001
93.3800 31.1112 0.0882
93.4000 31.1179 0.0896
93.4200 31.1246 0.0975
93.4400 31.1313 0.0824
93.4600 31.1380 0.0896
93.4800 31.1447 0.0952
93.5000 31.1514 0.0829
93.5200 31.1580 0.0905
93.5400 31.1646 0.0839
93.5600 31.1712 0.0887
93.5800 31.1779 0.0950
93.6000 31.1846 0.0788
93.6200 31.1913 0.0822
93.6400 31.1980 0.0947
93.6600 31.2047 0.0756
93.6800 31.2114 0.0875
93.7000 31.2180 0.0874
93.7200 31.2246 0.0760
93.7400 31.2312 0.0913
93.7600 31.2379 0.0852
93.7800 31.2446 0.0713
93.8000 31.2513 0.0949
93.8200 31.2580 0.0802
93.8400 31.2647 0.0703
93.8600 31.2714 0.0957
93.8800 31.2780 0.0801
93.9000 31.2846 0.0706
93.9200 31.2913 0.0911
93.9400 31.2979 0.0749
93.9600 31.3046 0.0737
93.9800 31.3113 0.0891
94.0000 31.3180 0.0681
94.0200 31.3247 0.0783
94.0400 31.3314 0.0878
94.0600 31.3380 0.0705
94.0800 31.3446 0.0762
94.1000 31.3512 0.0852
94.1200 31.3579 0.0705
94.1400 31.3646 0.0794
94.1600 31.3713 0.0806
94.1800 31.3780 0.0764
94.2000 31.3847 0.0718
94.2200 31.3913 0.0834
94.2400 31.3980 0.0655
94.2600 31.4046 0.0736
94.2800 31.4112 0.0826
94.3000 31.4179 0.0716
94.3200 31.4246 0.0733
94.3400 31.4313 0.0821
94.3600 31.4379 0.0683
94.3800 31.4446 0.0680
94.4000 31.4513 0.0865
94.4200 31.4580 0.0674
94.4400 31.4646 0.0671
94.4600 31.4712 0.0808
94.4800 31.4779 0.0676
94.5000 31.4846 0.0661
94.5200 31.4913 0.0766
94.5400 31.4980 0.0664
94.5600 31.5047 0.0690
94.5800 31.5114 0.0770
94.6000 31.5180 0.0635
94.6200 31.5246 0.0664
94.6400 31.5312 0.0775
94.6600 31.5379 0.0660
94.6800 31.5446 0.0673
94.7000 31.5513 0.0671
94.7200 31.5580 0.0620
94.7400 31.5647 0.0653
94.7600 31.5714 0.0734
94.7800 31.5780 0.0654
94.8000 31.5846 0.0650
94.8200 31.5912 0.0686
94.8400 31.5979 0.0620
94.8600 31.6046 0.0635
94.8800 31.6113 0.0726
94.9000 31.6180 0.0576
94.9200 31.6246 0.0617
94.9400 31.6313 0.0703
94.9600 31.6380 0.0581
94.9800 31.6446 0.0593
95.0000 31.6512 0.0706
95.0200 31.6579 0.0554
95.0400 31.6646 0.0550
95.0600 31.6713 0.0690
95.0800 31.6780 0.0533
95.1000 31.6846 0.0616
95.1200 31.6913 0.0639
95.1400 31.6980 0.0529
95.1600 31.7046 0.0557
95.1800 31.7112 0.0663
95.2000 31.7179 0.0558
95.2200 31.7246 0.0571
95.2400 31.7313 0.0622
95.2600 31.7380 0.0571
95.2800 31.7447 0.0565
95.3000 31.7514 0.0600
95.3200 31.7580 0.0523
95.3400 31.7646 0.0559
95.3600 31.7712 0.0517
95.3800 31.7779 0.0558
95.4000 31.7846 0.0514
95.4200 31.7914 0.0573
95.4400 31.7980 0.0551
95.4600 31.8047 0.0499
95.4800 31.8114 0.0563
95.5000 31.8180 0.0545
95.5200 31.8246 0.0491
95.5400 31.8312 0.0569
95.5600 31.8379 0.0561
95.5800 31.8446 0.0496
95.6000 31.8513 0.0562
95.6200 31.8580 0.0488
95.6400 31.8646 0.0499
95.6600 31.8713 0.0552
95.6800 31.8780 0.0500
95.7000 31.8846 0.0435
95.7200 31.8912 0.0567
95.7400 31.8979 0.0488
95.7600 31.9046 0.0417
95.7800 31.9113 0.0526
95.8000 31.9180 0.0502
95.8200 31.9247 0.0400
95.8400 31.9313 0.0518
95.8600 31.9380 0.0460
95.8800 31.9446 0.0465
95.9000 31.9512 0.0513
95.9200 31.9579 0.0468
95.9400 31.9646 0.0422
95.9600 31.9713 0.0499
95.9800 31.9780 0.0485
96.0000 31.9847 0.0363
96.0200 31.9914 0.0476
96.0400 31.9980 0.0503
96.0600 32.0047 0.0378
96.0800 32.0113 0.0473
96.1000 32.0179 0.0494
96.1200 32.0246 0.0377
96.1400 32.0313 0.0437
96.1600 32.0380 0.0468
96.1800 32.0447 0.0355
96.2000 32.0514 0.0382
96.2200 32.0581 0.0477
96.2400 32.0647 0.0298
96.2600 32.0713 0.0457
96.2800 32.0779 0.0493
96.3000 32.0846 0.0328
96.3200 32.0913 0.0403
96.3400 32.0980 0.0466
96.3600 32.1047 0.0298
96.3800 32.1113 0.0445
96.4000 32.1180 0.0481
96.4200 32.1246 0.0264
96.4400 32.1312 0.0415
96.4600 32.1379 0.0474
96.4800 32.1446 0.0307
96.5000 32.1513 0.0377
96.5200 32.1580 0.0443
96.5400 32.1646 0.0313
96.5600 32.1713 0.0342
96.5800 32.1780 0.0431
96.6000 32.1846 0.0288
96.6200 32.1912 0.0360
96.6400 32.1979 0.0453
96.6600 32.2046 0.0225
96.6800 32.2113 0.0385
96.7000 32.2180 0.0390
96.7200 32.2247 0.0233
96.7400 32.2314 0.0403
96.7600 32.2381 0.0390
96.7800 32.2447 0.0208
96.8000 32.2513 0.0384
96.8200 32.2579 0.0359
96.8400 32.2646 0.0256
96.8600 32.2713 0.0368
96.8800 32.2780 0.0321
96.9000 32.2847 0.0218
96.9200 32.2914 0.0392
96.9400 32.2980 0.0276
96.9600 32.3047 0.0251
96.9800 32.3112 0.0347
97.0000 32.3179 0.0306
97.0200 32.3246 0.0262
97.0400 32.3313 0.0296
97.0600 32.3380 0.0246
97.0800 32.3446 0.0283
97.1000 32.3513 0.0264
97.1200 32.3580 0.0214
97.1400 32.3646 0.0292
97.1600 32.3712 0.0194
97.1800 32.3778 0.0256
97.2000 32.3845 0.0259
97.2200 32.3913 0.0168
97.2400 32.3980 0.0276
97.2600 32.4047 0.0270
97.2800 32.4113 0.0135
97.3000 32.4180 0.0267
97.3200 32.4246 0.0224
97.3400 32.4312 0.0126
97.3600 32.4379 0.0293
97.3800 32.4446 0.0215
97.4000 32.4513 0.0118
97.4200 32.4580 0.0309
97.4400 32.4647 0.0157
97.4600 32.4714 0.0149
97.4800 32.4781 0.0312
97.5000 32.4847 0.0113
97.5200 32.4913 0.0098
97.5400 32.4980 0.0296
97.5600 32.5046 0.0122
97.5800 32.5113 0.0127
97.6000 32.5180 0.0265
97.6200 32.5247 0.0124
97.6400 32.5314 0.0166
97.6600 32.5380 0.0253
97.6800 32.5447 0.0107
97.7000 32.5513 0.0117
97.7200 32.5579 0.0294
97.7400 32.5645 0.0049
97.7600 32.5713 0.0110
97.7800 32.5780 0.0239
97.8000 32.5846 0.0057
97.8200 32.5913 0.0126
97.8400 32.5980 0.0221
97.8600 32.6047 -0.0004
97.8800 32.6113 0.0148
97.9000 32.6179 0.0232
97.9200 32.6245 0.0032
97.9400 32.6313 0.0129
97.9600 32.6380 0.0207
97.9800 32.6446 -0.0028
98.0000 32.6513 0.0153
98.0200 32.6580 0.0168
98.0400 32.6647 -0.0014
98.0600 32.6713 0.0145
98.0800 32.6779 0.0129
98.1000 32.6846 -0.0001
98.1200 32.6913 0.0120
98.1400 32.6980 0.0080
98.1600 32.7047 -0.0031
98.1800 32.7114 0.0136
98.2000 32.7181 0.0036
98.2200 32.7247 0.0005
98.2400 32.7313 0.0127
98.2600 32.7379 0.0055
98.2800 32.7446 0.0022
98.3000 32.7513 0.0068
98.3200 32.7580 0.0006
98.3400 32.7647 0.0086
98.3600 32.7714 0.0031
98.3800 32.7780 -0.0023
98.4000 32.7847 0.0033
98.4200 32.7913 0.0053
98.4400 32.7979 -0.0051
98.4600 32.8046 0.0060
98.4800 32.8113 0.0023
98.5000 32.8180 -0.0019
98.5200 32.8247 0.0055
98.5400 32.8313 0.0037
98.5600 32.8380 -0.0044
98.5800 32.8447 0.0003
98.6000 32.8512 0.0007
98.6200 32.8578 -0.0057
98.6400 32.8645 0.0075
98.6600 32.8712 -0.0009
98.6800 32.8780 -0.0128
98.7000 32.8847 0.0060
98.7200 32.8913 -0.0014
98.7400 32.8980 -0.0122
98.7600 32.9047 0.0062
98.7800 32.9113 -0.0076
98.8000 32.9179 -0.0105
98.8200 32.9246 0.0041
98.8400 32.9313 -0.0102
98.8600 32.9380 -0.0132
98.8800 32.9447 0.0062
98.9000 32.9514 -0.0163
98.9200 32.9581 -0.0118
98.9400 32.9647 0.0076
98.9600 32.9713 -0.0174
98.9800 32.9779 -0.0082
99.0000 32.9846 0.0027
99.0200 32.9913 -0.0206
99.0400 32.9980 -0.0056
99.0600 33.0047 0.0038
99.0800 33.0113 -0.0171
99.1000 33.0180 -0.0089
99.1200 33.0247 0.0025
99.1400 33.0313 -0.0196
99.1600 33.0379 -0.0112
99.1800 33.0445 -0.0023
99.2000 33.0512 -0.0209
99.2200 33.0579 -0.0058
99.2400 33.0646 -0.0094
99.2600 33.0713 -0.0212
99.2800 33.0780 -0.0076
99.3000 33.0847 -0.0143
99.3200 33.0913 -0.0245
99.3400 33.0979 -0.0061
99.3600 33.1045 -0.0130
99.3800 33.1113 -0.0213
99.4000 33.1180 -0.0153
99.4200 33.1246 -0.0107
99.4400 33.1313 -0.0186
99.4600 33.1380 -0.0128
99.4800 33.1446 -0.0176
99.5000 33.1513 -0.0185
99.5200 33.1579 -0.0148
99.5400 33.1646 -0.0180
99.5600 33.1713 -0.0177
99.5800 33.1780 -0.0171
99.6000 33.1847 -0.0225
99.6200 33.1914 -0.0199
99.6400 33.1980 -0.0207
99.6600 33.2047 -0.0196
99.6800 33.2113 -0.0159
99.7000 33.2179 -0.0268
99.7200 33.2246 -0.0226
99.7400 33.2313 -0.0165
99.7600 33.2380 -0.0288
99.7800 33.2447 -0.0213
99.8000 33.2514 -0.0192
99.8200 33.2581 -0.0348
99.8400 33.2647 -0.0190
99.8600 33.2713 -0.0222
99.8800 33.2779 -0.0287
99.9000 33.2846 -0.0240
99.9200 33.2913 -0.0187
99.9400 33.2980 -0.0367
99.9600 33.3046 -0.0248
99.9800 33.3113 -0.0198
100.0000 33.3180 -0.0344
100.0200 33.3247 -0.0247
100.0400 33.3313 -0.0226
100.0600 33.3379 -0.0388
100.0800 33.3446 -0.0248
100.1000 33.3513 -0.0232
100.1200 33.3580 -0.0438
100.1400 33.3646 -0.0215
100.1600 33.3713 -0.0257
100.1800 33.3780 -0.0423
100.2000 33.3847 -0.0228
100.2200 33.3913 -0.0273
100.2400 33.3979 -0.0445
100.2600 33.4046 -0.0200
100.2800 33.4113 -0.0322
100.3000 33.4180 -0.0411
100.3200 33.4247 -0.0228
100.3400 33.4314 -0.0354
100.3600 33.4381 -0.0442
100.3800 33.4447 -0.0254
100.4000 33.4513 -0.0392
100.4200 33.4579 -0.0386
100.4400 33.4645 -0.0281
100.4600 33.4713 -0.0396
100.4800 33.4780 -0.0392
100.5000 33.4847 -0.0305
100.5200 33.4914 -0.0426
100.5400 33.4980 -0.0324
100.5600 33.5047 -0.0383
100.5800 33.5113 -0.0430
100.6000 33.5179 -0.0373
100.6200 33.5246 -0.0400
100.6400 33.5313 -0.0395
100.6600 33.5380 -0.0384
100.6800 33.5447 -0.0393
100.7000 33.5513 -0.0365
100.7200 33.5580 -0.0393
100.7400 33.5647 -0.0426
100.7600 33.5713 -0.0411
100.7800 33.5779 -0.0432
100.8000 33.5845 -0.0441
100.8200 33.5912 -0.0389
100.8400 33.5979 -0.0440
100.8600 33.6046 -0.0444
100.8800 33.6113 -0.0362
100.9000 33.6180 -0.0510
100.9200 33.6246 -0.0440
100.9400 33.6313 -0.0420
100.9600 33.6379 -0.0433
100.9800 33.6445 -0.0453
101.0000 33.6512 -0.0473
101.0200 33.6580 -0.0490
101.0400 33.6647 -0.0464
101.0600 33.6714 -0.0451
101.0800 33.6780 -0.0473
101.1000 33.6847 -0.0488
101.1200 33.6914 -0.0495
101.1400 33.6980 -0.0500
101.1600 33.7046 -0.0488
101.1800 33.7113 -0.0494
101.2000 33.7180 -0.0489
101.2200 33.7247 -0.0579
101.2400 33.7313 -0.0510
101.2600 33.7380 -0.0433
101.2800 33.7447 -0.0571
101.3000 33.7513 -0.0552
101.3200 33.7579 -0.0503
101.3400 33.7645 -0.0575
101.3600 33.7712 -0.0483
101.3800 33.7780 -0.0456
101.4000 33.7846 -0.0699
101.4200 33.7913 -0.0493
101.4400 33.7980 -0.0478
101.4600 33.8047 -0.0704
101.4800 33.8113 -0.0459
101.5000 33.8179 -0.0483
101.5200 33.8245 -0.0757
101.5400 33.8312 -0.0503
101.5600 33.8380 -0.0546
101.5800 33.8447 -0.0720
101.6000 33.8513 -0.0420
101.6200 33.8580 -0.0591
101.6400 33.8647 -0.0733
101.6600 33.8713 -0.0429
101.6800 33.8779 -0.0622
101.7000 33.8846 -0.0665
101.7200 33.8913 -0.0443
101.7400 33.8980 -0.0659
101.7600 33.9047 -0.0646
101.7800 33.9113 -0.0461
101.8000 33.9180 -0.0730
101.8200 33.9247 -0.0619
101.8400 33.9313 -0.0509
101.8600 33.9379 -0.0782
101.8800 33.9445 -0.0561
101.9000 33.9512 -0.0559
101.9200 33.9580 -0.0719
101.9400 33.9647 -0.0648
101.9600 33.9714 -0.0590
101.9800 33.9780 -0.0750
102.0000 33.9847 -0.0554
102.0200 33.9913 -0.0667
102.0400 33.9979 -0.0724
102.0600 34.0045 -0.0584
102.0800 34.0112 -0.0711
102.1000 34.0180 -0.0755
102.1200 34.0247 -0.0558
102.1400 34.0313 -0.0700
102.1600 34.0380 -0.0725
102.1800 34.0447 -0.0638
102.2000 34.0513 -0.0684
102.2200 34.0579 -0.0727
102.2400 34.0646 -0.0659
102.2600 34.0712 -0.0725
102.2800 34.0779 -0.0737
102.3000 34.0846 -0.0690
102.3200 34.0913 -0.0739
102.3400 34.0980 -0.0706
102.3600 34.1047 -0.0708
102.3800 34.1113 -0.0785
102.4000 34.1179 -0.0697
102.4200 34.1246 -0.0731
102.4400 34.1313 -0.0788
102.4600 34.1380 -0.0694
102.4800 34.1447 -0.0810
102.5000 34.1514 -0.0778
102.5200 34.1581 -0.0725
102.5400 34.1647 -0.0829
102.5600 34.1713 -0.0810
102.5800 34.1779 -0.0765
102.6000 34.1846 -0.0796
102.6200 34.1912 -0.0743
102.6400 34.1980 -0.0784
102.6600 34.2047 -0.0847
102.6800 34.2114 -0.0758
102.7000 34.2180 -0.0809
102.7200 34.2247 -0.0882
102.7400 34.2314 -0.0723
102.7600 34.2380 -0.0798
102.7800 34.2446 -0.0826
102.8000 34.2512 -0.0764
102.8200 34.2579 -0.0786
102.8400 34.2646 -0.0815
102.8600 34.2713 -0.0841
102.8800 34.2780 -0.0818
102.9000 34.2847 -0.0876
102.9200 34.2913 -0.0877
102.9400 34.2979 -0.0873
102.9600 34.3045 -0.0809
102.9800 34.3112 -0.0883
103.0000 34.3179 -0.0810
103.0200 34.3246 -0.0882
103.0400 34.3313 -0.0912
103.0600 34.3380 -0.0808
103.0800 34.3447 -0.0869
103.1000 34.3513 -0.0916
103.1200 34.3579 -0.0821
103.1400 34.3646 -0.0911
103.1600 34.3713 -0.0870
103.1800 34.3780 -0.0896
103.2000 34.3847 -0.0898
103.2200 34.3913 -0.0899
103.2400 34.3980 -0.0872
103.2600 34.4047 -0.0920
103.2800 34.4114 -0.0948
103.3000 34.4180 -0.0889
103.3200 34.4246 -0.0898
103.3400 34.4313 -0.0921
103.3600 34.4380 -0.0942
103.3800 34.4447 -0.0948
103.4000 34.4514 -0.0975
103.4200 34.4580 -0.0971
103.4400 34.4647 -0.0940
103.4600 34.4713 -0.0950
103.4800 34.4779 -0.0996
103.5000 34.4845 -0.0928
103.5200 34.4912 -0.0977
103.5400 34.4979 -0.0973
103.5600 34.5047 -0.0957
103.5800 34.5113 -0.0961
103.6000 34.5180 -0.0948
103.6200 34.5247 -0.0980
103.6400 34.5313 -0.0976
103.6600 34.5379 -0.0933
103.6800 34.5446 -0.1021
103.7000 34.5512 -0.1004
103.7200 34.5579 -0.0960
103.7400 34.5646 -0.1014
103.7600 34.5713 -0.1024
103.7800 34.5780 -0.0977
103.8000 34.5846 -0.1031
103.8200 34.5913 -0.1052
103.8400 34.5980 -0.1017
103.8600 34.6046 -0.0973
103.8800 34.6112 -0.1030
103.9000 34.6179 -0.1029
103.9200 34.6246 -0.1025
103.9400 34.6313 -0.1115
103.9600 34.6380 -0.1011
103.9800 34.6447 -0.1020
104.0000 34.6514 -0.1090
104.0200 34.6580 -0.1014
104.0400 34.6646 -0.1005
104.0600 34.6712 -0.1137
104.0800 34.6780 -0.0993
104.1000 34.6847 -0.1052
104.1200 34.6914 -0.1091
104.1400 34.6980 -0.1024
104.1600 34.7047 -0.1098
104.1800 34.7114 -0.1128
104.2000 34.7180 -0.0994
104.2200 34.7246 -0.1129
104.2400 34.7312 -0.1098
104.2600 34.7379 -0.1072
104.2800 34.7446 -0.1126
104.3000 34.7513 -0.1093
104.3200 34.7580 -0.1034
104.3400 34.7647 -0.1134
104.3600 34.7713 -0.1128
104.3800 34.7780 -0.1106
104.4000 34.7846 -0.1053
104.4200 34.7912 -0.1125
104.4400 34.7979 -0.1136
104.4600 34.8046 -0.1082
104.4800 34.8113 -0.1149
104.5000 34.8180 -0.1089
104.5200 34.8247 -0.1151
104.5400 34.8313 -0.1107
104.5600 34.8379 -0.1182
104.5800 34.8446 -0.1182
104.6000 34.8512 -0.1111
104.6200 34.8580 -0.1106
104.6400 34.8647 -0.1243
104.6600 34.8714 -0.1143
104.6800 34.8781 -0.1113
104.7000 34.8847 -0.1217
104.7200 34.8913 -0.1151
104.7400 34.8980 -0.1127
104.7600 34.9046 -0.1270
104.7800 34.9112 -0.1112
104.8000 34.9179 -0.1185
104.8200 34.9246 -0.1273
104.8400 34.9313 -0.1088
104.8600 34.9380 -0.1216
104.8800 34.9447 -0.1270
104.9000 34.9514 -0.1145
104.9200 34.9580 -0.1258
104.9400 34.9646 -0.1250
104.9600 34.9712 -0.1118
104.9800 34.9779 -0.1265
105.0000 34.9846 -0.1279
105.0200 34.9913 -0.1179
105.0400 34.9980 -0.1258
105.0600 35.0047 -0.1267
105.0800 35.0114 -0.1213
105.1000 35.0179 -0.1277
105.1200 35.0245 -0.1237
105.1400 35.0312 -0.1239
105.1600 35.0379 -0.1251
105.1800 35.0446 -0.1280
105.2000 35.0513 -0.1255
105.2200 35.0580 -0.1300
105.2400 35.0646 -0.1254
105.2600 35.0713 -0.1281
105.2800 35.0780 -0.1305
105.3000 35.0846 -0.1300
105.3200 35.0912 -0.1267
105.3400 35.0979 -0.1301
105.3600 35.1046 -0.1288
105.3800 35.1113 -0.1303
105.4000 35.1180 -0.1323
105.4200 35.1247 -0.1337
105.4400 35.1314 -0.1334
105.4600 35.1380 -0.1310
105.4800 35.1446 -0.1357
105.5000 35.1512 -0.1317
105.5200 35.1579 -0.1295
105.5400 35.1647 -0.1311
105.5600 35.1714 -0.1393
105.5800 35.1780 -0.1320
105.6000 35.1847 -0.1354
105.6200 35.1914 -0.1412
105.6400 35.1980 -0.1364
105.6600 35.2045 -0.1316
105.6800 35.2112 -0.1415
105.7000 35.2179 -0.1366
105.7200 35.2246 -0.1419
105.7400 35.2313 -0.1432
105.7600 35.2380 -0.1359
105.7800 35.2446 -0.1374
105.8000 35.2513 -0.1491
105.8200 35.2579 -0.1386
105.8400 35.2646 -0.1391
105.8600 35.2712 -0.1457
105.8800 35.2779 -0.1444
105.9000 35.2846 -0.1406
105.9200 35.2913 -0.1492
105.9400 35.2980 -0.1457
105.9600 35.3047 -0.1379
105.9800 35.3114 -0.1435
106.0000 35.3180 -0.1531
106.0200 35.3246 -0.1439
106.0400 35.3313 -0.1447
106.0600 35.3379 -0.1498
106.0800 35.3447 -0.1445
106.1000 35.3514 -0.1521
106.1200 35.3580 -0.1476
106.1400 35.3647 -0.1437
106.1600 35.3714 -0.1560
106.1800 35.3780 -0.1513
106.2000 35.3846 -0.1340
106.2200 35.3912 -0.1588
106.2400 35.3979 -0.1575
106.2600 35.4046 -0.1427
106.2800 35.4113 -0.1581
106.3000 35.4180 -0.1550
106.3200 35.4247 -0.1474
106.3400 35.4314 -0.1621
106.3600 35.4380 -0.1543
106.3800 35.4446 -0.1522
106.4000 35.4513 -0.1575
106.4200 35.4579 -0.1536
106.4400 35.4646 -0.1483
106.4600 35.4713 -0.1592
106.4800 35.4780 -0.1583
106.5000 35.4847 -0.1512
106.5200 35.4914 -0.1589
106.5400 35.4980 -0.1573
106.5600 35.5046 -0.1556
106.5800 35.5112 -0.1550
106.6000 35.5179 -0.1595
106.6200 35.5246 -0.1581
106.6400 35.5313 -0.1599
106.6600 35.5380 -0.1603
106.6800 35.5447 -0.1605
106.7000 35.5513 -0.1598
106.7200 35.5580 -0.1657
106.7400 35.5646 -0.1575
106.7600 35.5712 -0.1594
106.7800 35.5779 -0.1633
106.8000 35.5846 -0.1606
106.8200 35.5913 -0.1603
106.8400 35.5980 -0.1635
106.8600 35.6047 -0.1581
106.8800 35.6114 -0.1655
106.9000 35.6180 -0.1648
106.9200 35.6246 -0.1530
106.9400 35.6313 -0.1633
106.9600 35.6379 -0.1695
106.9800 35.6446 -0.1579
107.0000 35.6513 -0.1671
107.0200 35.6580 -0.1643
107.0400 35.6647 -0.1542
107.0600 35.6714 -0.1720
107.0800 35.6780 -0.1731
107.1000 35.6846 -0.1533
107.1200 35.6912 -0.1705
107.1400 35.6979 -0.1655
107.1600 35.7046 -0.1556
107.1800 35.7113 -0.1796
107.2000 35.7180 -0.1686
107.2200 35.7247 -0.1566
107.2400 35.7313 -0.1747
107.2600 35.7380 -0.1729
107.2800 35.7446 -0.1608
107.3000 35.7512 -0.1739
107.3200 35.7579 -0.1653
107.3400 35.7646 -0.1666
107.3600 35.7713 -0.1722
107.3800 35.7779 -0.1703
107.4000 35.7846 -0.1670
107.4200 35.7913 -0.1727
107.4400 35.7980 -0.1750
107.4600 35.8046 -0.1667
107.4800 35.8112 -0.1763
107.5000 35.8179 -0.1743
107.5200 35.8246 -0.1687
107.5400 35.8313 -0.1763
107.5600 35.8380 -0.1731
107.5800 35.8447 -0.1711
107.6000 35.8514 -0.1803
107.6200 35.8580 -0.1770
107.6400 35.8646 -0.1709
107.6600 35.8713 -0.1800
107.6800 35.8779 -0.1755
107.7000 35.8847 -0.1771
107.7200 35.8914 -0.1887
107.7400 35.8980 -0.1751
107.7600 35.9047 -0.1814
107.7800 35.9113 -0.1810
107.8000 35.9180 -0.1788
107.8200 35.9246 -0.1834
107.8400 35.9312 -0.1796
107.8600 35.9379 -0.1799
107.8800 35.9446 -0.1822
107.9000 35.9513 -0.1755
107.9200 35.9580 -0.1852
107.9400 35.9647 -0.1858
107.9600 35.9714 -0.1790
107.9800 35.9780 -0.1826
108.0000 35.9846 -0.1877
108.0200 35.9912 -0.1783
108.0400 35.9978 -0.1823
108.0600 36.0046 -0.1848
108.0800 36.0113 -0.1810
108.1000 36.0180 -0.1917
108.1200 36.0247 -0.1805
108.1400 36.0314 -0.1860
108.1600 36.0380 -0.1966
108.1800 36.0446 -0.1792
108.2000 36.0512 -0.1866
108.2200 36.0579 -0.1913
108.2400 36.0646 -0.1821
108.2600 36.0713 -0.1901
108.2800 36.0780 -0.1930
108.3000 36.0847 -0.1873
108.3200 36.0914 -0.1862
108.3400 36.0980 -0.1999
108.3600 36.1046 -0.1853
108.3800 36.1113 -0.1966
108.4000 36.1179 -0.1953
108.4200 36.1246 -0.1916
108.4400 36.1314 -0.1982
108.4600 36.1380 -0.1928
108.4800 36.1447 -0.1975
108.5000 36.1514 -0.1959
108.5200 36.1580 -0.1962
108.5400 36.1646 -0.1977
108.5600 36.1712 -0.1981
108.5800 36.1779 -0.1957
108.6000 36.1846 -0.1965
108.6200 36.1913 -0.1983
108.6400 36.1980 -0.1988
108.6600 36.2047 -0.1948
108.6800 36.2114 -0.2019
108.7000 36.2180 -0.2018
108.7200 36.2246 -0.2022
108.7400 36.2312 -0.1948
108.7600 36.2379 -0.2023
108.7800 36.2446 -0.2013
108.8000 36.2513 -0.2043
108.8200 36.2580 -0.2020
108.8400 36.2646 -0.1986
108.8600 36.2713 -0.2057
108.8800 36.2780 -0.2069
108.9000 36.2846 -0.2023
108.9200 36.2913 -0.2104
108.9400 36.2979 -0.2060
108.9600 36.3046 -0.2014
108.9800 36.3113 -0.2088
109.0000 36.3180 -0.2066
109.0200 36.3247 -0.2040
109.0400 36.3314 -0.2116
109.0600 36.3381 -0.2108
109.0800 36.3447 -0.2039
109.1000 36.3513 -0.2105
109.1200 36.3579 -0.2098
109.1400 36.3646 -0.2114
109.1600 36.3713 -0.2090
109.1800 36.3780 -0.2063
109.2000 36.3847 -0.2214
109.2200 36.3914 -0.2079
109.2400 36.3980 -0.2044
109.2600 36.4046 -0.2263
109.2800 36.4112 -0.2108
109.3000 36.4179 -0.2020
109.3200 36.4246 -0.2181
109.3400 36.4313 -0.2250
109.3600 36.4380 -0.2061
109.3800 36.4446 -0.2181
109.4000 36.4513 -0.2173
109.4200 36.4580 -0.2178
109.4400 36.4646 -0.2234
109.4600 36.4712 -0.2036
109.4800 36.4779 -0.2243
109.5000 36.4846 -0.2274
109.5200 36.4913 -0.2016
109.5400 36.4980 -0.2293
109.5600 36.5046 -0.2276
109.5800 36.5113 -0.2032
109.6000 36.5180 -0.2283
109.6200 36.5246 -0.2314
109.6400 36.5312 -0.2029
109.6600 36.5379 -0.2296
109.6800 36.5446 -0.2242
109.7000 36.5513 -0.2075
109.7200 36.5580 -0.2378
109.7400 36.5647 -0.2238
109.7600 36.5714 -0.2182
109.7800 36.5780 -0.2327
109.8000 36.5846 -0.2213
109.8200 36.5912 -0.2243
109.8400 36.5979 -0.2340
109.8600 36.6046 -0.2215
109.8800 36.6114 -0.2350
109.9000 36.6180 -0.2341
109.9200 36.6247 -0.2188
109.9400 36.6313 -0.2326
109.9600 36.6380 -0.2387
109.9800 36.6446 -0.2165
110.0000 36.6512 -0.2337
110.0200 36.6579 -0.2334
110.0400 36.6646 -0.2201
110.0600 36.6713 -0.2382
110.0800 36.6779 -0.2331
110.1000 36.6846 -0.2256
110.1200 36.6913 -0.2435
110.1400 36.6980 -0.2336
110.1600 36.7046 -0.2251
110.1800 36.7112 -0.2396
110.2000 36.7179 -0.2350
110.2200 36.7245 -0.2328
110.2400 36.7313 -0.2400
110.2600 36.7380 -0.2335
110.2800 36.7446 -0.2300
110.3000 36.7513 -0.2453
110.3200 36.7580 -0.2343
110.3400 36.7646 -0.2327
110.3600 36.7713 -0.2436
110.3800 36.7779 -0.2398
110.4000 36.7846 -0.2311
110.4200 36.7913 -0.2442
110.4400 36.7980 -0.2467
110.4600 36.8047 -0.2354
110.4800 36.8113 -0.2357
110.5000 36.8180 -0.2498
110.5200 36.8247 -0.2379
110.5400 36.8313 -0.2414
110.5600 36.8379 -0.2485
110.5800 36.8446 -0.2340
110.6000 36.8513 -0.2425
110.6200 36.8580 -0.2523
110.6400 36.8647 -0.2368
110.6600 36.8714 -0.2411
110.6800 36.8781 -0.2536
110.7000 36.8847 -0.2364
110.7200 36.8913 -0.2456
110.7400 36.8979 -0.2539
110.7600 36.9046 -0.2377
110.7800 36.9113 -0.2489
110.8000 36.9180 -0.2524
110.8200 36.9247 -0.2339
110.8400 36.9314 -0.2540
110.8600 36.9380 -0.2526
110.8800 36.9446 -0.2394
110.9000 36.9512 -0.2514
110.9200 36.9579 -0.2546
110.9400 36.9646 -0.2375
110.9600 36.9713 -0.2542
110.9800 36.9779 -0.2493
111.0000 36.9846 -0.2417
111.0200 36.9913 -0.2548
111.0400 36.9980 -0.2506
111.0600 37.0046 -0.2432
111.0800 37.0112 -0.2506
111.1000 37.0179 -0.2489
111.1200 37.0246 -0.2468
111.1400 37.0313 -0.2535
111.1600 37.0380 -0.2542
111.1800 37.0447 -0.2401
111.2000 37.0514 -0.2555
111.2200 37.0581 -0.2546
111.2400 37.0647 -0.2504
111.2600 37.0713 -0.2583
111.2800 37.0779 -0.2439
111.3000 37.0846 -0.2525
111.3200 37.0913 -0.2579
111.3400 37.0980 -0.2530
111.3600 37.1047 -0.2512
111.3800 37.1114 -0.2538
111.4000 37.1180 -0.2465
111.4200 37.1247 -0.2562
111.4400 37.1313 -0.2610
111.4600 37.1379 -0.2482
111.4800 37.1446 -0.2567
111.5000 37.1513 -0.2586
111.5200 37.1580 -0.2473
111.5400 37.1646 -0.2601
111.5600 37.1713 -0.2567
111.5800 37.1780 -0.2584
111.6000 37.1846 -0.2593
111.6200 37.1912 -0.2589
111.6400 37.1978 -0.2546
111.6600 37.2045 -0.2636
111.6800 37.2112 -0.2593
111.7000 37.2179 -0.2540
111.7200 37.2246 -0.2654
111.7400 37.2313 -0.2566
111.7600 37.2380 -0.2612
111.7800 37.2446 -0.2673
111.8000 37.2512 -0.2598
111.8200 37.2579 -0.2571
111.8400 37.2646 -0.2603
111.8600 37.2713 -0.2635
111.8800 37.2780 -0.2663
111.9000 37.2847 -0.2586
111.9200 37.2914 -0.2650
111.9400 37.2980 -0.2672
111.9600 37.3047 -0.2614
111.9800 37.3113 -0.2615
112.0000 37.3180 -0.2692
112.0200 37.3246 -0.2570
112.0400 37.3313 -0.2705
112.0600 37.3380 -0.2650
112.0800 37.3447 -0.2598
112.1000 37.3514 -0.2713
112.1200 37.3581 -0.2636
112.1400 37.3647 -0.2639
112.1600 37.3713 -0.2794
112.1800 37.3779 -0.2566
112.2000 37.3845 -0.2658
112.2200 37.3913 -0.2780
112.2400 37.3980 -0.2544
112.2600 37.4047 -0.2696
112.2800 37.4113 -0.2801
112.3000 37.4180 -0.2567
112.3200 37.4247 -0.2727
112.3400 37.4313 -0.2793
112.3600 37.4379 -0.2543
112.3800 37.4445 -0.2748
112.4000 37.4513 -0.2757
112.4200 37.4580 -0.2602
112.4400 37.4646 -0.2801
112.4600 37.4713 -0.2751
112.4800 37.4780 -0.2597
112.5000 37.4846 -0.2855
112.5200 37.4913 -0.2788
112.5400 37.4979 -0.2652
112.5600 37.5046 -0.2830
112.5800 37.5113 -0.2758
112.6000 37.5180 -0.2641
112.6200 37.5247 -0.2874
112.6400 37.5314 -0.2746
112.6600 37.5381 -0.2692
112.6800 37.5447 -0.2883
112.7000 37.5513 -0.2772
112.7200 37.5579 -0.2712
112.7400 37.5646 -0.2912
112.7600 37.5713 -0.2795
112.7800 37.5780 -0.2741
112.8000 37.5847 -0.2898
112.8200 37.5914 -0.2850
112.8400 37.5980 -0.2784
112.8600 37.6047 -0.2848
112.8800 37.6113 -0.2906
112.9000 37.6179 -0.2764
112.9200 37.6246 -0.2854
112.9400 37.6313 -0.2920
112.9600 37.6380 -0.2838
112.9800 37.6447 -0.2839
113.0000 37.6513 -0.2946
113.0200 37.6580 -0.2855
113.0400 37.6647 -0.2844
113.0600 37.6713 -0.2960
113.0800 37.6779 -0.2885
113.1000 37.6845 -0.2849
113.1200 37.6912 -0.2944
113.1400 37.6979 -0.2879
113.1600 37.7046 -0.2978
113.1800 37.7113 -0.2899
113.2000 37.7180 -0.2911
113.2200 37.7247 -0.2978
113.2400 37.7313 -0.2912
113.2600 37.7379 -0.2895
113.2800 37.7446 -0.2917
113.3000 37.7513 -0.2556
113.3200 37.7580 -0.1955
113.3400 37.7647 -0.1726
113.3600 37.7713 -0.1601
113.3800 37.7780 -0.1652
113.4000 37.7847 -0.1675
113.4200 37.7913 -0.1630
113.4400 37.7980 -0.1668
113.4600 37.8046 -0.1645
113.4800 37.8113 -0.1560
113.5000 37.8180 -0.1647
113.5200 37.8247 -0.1634
113.5400 37.8313 -0.1647
113.5600 37.8380 -0.1613
113.5800 37.8447 -0.1677
113.6000 37.8513 -0.1606
113.6200 37.8579 -0.1595
113.6400 37.8645 -0.1593
113.6600 37.8713 -0.1637
113.6800 37.8780 -0.1609
113.7000 37.8847 -0.1616
113.7200 37.8913 -0.1619
113.7400 37.8980 -0.1562
113.7600 37.9047 -0.1646
113.7800 37.9113 -0.1656
113.8000 37.9179 -0.1519
113.8200 37.9245 -0.1609
113.8400 37.9312 -0.1628
113.8600 37.9380 -0.1498
113.8800 37.9446 -0.1646
113.9000 37.9513 -0.1658
113.9200 37.9580 -0.1502
113.9400 37.9647 -0.1685
113.9600 37.9713 -0.1568
113.9800 37.9779 -0.1483
114.0000 37.9846 -0.1715
114.0200 37.9913 -0.1531
114.0400 37.9980 -0.1542
114.0600 38.0047 -0.1675
114.0800 38.0113 -0.1523
114.1000 38.0180 -0.1538
114.1200 38.0247 -0.1730
114.1400 38.0313 -0.1517
114.1600 38.0379 -0.1514
114.1800 38.0445 -0.1660
114.2000 38.0512 -0.1510
114.2200 38.0580 -0.1523
114.2400 38.0647 -0.1692
114.2600 38.0714 -0.1503
114.2800 38.0781 -0.1556
114.3000 38.0847 -0.1647
114.3200 38.0913 -0.1542
114.3400 38.0979 -0.1562
114.3600 38.1045 -0.1611
114.3800 38.1112 -0.1545
114.4000 38.1180 -0.1581
114.4200 38.1246 -0.1652
114.4400 38.1313 -0.1530
114.4600 38.1380 -0.1597
114.4800 38.1447 -0.1602
114.5000 38.1513 -0.1579
114.5200 38.1579 -0.1599
114.5400 38.1646 -0.1648
114.5600 38.1712 -0.1565
114.5800 38.1779 -0.1583
114.6000 38.1846 -0.1605
114.6200 38.1913 -0.1578
114.6400 38.1980 -0.1575
114.6600 38.2047 -0.1637
114.6800 38.2113 -0.1530
114.7000 38.2179 -0.1568
114.7200 38.2246 -0.1595
114.7400 38.2313 -0.1618
114.7600 38.2380 -0.1580
114.7800 38.2447 -0.1630
114.8000 38.2514 -0.1602
114.8200 38.2581 -0.1534
114.8400 38.2647 -0.1641
114.8600 38.2713 -0.1601
114.8800 38.2779 -0.1534
114.9000 38.2846 -0.1605
114.9200 38.2913 -0.1631
114.9400 38.2980 -0.1553
114.9600 38.3047 -0.1662
114.9800 38.3114 -0.1591
115.0000 38.3180 -0.1548
115.0200 38.3247 -0.1690
115.0400 38.3313 -0.1603
115.0600 38.3379 -0.1510
115.0800 38.3446 -0.1699
115.1000 38.3513 -0.1598
115.1200 38.3580 -0.1530
115.1400 38.3646 -0.1647
115.1600 38.3713 -0.1610
115.1800 38.3780 -0.1545
115.2000 38.3847 -0.1669
115.2200 38.3913 -0.1588
115.2400 38.3979 -0.1557
115.2600 38.4045 -0.1639
115.2800 38.4112 -0.1644
115.3000 38.4179 -0.1582
115.3200 38.4246 -0.1680
115.3400 38.4313 -0.1644
115.3600 38.4380 -0.1586
115.3800 38.4446 -0.1696
115.4000 38.4512 -0.1628
115.4200 38.4579 -0.1608
115.4400 38.4645 -0.1698
115.4600 38.4713 -0.1577
115.4800 38.4780 -0.1574
115.5000 38.4847 -0.1803
115.5200 38.4913 -0.1624
115.5400 38.4980 -0.1625
115.5600 38.5047 -0.1699
115.5800 38.5114 -0.1662
115.6000 38.5180 -0.1702
115.6200 38.5246 -0.1674
115.6400 38.5313 -0.1650
115.6600 38.5380 -0.1716
115.6800 38.5447 -0.1639
115.7000 38.5514 -0.1659
115.7200 38.5580 -0.1708
115.7400 38.5647 -0.1671
115.7600 38.5713 -0.1708
115.7800 38.5779 -0.1659
115.8000 38.5845 -0.1621
115.8200 38.5912 -0.1797
115.8400 38.5979 -0.1649
115.8600 38.6046 -0.1617
115.8800 38.6113 -0.1836
115.9000 38.6180 -0.1633
115.9200 38.6247 -0.1676
115.9400 38.6313 -0.1800
115.9600 38.6379 -0.1590
115.9800 38.6446 -0.1732
116.0000 38.6512 -0.1811
116.0200 38.6580 -0.1594
116.0400 38.6647 -0.1772
116.0600 38.6713 -0.1826
116.0800 38.6780 -0.1600
116.1000 38.6847 -0.1780
116.1200 38.6913 -0.1855
116.1400 38.6980 -0.1635
116.1600 38.7046 -0.1824
116.1800 38.7113 -0.1751
116.2000 38.7180 -0.1698
116.2200 38.7247 -0.1806
116.2400 38.7314 -0.1723
116.2600 38.7380 -0.1760
116.2800 38.7447 -0.1863
116.3000 38.7514 -0.1755
116.3200 38.7580 -0.1779
116.3400 38.7646 -0.1755
116.3600 38.7712 -0.1762
116.3800 38.7780 -0.1758
116.4000 38.7847 -0.1812
116.4200 38.7913 -0.1770
116.4400 38.7980 -0.1817
116.4600 38.8047 -0.1781
116.4800 38.8113 -0.1796
116.5000 38.8179 -0.1821
116.5200 38.8246 -0.1767
116.5400 38.8312 -0.1870
116.5600 38.8379 -0.1821
116.5800 38.8447 -0.1783
116.6000 38.8513 -0.1871
116.6200 38.8580 -0.1854
116.6400 38.8647 -0.1773
116.6600 38.8713 -0.1881
116.6800 38.8779 -0.1821
116.7000 38.8846 -0.1775
116.7200 38.8912 -0.1889
116.7400 38.8979 -0.1812
116.7600 38.9046 -0.1838
116.7800 38.9113 -0.1922
116.8000 38.9180 -0.1773
116.8200 38.9247 -0.1878
116.8400 38.9314 -0.1900
116.8600 38.9380 -0.1819
116.8800 38.9446 -0.1804
116.9000 38.9512 -0.1848
116.9200 38.9580 -0.1927
116.9400 38.9647 -0.1825
116.9600 38.9714 -0.1778
116.9800 38.9781 -0.1889
117.0000 38.9847 -0.1902
117.0200 38.9913 -0.1816
117.0400 38.9979 -0.1923
117.0600 39.0046 -0.1832
117.0800 39.0112 -0.1791
117.1000 39.0180 -0.1880
117.1200 39.0247 -0.1861
117.1400 39.0314 -0.1823
117.1600 39.0380 -0.1931
117.1800 39.0447 -0.1782
117.2000 39.0514 -0.1832
117.2200 39.0580 -0.1920
117.2400 39.0646 -0.1830
117.2600 39.0712 -0.1825
117.2800 39.0779 -0.1953
117.3000 39.0846 -0.1780
117.3200 39.0913 -0.1801
117.3400 39.0980 -0.1946
117.3600 39.1047 -0.1841
117.3800 39.1113 -0.1877
117.4000 39.1179 -0.1968
117.4200 39.1245 -0.1778
117.4400 39.1312 -0.1850
117.4600 39.1379 -0.1937
117.4800 39.1446 -0.1873
117.5000 39.1513 -0.1830
117.5200 39.1580 -0.1924
117.5400 39.1646 -0.1831
117.5600 39.1713 -0.1834
117.5800 39.1779 -0.1978
117.6000 39.1846 -0.1821
117.6200 39.1913 -0.1885
117.6400 39.1980 -0.1941
117.6600 39.2047 -0.1808
117.6800 39.2113 -0.1851
117.7000 39.2180 -0.1983
117.7200 39.2247 -0.1808
117.7400 39.2314 -0.1885
117.7600 39.2380 -0.2013
117.7800 39.2446 -0.1822
117.8000 39.2512 -0.1866
117.8200 39.2579 -0.2019
117.8400 39.2647 -0.1780
117.8600 39.2714 -0.1931
117.8800 39.2780 -0.2044
117.9000 39.2847 -0.1802
117.9200 39.2913 -0.1940
117.9400 39.2979 -0.2009
117.9600 39.3045 -0.1790
117.9800 39.3112 -0.1968
118.0000 39.3179 -0.1962
118.0200 39.3247 -0.1819
118.0400 39.3313 -0.2040
118.0600 39.3380 -0.1942
118.0800 39.3447 -0.1863
118.1000 39.3513 -0.2031
118.1200 39.3579 -0.1898
118.1400 39.3646 -0.1851
118.1600 39.3712 -0.2075
118.1800 39.3779 -0.1908
118.2000 39.3846 -0.1928
118.2200 39.3913 -0.2040
118.2400 39.3980 -0.1841
118.2600 39.4046 -0.1946
118.2800 39.4113 -0.2090
118.3000 39.4180 -0.1846
118.3200 39.4246 -0.1980
118.3400 39.4312 -0.2007
118.3600 39.4379 -0.1863
118.3800 39.4446 -0.2049
118.4000 39.4513 -0.1966
118.4200 39.4580 -0.1905
118.4400 39.4647 -0.2025
118.4600 39.4714 -0.1893
118.4800 39.4780 -0.1943
118.5000 39.4846 -0.2007
118.5200 39.4912 -0.1871
118.5400 39.4979 -0.1949
118.5600 39.5047 -0.2004
118.5800 39.5114 -0.1910
118.6000 39.5180 -0.2062
118.6200 39.5247 -0.1969
118.6400 39.5314 -0.1847
118.6600 39.5380 -0.2059
118.6800 39.5446 -0.1935
118.7000 39.5512 -0.1855
118.7200 39.5579 -0.1991
118.7400 39.5646 -0.1893
118.7600 39.5713 -0.1851
118.7800 39.5780 -0.2044
118.8000 39.5847 -0.1808
118.8200 39.5913 -0.1958
118.8400 39.5980 -0.2029
118.8600 39.6046 -0.1795
118.8800 39.6112 -0.1925
118.9000 39.6179 -0.1986
118.9200 39.6246 -0.1810
118.9400 39.6313 -0.1979
118.9600 39.6380 -0.1927
118.9800 39.6447 -0.1870
119.0000 39.6513 -0.1941
119.0200 39.6580 -0.1898
119.0400 39.6646 -0.1854
119.0600 39.6712 -0.1912
119.0800 39.6779 -0.1841
119.1000 39.6847 -0.1934
119.1200 39.6914 -0.1910
119.1400 39.6981 -0.1820
119.1600 39.7047 -0.1963
119.1800 39.7114 -0.1845
119.2000 39.7180 -0.1887
119.2200 39.7246 -0.1998
119.2400 39.7312 -0.1801
119.2600 39.7379 -0.1849
119.2800 39.7446 -0.1986
119.3000 39.7513 -0.1775
119.3200 39.7580 -0.1870
119.3400 39.7647 -0.2001
119.3600 39.7714 -0.1821
119.3800 39.7780 -0.1912
119.4000 39.7846 -0.1990
119.4200 39.7912 -0.1807
119.4400 39.7979 -0.1942
119.4600 39.8046 -0.1956
119.4800 39.8113 -0.1836
119.5000 39.8180 -0.1895
119.5200 39.8247 -0.1949
119.5400 39.8314 -0.1864
119.5600 39.8380 -0.1970
119.5800 39.8446 -0.1948
119.6000 39.8512 -0.1823
119.6200 39.8579 -0.1967
119.6400 39.8646 -0.1958
119.6600 39.8713 -0.1827
119.6800 39.8780 -0.1970
119.7000 39.8846 -0.1987
119.7200 39.8913 -0.1806
119.7400 39.8980 -0.2003
119.7600 39.9046 -0.2000
119.7800 39.9112 -0.1862
119.8000 39.9179 -0.1945
119.8200 39.9246 -0.1984
119.8400 39.9313 -0.1895
119.8600 39.9380 -0.1999
119.8800 39.9447 -0.1944
119.9000 39.9514 -0.1934
119.9200 39.9580 -0.2036
119.9400 39.9646 -0.1978
119.9600 39.9712 -0.1854
119.9800 39.9779 -0.1977
120.0000 39.9846 -0.2030
120.0200 39.9913 -0.1955
120.0400 39.9980 -0.1973
120.0470 40.0003 -0.2097
