Raw Data
Time Displacement Force
(s) (mm) (N)
0.0000 0.0000 0.2422
0.0200 0.0000 0.2575
0.0400 0.0008 0.2905
0.0600 0.0039 0.3609
0.0800 0.0094 0.3370
0.1000 0.0151 0.3481
0.1200 0.0210 0.4173
0.1400 0.0276 0.4485
0.1600 0.0350 0.4741
0.1800 0.0424 0.5285
0.2000 0.0496 0.5663
0.2200 0.0565 0.6094
0.2400 0.0632 0.6512
0.2600 0.0698 0.6931
0.2800 0.0765 0.7230
0.3000 0.0832 0.7691
0.3200 0.0899 0.8232
0.3400 0.0966 0.8655
0.3600 0.1033 0.9087
0.3800 0.1100 0.9692
0.4000 0.1166 1.0088
0.4200 0.1233 1.0491
0.4400 0.1300 1.1117
0.4600 0.1367 1.1478
0.4800 0.1433 1.1898
0.5000 0.1500 1.2579
0.5200 0.1567 1.2864
0.5400 0.1634 1.3165
0.5600 0.1699 1.3535
0.5800 0.1766 1.3314
0.6000 0.1833 1.3330
0.6200 0.1900 1.3501
0.6400 0.1967 1.3331
0.6600 0.2033 1.3367
0.6800 0.2100 1.3554
0.7000 0.2167 1.3294
0.7200 0.2233 1.3439
0.7400 0.2300 1.3557
0.7600 0.2366 1.3376
0.7800 0.2433 1.3481
0.8000 0.2499 1.3497
0.8200 0.2566 1.3415
0.8400 0.2633 1.3513
0.8600 0.2700 1.3512
0.8800 0.2767 1.3459
0.9000 0.2833 1.3517
0.9200 0.2899 1.3539
0.9400 0.2965 1.3460
0.9600 0.3032 1.3482
0.9800 0.3099 1.3464
1.0000 0.3166 1.3466
1.0200 0.3233 1.3502
1.0400 0.3300 1.3444
1.0600 0.3366 1.3504
1.0800 0.3433 1.3486
1.1000 0.3499 1.3445
1.1200 0.3565 1.3484
1.1400 0.3632 1.3454
1.1600 0.3699 1.3461
1.1800 0.3766 1.3456
1.2000 0.3833 1.3363
1.2200 0.3900 1.3499
1.2400 0.3967 1.3464
1.2600 0.4034 1.3368
1.2800 0.4100 1.3432
1.3000 0.4167 1.3454
1.3200 0.4233 1.3361
1.3400 0.4300 1.3433
1.3600 0.4367 1.3359
1.3800 0.4434 1.3359
1.4000 0.4500 1.3355
1.4200 0.4567 1.3343
1.4400 0.4633 1.3287
1.4600 0.4699 1.3350
1.4800 0.4765 1.3279
1.5000 0.4832 1.3280
1.5200 0.4899 1.3221
1.5400 0.4966 1.3253
1.5600 0.5033 1.3313
1.5800 0.5100 1.3144
1.6000 0.5167 1.3183
1.6200 0.5233 1.3214
1.6400 0.5299 1.3115
1.6600 0.5365 1.3179
1.6800 0.5432 1.3146
1.7000 0.5500 1.3077
1.7200 0.5567 1.3135
1.7400 0.5633 1.3047
1.7600 0.5700 1.3010
1.7800 0.5767 1.3109
1.8000 0.5833 1.3025
1.8200 0.5900 1.2908
1.8400 0.5966 1.3110
1.8600 0.6033 1.2966
1.8800 0.6100 1.2866
1.9000 0.6167 1.3031
1.9200 0.6233 1.2935
1.9400 0.6300 1.2836
1.9600 0.6367 1.2991
1.9800 0.6434 1.2793
2.0000 0.6500 1.2812
2.0200 0.6565 1.2995
2.0400 0.6632 1.2772
2.0600 0.6699 1.2750
2.0800 0.6767 1.2900
2.1000 0.6834 1.2655
2.1200 0.6900 1.2783
2.1400 0.6967 1.2843
2.1600 0.7033 1.2604
2.1800 0.7099 1.2736
2.2000 0.7166 1.2780
2.2200 0.7232 1.2606
2.2400 0.7300 1.2672
2.2600 0.7367 1.2732
2.2800 0.7433 1.2571
2.3000 0.7500 1.2664
2.3200 0.7567 1.2660
2.3400 0.7633 1.2488
2.3600 0.7699 1.2636
2.3800 0.7766 1.2618
2.4000 0.7832 1.2490
2.4200 0.7899 1.2547
2.4400 0.7966 1.2527
2.4600 0.8033 1.2502
2.4800 0.8100 1.2509
2.5000 0.8167 1.2502
2.5200 0.8234 1.2461
2.5400 0.8300 1.2499
2.5600 0.8366 1.2436
2.5800 0.8433 1.2458
2.6000 0.8500 1.2380
2.6200 0.8567 1.2354
2.6400 0.8634 1.2397
2.6600 0.8701 1.2385
2.6800 0.8767 1.2321
2.7000 0.8833 1.2372
2.7200 0.8900 1.2318
2.7400 0.8966 1.2304
2.7600 0.9033 1.2279
2.7800 0.9100 1.2292
2.8000 0.9167 1.2286
2.8200 0.9234 1.2270
2.8400 0.9300 1.2168
2.8600 0.9367 1.2275
2.8800 0.9433 1.2314
2.9000 0.9500 1.2150
2.9200 0.9566 1.2232
2.9400 0.9632 1.2220
2.9600 0.9699 1.2125
2.9800 0.9766 1.2202
3.0000 0.9833 1.2157
3.0200 0.9900 1.2076
3.0400 0.9967 1.2213
3.0600 1.0034 1.2129
3.0800 1.0099 1.2091
3.1000 1.0165 1.2230
3.1200 1.0232 1.2130
3.1400 1.0299 1.2043
3.1600 1.0366 1.2196
3.1800 1.0433 1.2060
3.2000 1.0500 1.2072
3.2200 1.0567 1.2140
3.2400 1.0633 1.2078
3.2600 1.0700 1.2029
3.2800 1.0766 1.2116
3.3000 1.0833 1.2099
3.3200 1.0900 1.1997
3.3400 1.0967 1.2049
3.3600 1.1034 1.2092
3.3800 1.1100 1.1943
3.4000 1.1167 1.1973
3.4200 1.1234 1.2036
3.4400 1.1300 1.1949
3.4600 1.1366 1.1973
3.4800 1.1433 1.2053
3.5000 1.1500 1.1892
3.5200 1.1567 1.1973
3.5400 1.1634 1.1962
3.5600 1.1700 1.1856
3.5800 1.1767 1.1996
3.6000 1.1834 1.1901
3.6200 1.1899 1.1816
3.6400 1.1966 1.1910
3.6600 1.2032 1.1917
3.6800 1.2099 1.1807
3.7000 1.2167 1.1881
3.7200 1.2233 1.1874
3.7400 1.2300 1.1837
3.7600 1.2367 1.1814
3.7800 1.2434 1.1842
3.8000 1.2500 1.1769
3.8200 1.2566 1.1819
3.8400 1.2632 1.1792
3.8600 1.2699 1.1767
3.8800 1.2766 1.1786
3.9000 1.2833 1.1774
3.9200 1.2900 1.1701
3.9400 1.2967 1.1710
3.9600 1.3033 1.1747
3.9800 1.3100 1.1634
4.0000 1.3166 1.1665
4.0200 1.3232 1.1752
4.0400 1.3299 1.1581
4.0600 1.3366 1.1653
4.0800 1.3433 1.1754
4.1000 1.3500 1.1594
4.1200 1.3567 1.1614
4.1400 1.3634 1.1653
4.1600 1.3700 1.1537
4.1800 1.3766 1.1586
4.2000 1.3833 1.1645
4.2200 1.3900 1.1506
4.2400 1.3967 1.1535
4.2600 1.4034 1.1564
4.2800 1.4100 1.1484
4.3000 1.4167 1.1542
4.3200 1.4234 1.1538
4.3400 1.4300 1.1402
4.3600 1.4366 1.1515
4.3800 1.4432 1.1538
4.4000 1.4499 1.1388
4.4200 1.4566 1.1401
4.4400 1.4633 1.1476
4.4600 1.4700 1.1325
4.4800 1.4767 1.1455
4.5000 1.4834 1.1442
4.5200 1.4900 1.1301
4.5400 1.4966 1.1446
4.5600 1.5032 1.1416
4.5800 1.5099 1.1251
4.6000 1.5166 1.1421
4.6200 1.5233 1.1385
4.6400 1.5300 1.1207
4.6600 1.5367 1.1348
4.6800 1.5434 1.1333
4.7000 1.5500 1.1233
4.7200 1.5566 1.1345
4.7400 1.5632 1.1298
4.7600 1.5699 1.1197
4.7800 1.5767 1.1335
4.8000 1.5834 1.1215
4.8200 1.5901 1.1122
4.8400 1.5967 1.1279
4.8600 1.6034 1.1185
4.8800 1.6100 1.1085
4.9000 1.6166 1.1242
4.9200 1.6232 1.1132
4.9400 1.6299 1.1098
4.9600 1.6366 1.1188
4.9800 1.6433 1.1078
5.0000 1.6500 1.1078
5.0200 1.6567 1.1178
5.0400 1.6634 1.0985
5.0600 1.6700 1.1004
5.0800 1.6766 1.1055
5.1000 1.6832 1.1073
5.1200 1.6899 1.0991
5.1400 1.6966 1.0999
5.1600 1.7033 1.0995
5.1800 1.7100 1.1010
5.2000 1.7167 1.0950
5.2200 1.7234 1.0918
5.2400 1.7300 1.0975
5.2600 1.7366 1.0977
5.2800 1.7432 1.0878
5.3000 1.7499 1.0985
5.3200 1.7566 1.0942
5.3400 1.7633 1.0871
5.3600 1.7700 1.0926
5.3800 1.7766 1.0882
5.4000 1.7833 1.0892
5.4200 1.7900 1.0871
5.4400 1.7966 1.0825
5.4600 1.8033 1.0868
5.4800 1.8099 1.0909
5.5000 1.8167 1.0784
5.5200 1.8233 1.0879
5.5400 1.8300 1.0838
5.5600 1.8367 1.0759
5.5800 1.8434 1.0852
5.6000 1.8500 1.0772
5.6200 1.8566 1.0715
5.6400 1.8633 1.0883
5.6600 1.8699 1.0766
5.6800 1.8767 1.0692
5.7000 1.8833 1.0833
5.7200 1.8900 1.0758
5.7400 1.8967 1.0686
5.7600 1.9034 1.0783
5.7800 1.9100 1.0641
5.8000 1.9166 1.0695
5.8200 1.9232 1.0779
5.8400 1.9299 1.0654
5.8600 1.9366 1.0666
5.8800 1.9433 1.0731
5.9000 1.9500 1.0629
5.9200 1.9566 1.0633
5.9400 1.9633 1.0680
5.9600 1.9700 1.0580
5.9800 1.9766 1.0619
6.0000 1.9832 1.0602
6.0200 1.9899 1.0589
6.0400 1.9966 1.0583
6.0600 2.0033 1.0594
6.0800 2.0100 1.0557
6.1000 2.0167 1.0554
6.1200 2.0234 1.0551
6.1400 2.0300 1.0577
6.1600 2.0366 1.0439
6.1800 2.0432 1.0477
6.2000 2.0498 1.0507
6.2200 2.0566 1.0478
6.2400 2.0633 1.0472
6.2600 2.0701 1.0500
6.2800 2.0768 1.0386
6.3000 2.0834 1.0415
6.3200 2.0900 1.0459
6.3400 2.0966 1.0384
6.3600 2.1033 1.0391
6.3800 2.1099 1.0448
6.4000 2.1167 1.0306
6.4200 2.1234 1.0324
6.4400 2.1300 1.0386
6.4600 2.1367 1.0309
6.4800 2.1434 1.0294
6.5000 2.1500 1.0328
6.5200 2.1567 1.0281
6.5400 2.1633 1.0296
6.5600 2.1699 1.0330
6.5800 2.1766 1.0197
6.6000 2.1833 1.0269
6.6200 2.1900 1.0295
6.6400 2.1967 1.0122
6.6600 2.2034 1.0196
6.6800 2.2100 1.0281
6.7000 2.2166 1.0094
6.7200 2.2232 1.0215
6.7400 2.2299 1.0217
6.7600 2.2366 1.0133
6.7800 2.2433 1.0141
6.8000 2.2500 1.0112
6.8200 2.2567 1.0099
6.8400 2.2633 1.0151
6.8600 2.2700 1.0037
6.8800 2.2766 1.0108
6.9000 2.2833 1.0083
6.9200 2.2899 1.0096
6.9400 2.2966 1.0078
6.9600 2.3033 1.0005
6.9800 2.3100 1.0028
7.0000 2.3167 1.0098
7.0200 2.3233 0.9912
7.0400 2.3300 0.9992
7.0600 2.3366 1.0085
7.0800 2.3433 0.9875
7.1000 2.3500 1.0003
7.1200 2.3566 1.0056
7.1400 2.3633 0.9822
7.1600 2.3700 1.0024
7.1800 2.3767 0.9975
7.2000 2.3834 0.9763
7.2200 2.3901 1.0029
7.2400 2.3966 0.9955
7.2600 2.4032 0.9729
7.2800 2.4099 1.0056
7.3000 2.4166 0.9915
7.3200 2.4233 0.9718
7.3400 2.4300 1.0003
7.3600 2.4367 0.9850
7.3800 2.4434 0.9774
7.4000 2.4500 0.9925
7.4200 2.4566 0.9788
7.4400 2.4632 0.9773
7.4600 2.4699 0.9858
7.4800 2.4766 0.9738
7.5000 2.4833 0.9768
7.5200 2.4900 0.9857
7.5400 2.4966 0.9753
7.5600 2.5033 0.9686
7.5800 2.5100 0.9804
7.6000 2.5166 0.9706
7.6200 2.5233 0.9716
7.6400 2.5299 0.9719
7.6600 2.5366 0.9707
7.6800 2.5433 0.9593
7.7000 2.5500 0.9718
7.7200 2.5567 0.9725
7.7400 2.5634 0.9589
7.7600 2.5701 0.9685
7.7800 2.5767 0.9667
7.8000 2.5833 0.9501
7.8200 2.5899 0.9668
7.8400 2.5966 0.9683
7.8600 2.6033 0.9486
7.8800 2.6100 0.9647
7.9000 2.6167 0.9595
7.9200 2.6234 0.9470
7.9400 2.6300 0.9665
7.9600 2.6366 0.9591
7.9800 2.6433 0.9442
8.0000 2.6499 0.9622
8.0200 2.6566 0.9486
8.0400 2.6633 0.9461
8.0600 2.6700 0.9572
8.0800 2.6767 0.9478
8.1000 2.6834 0.9398
8.1200 2.6900 0.9546
8.1400 2.6966 0.9419
8.1600 2.7032 0.9423
8.1800 2.7099 0.9529
8.2000 2.7166 0.9376
8.2200 2.7233 0.9359
8.2400 2.7300 0.9508
8.2600 2.7367 0.9329
8.2800 2.7434 0.9345
8.3000 2.7500 0.9458
8.3200 2.7567 0.9338
8.3400 2.7633 0.9367
8.3600 2.7699 0.9380
8.3800 2.7766 0.9337
8.4000 2.7833 0.9309
8.4200 2.7900 0.9347
8.4400 2.7967 0.9290
8.4600 2.8034 0.9304
8.4800 2.8100 0.9315
8.5000 2.8167 0.9242
8.5200 2.8233 0.9255
8.5400 2.8299 0.9328
8.5600 2.8366 0.9257
8.5800 2.8433 0.9229
8.6000 2.8500 0.9233
8.6200 2.8567 0.9228
8.6400 2.8634 0.9197
8.6600 2.8701 0.9199
8.6800 2.8767 0.9194
8.7000 2.8833 0.9184
8.7200 2.8899 0.9176
8.7400 2.8966 0.9198
8.7600 2.9033 0.9114
8.7800 2.9100 0.9141
8.8000 2.9167 0.9116
8.8200 2.9234 0.9074
8.8400 2.9300 0.9100
8.8600 2.9366 0.9141
8.8800 2.9432 0.9030
8.9000 2.9498 0.9046
8.9200 2.9565 0.9138
8.9400 2.9633 0.9050
8.9600 2.9699 0.8994
8.9800 2.9766 0.9118
9.0000 2.9833 0.9019
9.0200 2.9900 0.8951
9.0400 2.9966 0.9061
9.0600 3.0032 0.9025
9.0800 3.0099 0.8996
9.1000 3.0166 0.9008
9.1200 3.0234 0.8967
9.1400 3.0300 0.8953
9.1600 3.0367 0.8990
9.1800 3.0434 0.8964
9.2000 3.0501 0.8936
9.2200 3.0567 0.8921
9.2400 3.0633 0.8929
9.2600 3.0699 0.8920
9.2800 3.0766 0.8975
9.3000 3.0833 0.8911
9.3200 3.0900 0.8818
9.3400 3.0967 0.8925
9.3600 3.1034 0.8946
9.3800 3.1101 0.8789
9.4000 3.1167 0.8883
9.4200 3.1232 0.8878
9.4400 3.1299 0.8797
9.4600 3.1366 0.8846
9.4800 3.1433 0.8865
9.5000 3.1500 0.8741
9.5200 3.1567 0.8847
9.5400 3.1634 0.8815
9.5600 3.1700 0.8730
9.5800 3.1767 0.8829
9.6000 3.1833 0.8736
9.6200 3.1899 0.8734
9.6400 3.1966 0.8795
9.6600 3.2033 0.8685
9.6800 3.2100 0.8742
9.7000 3.2166 0.8770
9.7200 3.2233 0.8659
9.7400 3.2300 0.8682
9.7600 3.2366 0.8739
9.7800 3.2433 0.8634
9.8000 3.2499 0.8693
9.8200 3.2566 0.8733
9.8400 3.2633 0.8576
9.8600 3.2700 0.8658
9.8800 3.2767 0.8666
9.9000 3.2834 0.8605
9.9200 3.2901 0.8618
9.9400 3.2967 0.8623
9.9600 3.3033 0.8522
9.9800 3.3099 0.8641
10.0000 3.3166 0.8610
10.0200 3.3233 0.8522
10.0400 3.3301 0.8588
10.0600 3.3367 0.8593
10.0800 3.3434 0.8447
10.1000 3.3500 0.8600
10.1200 3.3567 0.8527
10.1400 3.3633 0.8476
10.1600 3.3699 0.8539
10.1800 3.3766 0.8430
10.2000 3.3833 0.8474
10.2200 3.3899 0.8553
10.2400 3.3966 0.8415
10.2600 3.4033 0.8487
10.2800 3.4100 0.8497
10.3000 3.4167 0.8323
10.3200 3.4233 0.8541
10.3400 3.4299 0.8453
10.3600 3.4366 0.8282
10.3800 3.4433 0.8458
10.4000 3.4500 0.8357
10.4200 3.4567 0.8287
10.4400 3.4633 0.8435
10.4600 3.4700 0.8329
10.4800 3.4767 0.8278
10.5000 3.4833 0.8394
10.5200 3.4899 0.8271
10.5400 3.4966 0.8298
10.5600 3.5033 0.8369
10.5800 3.5100 0.8143
10.6000 3.5167 0.8303
10.6200 3.5234 0.8327
10.6400 3.5300 0.8162
10.6600 3.5367 0.8269
10.6800 3.5433 0.8332
10.7000 3.5499 0.8142
10.7200 3.5566 0.8208
10.7400 3.5633 0.8205
10.7600 3.5700 0.8126
10.7800 3.5767 0.8213
10.8000 3.5834 0.8157
10.8200 3.5901 0.8082
10.8400 3.5967 0.8155
10.8600 3.6033 0.8158
10.8800 3.6099 0.8120
10.9000 3.6166 0.8131
10.9200 3.6233 0.8121
10.9400 3.6300 0.8125
10.9600 3.6367 0.8061
10.9800 3.6434 0.8077
11.0000 3.6500 0.8090
11.0200 3.6566 0.8007
11.0400 3.6632 0.8023
11.0600 3.6698 0.8150
11.0800 3.6765 0.7953
11.1000 3.6833 0.8059
11.1200 3.6900 0.8072
11.1400 3.6966 0.7907
11.1600 3.7033 0.8077
11.1800 3.7100 0.8033
11.2000 3.7167 0.7804
11.2200 3.7233 0.8069
11.2400 3.7299 0.8015
11.2600 3.7366 0.7805
11.2800 3.7433 0.8068
11.3000 3.7500 0.7967
11.3200 3.7567 0.7766
11.3400 3.7634 0.8082
11.3600 3.7701 0.7875
11.3800 3.7767 0.7748
11.4000 3.7833 0.8065
11.4200 3.7899 0.7815
11.4400 3.7966 0.7779
11.4600 3.8033 0.8061
11.4800 3.8100 0.7766
11.5000 3.8167 0.7781
11.5200 3.8234 0.7970
11.5400 3.8301 0.7742
11.5600 3.8367 0.7792
11.5800 3.8433 0.7926
11.6000 3.8499 0.7682
11.6200 3.8566 0.7757
11.6400 3.8633 0.7919
11.6600 3.8699 0.7674
11.6800 3.8766 0.7789
11.7000 3.8833 0.7834
11.7200 3.8900 0.7675
11.7400 3.8967 0.7717
11.7600 3.9033 0.7798
11.7800 3.9099 0.7673
11.8000 3.9165 0.7716
11.8200 3.9232 0.7761
11.8400 3.9299 0.7669
11.8600 3.9366 0.7703
11.8800 3.9433 0.7779
11.9000 3.9500 0.7617
11.9200 3.9567 0.7638
11.9400 3.9633 0.7686
11.9600 3.9699 0.7652
11.9800 3.9766 0.7623
12.0000 3.9833 0.7652
12.0200 3.9900 0.7604
12.0400 3.9967 0.7569
12.0600 4.0034 0.7668
12.0800 4.0100 0.7599
12.1000 4.0167 0.7550
12.1200 4.0233 0.7595
12.1400 4.0300 0.7576
12.1600 4.0366 0.7525
12.1800 4.0433 0.7615
12.2000 4.0500 0.7538
12.2200 4.0567 0.7527
12.2400 4.0634 0.7604
12.2600 4.0701 0.7532
12.2800 4.0767 0.7498
12.3000 4.0833 0.7573
12.3200 4.0899 0.7532
12.3400 4.0966 0.7466
12.3600 4.1033 0.7590
12.3800 4.1100 0.7505
12.4000 4.1167 0.7285
12.4200 4.1233 0.7608
12.4400 4.1300 0.7562
12.4600 4.1367 0.7304
12.4800 4.1433 0.7492
12.5000 4.1499 0.7553
12.5200 4.1565 0.7312
12.5400 4.1633 0.7462
12.5600 4.1700 0.7517
12.5800 4.1767 0.7286
12.6000 4.1833 0.7391
12.6200 4.1900 0.7495
12.6400 4.1967 0.7317
12.6600 4.2033 0.7412
12.6800 4.2099 0.7400
12.7000 4.2166 0.7336
12.7200 4.2233 0.7432
12.7400 4.2300 0.7316
12.7600 4.2367 0.7280
12.7800 4.2434 0.7397
12.8000 4.2501 0.7312
12.8200 4.2568 0.7219
12.8400 4.2634 0.7475
12.8600 4.2699 0.7198
12.8800 4.2766 0.7243
12.9000 4.2833 0.7446
12.9200 4.2900 0.7192
12.9400 4.2967 0.7191
12.9600 4.3034 0.7344
12.9800 4.3101 0.7172
13.0000 4.3167 0.7208
13.0200 4.3233 0.7281
13.0400 4.3299 0.7162
13.0600 4.3366 0.7186
13.0800 4.3433 0.7221
13.1000 4.3500 0.7115
13.1200 4.3567 0.7195
13.1400 4.3633 0.7174
13.1600 4.3700 0.7136
13.1800 4.3767 0.7152
13.2000 4.3833 0.7128
13.2200 4.3899 0.7107
13.2400 4.3965 0.7127
13.2600 4.4032 0.7082
13.2800 4.4099 0.7091
13.3000 4.4166 0.7089
13.3200 4.4233 0.7071
13.3400 4.4300 0.7060
13.3600 4.4367 0.6983
13.3800 4.4433 0.7096
13.4000 4.4499 0.7051
13.4200 4.4566 0.6967
13.4400 4.4632 0.7058
13.4600 4.4700 0.7030
13.4800 4.4767 0.6903
13.5000 4.4834 0.7043
13.5200 4.4901 0.7006
13.5400 4.4967 0.6924
13.5600 4.5034 0.6972
13.5800 4.5100 0.6933
13.6000 4.5166 0.6941
13.6200 4.5233 0.6994
13.6400 4.5300 0.6861
13.6600 4.5367 0.6919
13.6800 4.5434 0.6932
13.7000 4.5500 0.6881
13.7200 4.5567 0.6872
13.7400 4.5633 0.6926
13.7600 4.5699 0.6847
13.7800 4.5765 0.6879
13.8000 4.5832 0.6886
13.8200 4.5900 0.6797
13.8400 4.5967 0.6865
13.8600 4.6033 0.6881
13.8800 4.6100 0.6792
13.9000 4.6167 0.6824
13.9200 4.6233 0.6795
13.9400 4.6299 0.6793
13.9600 4.6366 0.6812
13.9800 4.6432 0.6733
14.0000 4.6500 0.6820
14.0200 4.6567 0.6766
14.0400 4.6633 0.6710
14.0600 4.6700 0.6813
14.0800 4.6767 0.6749
14.1000 4.6833 0.6685
14.1200 4.6899 0.6778
14.1400 4.6966 0.6747
14.1600 4.7033 0.6671
14.1800 4.7100 0.6679
14.2000 4.7167 0.6716
14.2200 4.7233 0.6663
14.2400 4.7300 0.6725
14.2600 4.7366 0.6681
14.2800 4.7433 0.6619
14.3000 4.7499 0.6720
14.3200 4.7566 0.6654
14.3400 4.7633 0.6628
14.3600 4.7700 0.6682
14.3800 4.7767 0.6574
14.4000 4.7834 0.6603
14.4200 4.7901 0.6645
14.4400 4.7968 0.6562
14.4600 4.8034 0.6552
14.4800 4.8100 0.6641
14.5000 4.8166 0.6546
14.5200 4.8232 0.6560
14.5400 4.8300 0.6620
14.5600 4.8367 0.6531
14.5800 4.8433 0.6550
14.6000 4.8500 0.6523
14.6200 4.8567 0.6524
14.6400 4.8633 0.6520
14.6600 4.8699 0.6518
14.6800 4.8766 0.6483
14.7000 4.8832 0.6503
14.7200 4.8899 0.6476
14.7400 4.8966 0.6467
14.7600 4.9033 0.6460
14.7800 4.9100 0.6442
14.8000 4.9167 0.6456
14.8200 4.9233 0.6440
14.8400 4.9300 0.6354
14.8600 4.9366 0.6489
14.8800 4.9433 0.6389
14.9000 4.9500 0.6335
14.9200 4.9567 0.6459
14.9400 4.9633 0.6320
14.9600 4.9700 0.6345
14.9800 4.9767 0.6388
15.0000 4.9834 0.6298
15.0200 4.9899 0.6360
15.0400 4.9965 0.6379
15.0600 5.0032 0.6258
15.0800 5.0099 0.6302
15.1000 5.0166 0.6377
15.1200 5.0233 0.6244
15.1400 5.0300 0.6231
15.1600 5.0367 0.6329
15.1800 5.0434 0.6209
15.2000 5.0500 0.6252
15.2200 5.0566 0.6309
15.2400 5.0633 0.6178
15.2600 5.0700 0.6186
15.2800 5.0767 0.6291
15.3000 5.0834 0.6109
15.3200 5.0900 0.6227
15.3400 5.0967 0.6230
15.3600 5.1034 0.6131
15.3800 5.1100 0.6203
15.4000 5.1165 0.6219
15.4200 5.1232 0.6154
15.4400 5.1299 0.6183
15.4600 5.1366 0.6114
15.4800 5.1433 0.6127
15.5000 5.1500 0.6153
15.5200 5.1567 0.6105
15.5400 5.1633 0.6042
15.5600 5.1699 0.6125
15.5800 5.1766 0.6139
15.6000 5.1832 0.6075
15.6200 5.1900 0.6084
15.6400 5.1967 0.6099
15.6600 5.2034 0.6035
15.6800 5.2100 0.6013
15.7000 5.2167 0.6120
15.7200 5.2234 0.6007
15.7400 5.2300 0.5980
15.7600 5.2366 0.6081
15.7800 5.2433 0.5987
15.8000 5.2500 0.5937
15.8200 5.2567 0.6108
15.8400 5.2634 0.5918
15.8600 5.2700 0.5905
15.8800 5.2767 0.6047
15.9000 5.2833 0.5878
15.9200 5.2899 0.5882
15.9400 5.2965 0.6042
15.9600 5.3032 0.5923
15.9800 5.3100 0.5921
16.0000 5.3167 0.6006
16.0200 5.3233 0.5858
16.0400 5.3300 0.5898
16.0600 5.3367 0.5994
16.0800 5.3433 0.5784
16.1000 5.3499 0.5860
16.1200 5.3566 0.5894
16.1400 5.3632 0.5806
16.1600 5.3700 0.5881
16.1800 5.3767 0.5887
16.2000 5.3833 0.5761
16.2200 5.3900 0.5885
16.2400 5.3967 0.5825
16.2600 5.4033 0.5710
16.2800 5.4100 0.5898
16.3000 5.4166 0.5797
16.3200 5.4233 0.5697
16.3400 5.4300 0.5908
16.3600 5.4367 0.5764
16.3800 5.4433 0.5748
16.4000 5.4500 0.5860
16.4200 5.4567 0.5709
16.4400 5.4634 0.5703
16.4600 5.4700 0.5809
16.4800 5.4766 0.5692
16.5000 5.4832 0.5685
16.5200 5.4899 0.5817
16.5400 5.4967 0.5641
16.5600 5.5034 0.5727
16.5800 5.5100 0.5738
16.6000 5.5167 0.5693
16.6200 5.5233 0.5664
16.6400 5.5299 0.5684
16.6600 5.5365 0.5674
16.6800 5.5432 0.5681
16.7000 5.5499 0.5616
16.7200 5.5566 0.5626
16.7400 5.5633 0.5643
16.7600 5.5700 0.5644
16.7800 5.5767 0.5699
16.8000 5.5834 0.5609
16.8200 5.5900 0.5513
16.8400 5.5966 0.5664
16.8600 5.6032 0.5560
16.8800 5.6099 0.5530
16.9000 5.6166 0.5635
16.9200 5.6233 0.5480
16.9400 5.6300 0.5534
16.9600 5.6367 0.5623
16.9800 5.6434 0.5533
17.0000 5.6500 0.5540
17.0200 5.6566 0.5541
17.0400 5.6633 0.5458
17.0600 5.6700 0.5489
17.0800 5.6767 0.5523
17.1000 5.6834 0.5484
17.1200 5.6901 0.5421
17.1400 5.6967 0.5512
17.1600 5.7034 0.5468
17.1800 5.7100 0.5430
17.2000 5.7166 0.5448
17.2200 5.7232 0.5467
17.2400 5.7300 0.5387
17.2600 5.7367 0.5423
17.2800 5.7434 0.5408
17.3000 5.7500 0.5341
17.3200 5.7567 0.5381
17.3400 5.7634 0.5434
17.3600 5.7700 0.5319
17.3800 5.7766 0.5386
17.4000 5.7832 0.5405
17.4200 5.7899 0.5324
17.4400 5.7966 0.5348
17.4600 5.8033 0.5390
17.4800 5.8100 0.5285
17.5000 5.8167 0.5269
17.5200 5.8233 0.5327
17.5400 5.8299 0.5228
17.5600 5.8365 0.5324
17.5800 5.8432 0.5319
17.6000 5.8499 0.5187
17.6200 5.8566 0.5297
17.6400 5.8633 0.5276
17.6600 5.8700 0.5201
17.6800 5.8767 0.5279
17.7000 5.8833 0.5235
17.7200 5.8900 0.5172
17.7400 5.8966 0.5285
17.7600 5.9033 0.5265
17.7800 5.9100 0.5088
17.8000 5.9167 0.5240
17.8200 5.9233 0.5207
17.8400 5.9300 0.5118
17.8600 5.9367 0.5198
17.8800 5.9434 0.5175
17.9000 5.9500 0.5053
17.9200 5.9566 0.5129
17.9400 5.9633 0.5153
17.9600 5.9699 0.5133
17.9800 5.9767 0.5119
18.0000 5.9834 0.5096
18.0200 5.9901 0.5068
18.0400 5.9967 0.5119
18.0600 6.0034 0.5036
18.0800 6.0100 0.5093
18.1000 6.0166 0.5034
18.1200 6.0232 0.5038
18.1400 6.0299 0.5087
18.1600 6.0366 0.4989
18.1800 6.0433 0.5027
18.2000 6.0500 0.5066
18.2200 6.0567 0.4963
18.2400 6.0634 0.5006
18.2600 6.0700 0.5029
18.2800 6.0766 0.4903
18.3000 6.0832 0.4992
18.3200 6.0899 0.4997
18.3400 6.0966 0.4891
18.3600 6.1033 0.5007
18.3800 6.1100 0.4957
18.4000 6.1167 0.4807
18.4200 6.1234 0.4989
18.4400 6.1300 0.4894
18.4600 6.1366 0.4833
18.4800 6.1432 0.4934
18.5000 6.1499 0.4863
18.5200 6.1566 0.4866
18.5400 6.1634 0.4938
18.5600 6.1700 0.4782
18.5800 6.1767 0.4856
18.6000 6.1834 0.4913
18.6200 6.1900 0.4766
18.6400 6.1966 0.4797
18.6600 6.2032 0.4900
18.6800 6.2099 0.4718
18.7000 6.2167 0.4773
18.7200 6.2234 0.4807
18.7400 6.2301 0.4734
18.7600 6.2367 0.4757
18.7800 6.2434 0.4758
18.8000 6.2500 0.4731
18.8200 6.2566 0.4798
18.8400 6.2632 0.4733
18.8600 6.2699 0.4692
18.8800 6.2766 0.4752
18.9000 6.2833 0.4699
18.9200 6.2900 0.4728
18.9400 6.2967 0.4726
18.9600 6.3034 0.4674
18.9800 6.3100 0.4667
19.0000 6.3166 0.4703
19.0200 6.3232 0.4634
19.0400 6.3299 0.4679
19.0600 6.3366 0.4641
19.0800 6.3433 0.4613
19.1000 6.3500 0.4691
19.1200 6.3567 0.4642
19.1400 6.3633 0.4635
19.1600 6.3700 0.4660
19.1800 6.3766 0.4550
19.2000 6.3833 0.4621
19.2200 6.3900 0.4679
19.2400 6.3967 0.4596
19.2600 6.4034 0.4538
19.2800 6.4101 0.4675
19.3000 6.4167 0.4502
19.3200 6.4234 0.4580
19.3400 6.4300 0.4613
19.3600 6.4366 0.4475
19.3800 6.4432 0.4629
19.4000 6.4499 0.4600
19.4200 6.4566 0.4453
19.4400 6.4633 0.4593
19.4600 6.4700 0.4588
19.4800 6.4767 0.4405
19.5000 6.4834 0.4550
19.5200 6.4900 0.4554
19.5400 6.4966 0.4416
19.5600 6.5032 0.4535
19.5800 6.5099 0.4519
19.6000 6.5166 0.4400
19.6200 6.5233 0.4509
19.6400 6.5300 0.4471
19.6600 6.5367 0.4408
19.6800 6.5434 0.4461
19.7000 6.5500 0.4407
19.7200 6.5566 0.4391
19.7400 6.5632 0.4497
19.7600 6.5698 0.4397
19.7800 6.5766 0.4378
19.8000 6.5833 0.4424
19.8200 6.5900 0.4375
19.8400 6.5966 0.4400
19.8600 6.6033 0.4381
19.8800 6.6100 0.4321
19.9000 6.6166 0.4380
19.9200 6.6232 0.4348
19.9400 6.6299 0.4380
19.9600 6.6366 0.4348
19.9800 6.6433 0.4298
20.0000 6.6500 0.4330
20.0200 6.6567 0.4359
20.0400 6.6634 0.4257
20.0600 6.6701 0.4313
20.0800 6.6767 0.4348
20.1000 6.6833 0.4227
20.1200 6.6899 0.4328
20.1400 6.6967 0.4268
20.1600 6.7034 0.4220
20.1800 6.7101 0.4303
20.2000 6.7167 0.4227
20.2200 6.7234 0.4207
20.2400 6.7300 0.4314
20.2600 6.7366 0.4206
20.2800 6.7432 0.4211
20.3000 6.7499 0.4270
20.3200 6.7566 0.4215
20.3400 6.7633 0.4177
20.3600 6.7700 0.4230
20.3800 6.7766 0.4169
20.4000 6.7833 0.4172
20.4200 6.7900 0.4139
20.4400 6.7966 0.4149
20.4600 6.8032 0.4177
20.4800 6.8099 0.4172
20.5000 6.8166 0.4143
20.5200 6.8233 0.4141
20.5400 6.8300 0.4084
20.5600 6.8367 0.4117
20.5800 6.8434 0.4088
20.6000 6.8500 0.4034
20.6200 6.8567 0.4106
20.6400 6.8633 0.4059
20.6600 6.8699 0.4043
20.6800 6.8766 0.4096
20.7000 6.8834 0.4083
20.7200 6.8900 0.4062
20.7400 6.8967 0.4057
20.7600 6.9034 0.4026
20.7800 6.9100 0.4069
20.8000 6.9166 0.3967
20.8200 6.9232 0.4004
20.8400 6.9299 0.4000
20.8600 6.9366 0.3975
20.8800 6.9433 0.3978
20.9000 6.9500 0.4025
20.9200 6.9567 0.3933
20.9400 6.9634 0.3936
20.9600 6.9700 0.3966
20.9800 6.9766 0.3881
21.0000 6.9833 0.3919
21.0200 6.9899 0.3989
21.0400 6.9966 0.3810
21.0600 7.0033 0.3916
21.0800 7.0100 0.3956
21.1000 7.0167 0.3872
21.1200 7.0234 0.3902
21.1400 7.0301 0.3904
21.1600 7.0366 0.3810
21.1800 7.0432 0.3883
21.2000 7.0499 0.3901
21.2200 7.0566 0.3772
21.2400 7.0633 0.3882
21.2600 7.0700 0.3815
21.2800 7.0766 0.3722
21.3000 7.0833 0.3856
21.3200 7.0900 0.3798
21.3400 7.0966 0.3728
21.3600 7.1032 0.3823
21.3800 7.1099 0.3727
21.4000 7.1166 0.3750
21.4200 7.1233 0.3764
21.4400 7.1300 0.3742
21.4600 7.1367 0.3717
21.4800 7.1434 0.3777
21.5000 7.1500 0.3682
21.5200 7.1566 0.3689
21.5400 7.1633 0.3750
21.5600 7.1699 0.3700
21.5800 7.1766 0.3649
21.6000 7.1833 0.3714
21.6200 7.1900 0.3630
21.6400 7.1967 0.3627
21.6600 7.2034 0.3703
21.6800 7.2101 0.3663
21.7000 7.2167 0.3560
21.7200 7.2232 0.3675
21.7400 7.2299 0.3632
21.7600 7.2366 0.3580
21.7800 7.2433 0.3568
21.8000 7.2500 0.3565
21.8200 7.2567 0.3606
21.8400 7.2633 0.3525
21.8600 7.2700 0.3574
21.8800 7.2766 0.3570
21.9000 7.2832 0.3498
21.9200 7.2899 0.3575
21.9400 7.2966 0.3554
21.9600 7.3033 0.3488
21.9800 7.3100 0.3529
22.0000 7.3167 0.3485
22.0200 7.3233 0.3455
22.0400 7.3300 0.3470
22.0600 7.3367 0.3521
22.0800 7.3433 0.3429
22.1000 7.3499 0.3482
22.1200 7.3566 0.3462
22.1400 7.3633 0.3439
22.1600 7.3700 0.3409
22.1800 7.3767 0.3455
22.2000 7.3834 0.3405
22.2200 7.3901 0.3386
22.2400 7.3967 0.3458
22.2600 7.4033 0.3404
22.2800 7.4099 0.3432
22.3000 7.4166 0.3439
22.3200 7.4234 0.3289
22.3400 7.4300 0.3412
22.3600 7.4367 0.3371
22.3800 7.4434 0.3306
22.4000 7.4500 0.3405
22.4200 7.4566 0.3285
22.4400 7.4633 0.3355
22.4600 7.4699 0.3409
22.4800 7.4766 0.3286
22.5000 7.4833 0.3297
22.5200 7.4900 0.3338
22.5400 7.4967 0.3268
22.5600 7.5033 0.3322
22.5800 7.5100 0.3277
22.6000 7.5167 0.3232
22.6200 7.5232 0.3326
22.6400 7.5299 0.3283
22.6600 7.5365 0.3198
22.6800 7.5433 0.3355
22.7000 7.5500 0.3189
22.7200 7.5567 0.3229
22.7400 7.5634 0.3299
22.7600 7.5700 0.3154
22.7800 7.5767 0.3175
22.8000 7.5833 0.3260
22.8200 7.5899 0.3179
22.8400 7.5966 0.3211
22.8600 7.6033 0.3159
22.8800 7.6100 0.3135
22.9000 7.6167 0.3164
22.9200 7.6234 0.3184
22.9400 7.6300 0.3095
22.9600 7.6367 0.3176
22.9800 7.6433 0.3150
23.0000 7.6499 0.3062
23.0200 7.6566 0.3154
23.0400 7.6633 0.3145
23.0600 7.6700 0.3057
23.0800 7.6767 0.3162
23.1000 7.6834 0.3087
23.1200 7.6901 0.2976
23.1400 7.6967 0.3130
23.1600 7.7033 0.3079
23.1800 7.7099 0.3003
23.2000 7.7166 0.3089
23.2200 7.7233 0.3059
23.2400 7.7300 0.2984
23.2600 7.7367 0.3091
23.2800 7.7434 0.3015
23.3000 7.7500 0.2969
23.3200 7.7567 0.3015
23.3400 7.7632 0.2984
23.3600 7.7699 0.2939
23.3800 7.7765 0.3031
23.4000 7.7833 0.2957
23.4200 7.7899 0.2895
23.4400 7.7966 0.2989
23.4600 7.8033 0.2970
23.4800 7.8100 0.2882
23.5000 7.8166 0.2930
23.5200 7.8233 0.2961
23.5400 7.8299 0.2914
23.5600 7.8366 0.2906
23.5800 7.8433 0.2945
23.6000 7.8500 0.2863
23.6200 7.8567 0.2900
23.6400 7.8634 0.2922
23.6600 7.8701 0.2805
23.6800 7.8767 0.2850
23.7000 7.8833 0.2898
23.7200 7.8899 0.2780
23.7400 7.8966 0.2836
23.7600 7.9033 0.2867
23.7800 7.9100 0.2761
23.8000 7.9167 0.2834
23.8200 7.9234 0.2875
23.8400 7.9301 0.2758
23.8600 7.9367 0.2775
23.8800 7.9433 0.2855
23.9000 7.9499 0.2677
23.9200 7.9566 0.2837
23.9400 7.9633 0.2801
23.9600 7.9700 0.2680
23.9800 7.9767 0.2803
24.0000 7.9833 0.2802
24.0200 7.9901 0.2674
24.0400 7.9967 0.2793
24.0600 8.0033 0.2743
24.0800 8.0099 0.2654
24.1000 8.0166 0.2776
24.1200 8.0233 0.2688
24.1400 8.0300 0.2624
24.1600 8.0366 0.2757
24.1800 8.0433 0.2655
24.2000 8.0500 0.2642
24.2200 8.0567 0.2739
24.2400 8.0633 0.2599
24.2600 8.0699 0.2657
24.2800 8.0766 0.2697
24.3000 8.0833 0.2598
24.3200 8.0900 0.2580
24.3400 8.0967 0.2651
24.3600 8.1034 0.2599
24.3800 8.1100 0.2623
24.4000 8.1167 0.2614
24.4200 8.1233 0.2559
24.4400 8.1299 0.2571
24.4600 8.1366 0.2561
24.4800 8.1433 0.2516
24.5000 8.1500 0.2558
24.5200 8.1567 0.2513
24.5400 8.1634 0.2550
24.5600 8.1700 0.2516
24.5800 8.1767 0.2521
24.6000 8.1833 0.2539
24.6200 8.1899 0.2532
24.6400 8.1966 0.2434
24.6600 8.2033 0.2543
24.6800 8.2100 0.2507
24.7000 8.2166 0.2440
24.7200 8.2233 0.2553
24.7400 8.2300 0.2372
24.7600 8.2367 0.2426
24.7800 8.2433 0.2552
24.8000 8.2499 0.2388
24.8200 8.2566 0.2418
24.8400 8.2633 0.2489
24.8600 8.2700 0.2349
24.8800 8.2767 0.2417
24.9000 8.2833 0.2458
24.9200 8.2900 0.2292
24.9400 8.2967 0.2346
24.9600 8.3033 0.2426
24.9800 8.3099 0.2274
25.0000 8.3166 0.2394
25.0200 8.3233 0.2364
25.0400 8.3300 0.2272
25.0600 8.3367 0.2334
25.0800 8.3433 0.2337
25.1000 8.3500 0.2249
25.1200 8.3567 0.2338
25.1400 8.3633 0.2283
25.1600 8.3699 0.2243
25.1800 8.3766 0.2323
25.2000 8.3833 0.2253
25.2200 8.3900 0.2264
25.2400 8.3967 0.2278
25.2600 8.4034 0.2176
25.2800 8.4101 0.2268
25.3000 8.4167 0.2274
25.3200 8.4233 0.2184
25.3400 8.4299 0.2260
25.3600 8.4366 0.2242
25.3800 8.4433 0.2195
25.4000 8.4500 0.2220
25.4200 8.4567 0.2220
25.4400 8.4634 0.2188
25.4600 8.4700 0.2166
25.4800 8.4767 0.2159
25.5000 8.4833 0.2162
25.5200 8.4899 0.2163
25.5400 8.4965 0.2152
25.5600 8.5032 0.2161
25.5800 8.5099 0.2140
25.6000 8.5166 0.2077
25.6200 8.5233 0.2175
25.6400 8.5300 0.2083
25.6600 8.5367 0.2073
25.6800 8.5433 0.2125
25.7000 8.5499 0.2079
25.7200 8.5566 0.2075
25.7400 8.5633 0.2166
25.7600 8.5700 0.2077
25.7800 8.5767 0.2044
25.8000 8.5834 0.2083
25.8200 8.5901 0.2025
25.8400 8.5967 0.2000
25.8600 8.6033 0.2051
25.8800 8.6099 0.2030
25.9000 8.6166 0.1985
25.9200 8.6233 0.2065
25.9400 8.6300 0.2020
25.9600 8.6367 0.1965
25.9800 8.6434 0.2042
26.0000 8.6501 0.1958
26.0200 8.6567 0.1962
26.0400 8.6633 0.1991
26.0600 8.6699 0.1934
26.0800 8.6766 0.1967
26.1000 8.6833 0.1992
26.1200 8.6900 0.1913
26.1400 8.6966 0.1901
26.1600 8.7033 0.2043
26.1800 8.7100 0.1889
26.2000 8.7167 0.1876
26.2200 8.7233 0.1964
26.2400 8.7299 0.1838
26.2600 8.7365 0.1842
26.2800 8.7432 0.1959
26.3000 8.7499 0.1767
26.3200 8.7566 0.1888
26.3400 8.7633 0.1948
26.3600 8.7700 0.1763
26.3800 8.7767 0.1860
26.4000 8.7833 0.1866
26.4200 8.7899 0.1739
26.4400 8.7966 0.1858
26.4600 8.8033 0.1835
26.4800 8.8100 0.1733
26.5000 8.8167 0.1829
26.5200 8.8234 0.1804
26.5400 8.8300 0.1710
26.5600 8.8367 0.1820
26.5800 8.8434 0.1733
26.6000 8.8500 0.1690
26.6200 8.8566 0.1777
26.6400 8.8633 0.1710
26.6600 8.8700 0.1730
26.6800 8.8767 0.1692
26.7000 8.8834 0.1695
26.7200 8.8901 0.1696
26.7400 8.8967 0.1726
26.7600 8.9033 0.1655
26.7800 8.9099 0.1679
26.8000 8.9165 0.1669
26.8200 8.9232 0.1638
26.8400 8.9300 0.1617
26.8600 8.9367 0.1639
26.8800 8.9433 0.1625
26.9000 8.9500 0.1634
26.9200 8.9567 0.1588
26.9400 8.9633 0.1644
26.9600 8.9699 0.1663
26.9800 8.9765 0.1593
27.0000 8.9832 0.1573
27.0200 8.9900 0.1613
27.0400 8.9966 0.1589
27.0600 9.0033 0.1556
27.0800 9.0100 0.1524
27.1000 9.0167 0.1556
27.1200 9.0233 0.1540
27.1400 9.0299 0.1556
27.1600 9.0366 0.1517
27.1800 9.0432 0.1522
27.2000 9.0500 0.1523
27.2200 9.0567 0.1507
27.2400 9.0634 0.1481
27.2600 9.0701 0.1491
27.2800 9.0768 0.1515
27.3000 9.0834 0.1468
27.3200 9.0900 0.1492
27.3400 9.0966 0.1483
27.3600 9.1033 0.1510
27.3800 9.1100 0.1495
27.4000 9.1167 0.1468
27.4200 9.1234 0.1439
27.4400 9.1301 0.1446
27.4600 9.1367 0.1422
27.4800 9.1433 0.1421
27.5000 9.1499 0.1439
27.5200 9.1566 0.1446
27.5400 9.1633 0.1360
27.5600 9.1700 0.1476
27.5800 9.1767 0.1406
27.6000 9.1833 0.1384
27.6200 9.1900 0.1404
27.6400 9.1967 0.1303
27.6600 9.2033 0.1351
27.6800 9.2099 0.1443
27.7000 9.2165 0.1304
27.7200 9.2232 0.1308
27.7400 9.2299 0.1396
27.7600 9.2366 0.1284
27.7800 9.2433 0.1295
27.8000 9.2500 0.1440
27.8200 9.2567 0.1250
27.8400 9.2633 0.1217
27.8600 9.2699 0.1341
27.8800 9.2766 0.1220
27.9000 9.2832 0.1315
27.9200 9.2900 0.1309
27.9400 9.2967 0.1176
27.9600 9.3034 0.1254
27.9800 9.3101 0.1303
28.0000 9.3167 0.1179
28.0200 9.3234 0.1243
28.0400 9.3299 0.1237
28.0600 9.3366 0.1161
28.0800 9.3433 0.1213
28.1000 9.3500 0.1209
28.1200 9.3567 0.1119
28.1400 9.3634 0.1242
28.1600 9.3700 0.1168
28.1800 9.3767 0.1129
28.2000 9.3833 0.1178
28.2200 9.3899 0.1145
28.2400 9.3965 0.1105
28.2600 9.4032 0.1191
28.2800 9.4099 0.1098
28.3000 9.4166 0.1101
28.3200 9.4233 0.1169
28.3400 9.4300 0.1058
28.3600 9.4367 0.1056
28.3800 9.4433 0.1146
28.4000 9.4499 0.0991
28.4200 9.4565 0.1076
28.4400 9.4632 0.1138
28.4600 9.4699 0.0954
28.4800 9.4767 0.1076
28.5000 9.4833 0.1038
28.5200 9.4900 0.0981
28.5400 9.4967 0.1052
28.5600 9.5033 0.1002
28.5800 9.5099 0.0982
28.6000 9.5166 0.1037
28.6200 9.5233 0.0976
28.6400 9.5300 0.0943
28.6600 9.5367 0.0982
28.6800 9.5434 0.0977
28.7000 9.5500 0.0934
28.7200 9.5567 0.0987
28.7400 9.5634 0.0873
28.7600 9.5700 0.0990
28.7800 9.5766 0.0976
28.8000 9.5833 0.0865
28.8200 9.5900 0.0930
28.8400 9.5967 0.0912
28.8600 9.6034 0.0874
28.8800 9.6101 0.0939
28.9000 9.6168 0.0905
28.9200 9.6234 0.0848
28.9400 9.6300 0.0908
28.9600 9.6366 0.0931
28.9800 9.6432 0.0823
29.0000 9.6499 0.0896
29.0200 9.6566 0.0820
29.0400 9.6633 0.0809
29.0600 9.6700 0.0859
29.0800 9.6767 0.0837
29.1000 9.6833 0.0859
29.1200 9.6900 0.0799
29.1400 9.6966 0.0817
29.1600 9.7032 0.0804
29.1800 9.7099 0.0846
29.2000 9.7166 0.0794
29.2200 9.7233 0.0781
29.2400 9.7300 0.0793
29.2600 9.7367 0.0736
29.2800 9.7433 0.0741
29.3000 9.7500 0.0815
29.3200 9.7566 0.0737
29.3400 9.7633 0.0729
29.3600 9.7700 0.0700
29.3800 9.7767 0.0800
29.4000 9.7834 0.0702
29.4200 9.7901 0.0697
29.4400 9.7968 0.0696
29.4600 9.8034 0.0671
29.4800 9.8100 0.0692
29.5000 9.8166 0.0766
29.5200 9.8232 0.0670
29.5400 9.8300 0.0624
29.5600 9.8367 0.0683
29.5800 9.8434 0.0622
29.6000 9.8500 0.0647
29.6200 9.8567 0.0713
29.6400 9.8634 0.0610
29.6600 9.8700 0.0604
29.6800 9.8766 0.0677
29.7000 9.8833 0.0614
29.7200 9.8900 0.0588
29.7400 9.8967 0.0616
29.7600 9.9033 0.0558
29.7800 9.9100 0.0580
29.8000 9.9167 0.0620
29.8200 9.9233 0.0508
29.8400 9.9299 0.0596
29.8600 9.9365 0.0550
29.8800 9.9432 0.0504
29.9000 9.9499 0.0646
29.9200 9.9566 0.0515
29.9400 9.9633 0.0434
29.9600 9.9700 0.0615
29.9800 9.9767 0.0411
30.0000 9.9833 0.0456
30.0200 9.9899 0.0572
30.0400 9.9965 0.0460
30.0600 10.0032 0.0435
30.0800 10.0100 0.0554
30.1000 10.0167 0.0375
30.1200 10.0234 0.0408
30.1400 10.0300 0.0508
30.1600 10.0367 0.0323
30.1800 10.0434 0.0375
30.2000 10.0500 0.0520
30.2200 10.0566 0.0345
30.2400 10.0633 0.0366
30.2600 10.0700 0.0439
30.2800 10.0767 0.0319
30.3000 10.0834 0.0413
30.3200 10.0900 0.0378
30.3400 10.0967 0.0309
30.3600 10.1034 0.0370
30.3800 10.1100 0.0375
30.4000 10.1166 0.0295
30.4200 10.1232 0.0368
30.4400 10.1299 0.0273
30.4600 10.1366 0.0305
30.4800 10.1433 0.0351
30.5000 10.1500 0.0296
30.5200 10.1567 0.0331
30.5400 10.1633 0.0278
30.5600 10.1699 0.0250
30.5800 10.1765 0.0343
30.6000 10.1832 0.0282
30.6200 10.1899 0.0302
30.6400 10.1967 0.0272
30.6600 10.2033 0.0239
30.6800 10.2100 0.0211
30.7000 10.2167 0.0290
30.7200 10.2234 0.0205
30.7400 10.2300 0.0253
30.7600 10.2366 0.0187
30.7800 10.2433 0.0153
30.8000 10.2500 0.0271
30.8200 10.2567 0.0128
30.8400 10.2633 0.0181
30.8600 10.2700 0.0252
30.8800 10.2767 0.0107
30.9000 10.2834 0.0097
30.9200 10.2900 0.0239
30.9400 10.2966 0.0119
30.9600 10.3032 0.0146
30.9800 10.3099 0.0182
31.0000 10.3167 0.0095
31.0200 10.3234 0.0103
31.0400 10.3300 0.0189
31.0600 10.3367 0.0072
31.0800 10.3434 0.0116
31.1000 10.3499 0.0098
31.1200 10.3565 0.0074
31.1400 10.3632 0.0092
31.1600 10.3699 0.0075
31.1800 10.3766 0.0001
31.2000 10.3833 0.0051
31.2200 10.3900 0.0046
31.2400 10.3967 0.0059
31.2600 10.4034 0.0045
31.2800 10.4100 0.0027
31.3000 10.4166 -0.0037
31.3200 10.4232 0.0061
31.3400 10.4299 -0.0023
31.3600 10.4366 -0.0061
31.3800 10.4433 0.0044
31.4000 10.4500 -0.0068
31.4200 10.4567 -0.0060
31.4400 10.4634 0.0023
31.4600 10.4700 -0.0119
31.4800 10.4766 -0.0075
31.5000 10.4832 0.0013
31.5200 10.4899 -0.0124
31.5400 10.4966 -0.0100
31.5600 10.5034 -0.0051
31.5800 10.5101 -0.0145
31.6000 10.5167 -0.0126
31.6200 10.5234 -0.0062
31.6400 10.5300 -0.0163
31.6600 10.5366 -0.0104
31.6800 10.5433 -0.0150
31.7000 10.5500 -0.0165
31.7200 10.5567 -0.0114
31.7400 10.5634 -0.0221
31.7600 10.5700 -0.0220
31.7800 10.5767 -0.0108
31.8000 10.5834 -0.0218
31.8200 10.5900 -0.0207
31.8400 10.5966 -0.0153
31.8600 10.6032 -0.0225
31.8800 10.6099 -0.0251
31.9000 10.6166 -0.0191
31.9200 10.6233 -0.0293
31.9400 10.6300 -0.0261
31.9600 10.6367 -0.0212
31.9800 10.6434 -0.0308
32.0000 10.6500 -0.0255
32.0200 10.6566 -0.0181
32.0400 10.6632 -0.0300
32.0600 10.6699 -0.0333
32.0800 10.6766 -0.0238
32.1000 10.6833 -0.0376
32.1200 10.6900 -0.0310
32.1400 10.6967 -0.0282
32.1600 10.7033 -0.0399
32.1800 10.7100 -0.0295
32.2000 10.7166 -0.0294
32.2200 10.7233 -0.0382
32.2400 10.7299 -0.0295
32.2600 10.7367 -0.0353
32.2800 10.7434 -0.0407
32.3000 10.7500 -0.0341
32.3200 10.7567 -0.0380
32.3400 10.7634 -0.0441
32.3600 10.7701 -0.0333
32.3800 10.7766 -0.0450
32.4000 10.7833 -0.0407
32.4200 10.7899 -0.0351
32.4400 10.7966 -0.0510
32.4600 10.8033 -0.0453
32.4800 10.8100 -0.0396
32.5000 10.8167 -0.0495
32.5200 10.8234 -0.0470
32.5400 10.8300 -0.0496
32.5600 10.8366 -0.0531
32.5800 10.8432 -0.0434
32.6000 10.8499 -0.0470
32.6200 10.8566 -0.0515
32.6400 10.8633 -0.0492
32.6600 10.8700 -0.0563
32.6800 10.8767 -0.0559
32.7000 10.8834 -0.0540
32.7200 10.8900 -0.0552
32.7400 10.8966 -0.0530
32.7600 10.9032 -0.0593
32.7800 10.9099 -0.0573
32.8000 10.9166 -0.0557
32.8200 10.9233 -0.0588
32.8400 10.9300 -0.0623
32.8600 10.9367 -0.0577
32.8800 10.9434 -0.0658
32.9000 10.9500 -0.0625
32.9200 10.9566 -0.0634
32.9400 10.9632 -0.0632
32.9600 10.9699 -0.0619
32.9800 10.9766 -0.0667
33.0000 10.9833 -0.0662
33.0200 10.9900 -0.0626
33.0400 10.9967 -0.0707
33.0600 11.0034 -0.0681
33.0800 11.0100 -0.0703
33.1000 11.0166 -0.0725
33.1200 11.0233 -0.0699
33.1400 11.0299 -0.0677
33.1600 11.0366 -0.0745
33.1800 11.0434 -0.0691
33.2000 11.0500 -0.0709
33.2200 11.0567 -0.0783
33.2400 11.0634 -0.0722
33.2600 11.0700 -0.0778
33.2800 11.0766 -0.0801
33.3000 11.0832 -0.0725
33.3200 11.0899 -0.0806
33.3400 11.0966 -0.0805
33.3600 11.1033 -0.0702
33.3800 11.1100 -0.0835
33.4000 11.1167 -0.0798
33.4200 11.1234 -0.0769
33.4400 11.1300 -0.0857
33.4600 11.1366 -0.0810
33.4800 11.1432 -0.0774
33.5000 11.1499 -0.0878
33.5200 11.1566 -0.0818
33.5400 11.1633 -0.0856
33.5600 11.1700 -0.0865
33.5800 11.1767 -0.0824
33.6000 11.1834 -0.0834
33.6200 11.1900 -0.0940
33.6400 11.1966 -0.0869
33.6600 11.2032 -0.0861
33.6800 11.2099 -0.0949
33.7000 11.2167 -0.0894
33.7200 11.2234 -0.0895
33.7400 11.2301 -0.0935
33.7600 11.2367 -0.0904
33.7800 11.2434 -0.0927
33.8000 11.2500 -0.0937
33.8200 11.2566 -0.0941
33.8400 11.2632 -0.0952
33.8600 11.2699 -0.0957
33.8800 11.2766 -0.0951
33.9000 11.2833 -0.0974
33.9200 11.2900 -0.1015
33.9400 11.2967 -0.0961
33.9600 11.3034 -0.0980
33.9800 11.3100 -0.0976
34.0000 11.3166 -0.1041
34.0200 11.3232 -0.0985
34.0400 11.3299 -0.1072
34.0600 11.3366 -0.1034
34.0800 11.3433 -0.1025
34.1000 11.3500 -0.1098
34.1200 11.3567 -0.1003
34.1400 11.3634 -0.1033
34.1600 11.3700 -0.1135
34.1800 11.3766 -0.1014
34.2000 11.3832 -0.1030
34.2200 11.3898 -0.1111
34.2400 11.3966 -0.1080
34.2600 11.4033 -0.1088
34.2800 11.4100 -0.1150
34.3000 11.4167 -0.1082
34.3200 11.4233 -0.1110
34.3400 11.4300 -0.1147
34.3600 11.4366 -0.1083
34.3800 11.4432 -0.1157
34.4000 11.4499 -0.1187
34.4200 11.4566 -0.1113
34.4400 11.4633 -0.1174
34.4600 11.4700 -0.1242
34.4800 11.4767 -0.1130
34.5000 11.4834 -0.1181
34.5200 11.4901 -0.1234
34.5400 11.4967 -0.1133
34.5600 11.5033 -0.1175
34.5800 11.5099 -0.1229
34.6000 11.5166 -0.1172
34.6200 11.5233 -0.1249
34.6400 11.5300 -0.1223
34.6600 11.5367 -0.1219
34.6800 11.5434 -0.1261
34.7000 11.5500 -0.1278
34.7200 11.5566 -0.1184
34.7400 11.5632 -0.1284
34.7600 11.5699 -0.1261
34.7800 11.5766 -0.1225
34.8000 11.5833 -0.1289
34.8200 11.5900 -0.1307
34.8400 11.5966 -0.1282
34.8600 11.6033 -0.1327
34.8800 11.6100 -0.1306
34.9000 11.6166 -0.1352
34.9200 11.6232 -0.1313
34.9400 11.6299 -0.1330
34.9600 11.6366 -0.1351
34.9800 11.6433 -0.1299
35.0000 11.6500 -0.1377
35.0200 11.6567 -0.1347
35.0400 11.6634 -0.1331
35.0600 11.6701 -0.1444
35.0800 11.6767 -0.1393
35.1000 11.6833 -0.1279
35.1200 11.6899 -0.1418
35.1400 11.6966 -0.1444
35.1600 11.7033 -0.1353
35.1800 11.7100 -0.1442
35.2000 11.7167 -0.1449
35.2200 11.7234 -0.1352
35.2400 11.7300 -0.1527
35.2600 11.7367 -0.1448
35.2800 11.7433 -0.1399
35.3000 11.7499 -0.1533
35.3200 11.7566 -0.1446
35.3400 11.7633 -0.1396
35.3600 11.7700 -0.1629
35.3800 11.7767 -0.1469
35.4000 11.7834 -0.1407
35.4200 11.7901 -0.1616
35.4400 11.7967 -0.1492
35.4600 11.8033 -0.1462
35.4800 11.8099 -0.1602
35.5000 11.8166 -0.1425
35.5200 11.8233 -0.1511
35.5400 11.8300 -0.1648
35.5600 11.8367 -0.1466
35.5800 11.8434 -0.1560
35.6000 11.8500 -0.1650
35.6200 11.8567 -0.1455
35.6400 11.8632 -0.1563
35.6600 11.8699 -0.1644
35.6800 11.8766 -0.1494
35.7000 11.8833 -0.1609
35.7200 11.8900 -0.1643
35.7400 11.8967 -0.1560
35.7600 11.9033 -0.1658
35.7800 11.9100 -0.1675
35.8000 11.9166 -0.1513
35.8200 11.9232 -0.1625
35.8400 11.9299 -0.1679
35.8600 11.9366 -0.1624
35.8800 11.9433 -0.1634
35.9000 11.9500 -0.1671
35.9200 11.9567 -0.1605
35.9400 11.9634 -0.1708
35.9600 11.9700 -0.1709
35.9800 11.9767 -0.1707
36.0000 11.9833 -0.1730
36.0200 11.9899 -0.1691
36.0400 11.9966 -0.1656
36.0600 12.0033 -0.1762
36.0800 12.0100 -0.1725
36.1000 12.0167 -0.1715
36.1200 12.0234 -0.1769
36.1400 12.0301 -0.1749
36.1600 12.0367 -0.1745
36.1800 12.0432 -0.1775
36.2000 12.0499 -0.1761
36.2200 12.0566 -0.1739
36.2400 12.0633 -0.1808
36.2600 12.0700 -0.1740
36.2800 12.0767 -0.1743
36.3000 12.0834 -0.1860
36.3200 12.0900 -0.1821
36.3400 12.0967 -0.1757
36.3600 12.1033 -0.1900
36.3800 12.1099 -0.1797
36.4000 12.1166 -0.1787
36.4200 12.1233 -0.1922
36.4400 12.1300 -0.1814
36.4600 12.1366 -0.1812
36.4800 12.1433 -0.1925
36.5000 12.1500 -0.1818
36.5200 12.1567 -0.1858
36.5400 12.1633 -0.1948
36.5600 12.1699 -0.1898
36.5800 12.1766 -0.1914
36.6000 12.1833 -0.1939
36.6200 12.1900 -0.1886
36.6400 12.1967 -0.1959
36.6600 12.2034 -0.1939
36.6800 12.2101 -0.1910
36.7000 12.2167 -0.2013
36.7200 12.2233 -0.1951
36.7400 12.2299 -0.1950
36.7600 12.2366 -0.2019
36.7800 12.2433 -0.2027
36.8000 12.2500 -0.2036
36.8200 12.2567 -0.1990
36.8400 12.2634 -0.2008
36.8600 12.2700 -0.2050
36.8800 12.2766 -0.2008
36.9000 12.2832 -0.2084
36.9200 12.2899 -0.2045
36.9400 12.2966 -0.2064
36.9600 12.3033 -0.2073
36.9800 12.3100 -0.2092
37.0000 12.3167 -0.2025
37.0200 12.3233 -0.2130
37.0400 12.3300 -0.2089
37.0600 12.3366 -0.2064
37.0800 12.3432 -0.2125
37.1000 12.3499 -0.2098
37.1200 12.3566 -0.2101
37.1400 12.3633 -0.2225
37.1600 12.3700 -0.2134
37.1800 12.3767 -0.2096
37.2000 12.3834 -0.2182
37.2200 12.3901 -0.2167
37.2400 12.3967 -0.2128
37.2600 12.4033 -0.2224
37.2800 12.4099 -0.2153
37.3000 12.4166 -0.2122
37.3200 12.4233 -0.2234
37.3400 12.4300 -0.2257
37.3600 12.4367 -0.2182
37.3800 12.4434 -0.2187
37.4000 12.4501 -0.2235
37.4200 12.4567 -0.2191
37.4400 12.4633 -0.2323
37.4600 12.4699 -0.2215
37.4800 12.4766 -0.2216
37.5000 12.4833 -0.2333
37.5200 12.4900 -0.2244
37.5400 12.4967 -0.2273
37.5600 12.5034 -0.2322
37.5800 12.5101 -0.2238
37.6000 12.5167 -0.2309
37.6200 12.5233 -0.2294
37.6400 12.5299 -0.2278
37.6600 12.5366 -0.2316
37.6800 12.5433 -0.2318
37.7000 12.5500 -0.2264
37.7200 12.5567 -0.2378
37.7400 12.5634 -0.2347
37.7600 12.5700 -0.2306
37.7800 12.5767 -0.2378
37.8000 12.5832 -0.2328
37.8200 12.5898 -0.2303
37.8400 12.5965 -0.2403
37.8600 12.6032 -0.2325
37.8800 12.6099 -0.2363
37.9000 12.6166 -0.2409
37.9200 12.6233 -0.2342
37.9400 12.6300 -0.2443
37.9600 12.6367 -0.2412
37.9800 12.6433 -0.2360
38.0000 12.6499 -0.2410
38.0200 12.6566 -0.2417
38.0400 12.6633 -0.2443
38.0600 12.6700 -0.2400
38.0800 12.6767 -0.2411
38.1000 12.6834 -0.2480
38.1200 12.6901 -0.2416
38.1400 12.6967 -0.2474
38.1600 12.7033 -0.2522
38.1800 12.7099 -0.2461
38.2000 12.7166 -0.2407
38.2200 12.7233 -0.2560
38.2400 12.7300 -0.2466
38.2600 12.7367 -0.2456
38.2800 12.7434 -0.2558
38.3000 12.7501 -0.2504
38.3200 12.7567 -0.2498
38.3400 12.7633 -0.2611
38.3600 12.7699 -0.2484
38.3800 12.7766 -0.2536
38.4000 12.7833 -0.2613
38.4200 12.7900 -0.2536
38.4400 12.7967 -0.2568
38.4600 12.8033 -0.2624
38.4800 12.8100 -0.2531
38.5000 12.8167 -0.2615
38.5200 12.8233 -0.2649
38.5400 12.8299 -0.2550
38.5600 12.8366 -0.2618
38.5800 12.8433 -0.2649
38.6000 12.8500 -0.2593
38.6200 12.8566 -0.2649
38.6400 12.8633 -0.2625
38.6600 12.8700 -0.2635
38.6800 12.8766 -0.2665
38.7000 12.8833 -0.2669
38.7200 12.8899 -0.2690
38.7400 12.8966 -0.2672
38.7600 12.9033 -0.2723
38.7800 12.9100 -0.2694
38.8000 12.9167 -0.2707
38.8200 12.9234 -0.2700
38.8400 12.9301 -0.2749
38.8600 12.9367 -0.2738
38.8800 12.9433 -0.2742
38.9000 12.9499 -0.2733
38.9200 12.9566 -0.2733
38.9400 12.9633 -0.2764
38.9600 12.9701 -0.2784
38.9800 12.9767 -0.2776
39.0000 12.9834 -0.2813
39.0200 12.9900 -0.2807
39.0400 12.9967 -0.2834
39.0600 13.0033 -0.2786
39.0800 13.0099 -0.2824
39.1000 13.0166 -0.2802
39.1200 13.0233 -0.2860
39.1400 13.0300 -0.2841
39.1600 13.0366 -0.2809
39.1800 13.0433 -0.2890
39.2000 13.0500 -0.2839
39.2200 13.0567 -0.2881
39.2400 13.0633 -0.2916
39.2600 13.0699 -0.2845
39.2800 13.0765 -0.2867
39.3000 13.0833 -0.2948
39.3200 13.0900 -0.2905
39.3400 13.0967 -0.2913
39.3600 13.1033 -0.2915
39.3800 13.1100 -0.2969
39.4000 13.1167 -0.2936
39.4200 13.1233 -0.2960
39.4400 13.1299 -0.2928
39.4600 13.1366 -0.2993
39.4800 13.1433 -0.2977
39.5000 13.1500 -0.2921
39.5200 13.1567 -0.3000
39.5400 13.1633 -0.2983
39.5600 13.1700 -0.2984
39.5800 13.1767 -0.3028
39.6000 13.1833 -0.3012
39.6200 13.1899 -0.3019
39.6400 13.1966 -0.3030
39.6600 13.2033 -0.3058
39.6800 13.2100 -0.2995
39.7000 13.2167 -0.3073
39.7200 13.2234 -0.3031
39.7400 13.2300 -0.3044
39.7600 13.2367 -0.3073
39.7800 13.2433 -0.3084
39.8000 13.2499 -0.3106
39.8200 13.2566 -0.3053
39.8400 13.2633 -0.3113
39.8600 13.2700 -0.3098
39.8800 13.2767 -0.3109
39.9000 13.2834 -0.3111
39.9200 13.2901 -0.3089
39.9400 13.2967 -0.3139
39.9600 13.3033 -0.3181
39.9800 13.3099 -0.3104
40.0000 13.3166 -0.3136
40.0200 13.3232 -0.3208
40.0400 13.3299 -0.3150
40.0600 13.3366 -0.3162
40.0800 13.3433 -0.3180
40.1000 13.3500 -0.3107
40.1200 13.3566 -0.3231
40.1400 13.3633 -0.3186
40.1600 13.3699 -0.3124
40.1800 13.3766 -0.3226
40.2000 13.3833 -0.3243
40.2200 13.3900 -0.3137
40.2400 13.3967 -0.3220
40.2600 13.4034 -0.3237
40.2800 13.4101 -0.3180
40.3000 13.4168 -0.3231
40.3200 13.4234 -0.3204
40.3400 13.4300 -0.3240
40.3600 13.4366 -0.3224
40.3800 13.4433 -0.3182
40.4000 13.4500 -0.3292
40.4200 13.4567 -0.3257
40.4400 13.4634 -0.3224
40.4600 13.4701 -0.3220
40.4800 13.4767 -0.3279
40.5000 13.4833 -0.3273
40.5200 13.4899 -0.3232
40.5400 13.4965 -0.3280
40.5600 13.5032 -0.3263
40.5800 13.5100 -0.3276
40.6000 13.5166 -0.3300
40.6200 13.5233 -0.3311
40.6400 13.5300 -0.3305
40.6600 13.5367 -0.3326
40.6800 13.5433 -0.3252
40.7000 13.5499 -0.3290
40.7200 13.5565 -0.3385
40.7400 13.5632 -0.3289
40.7600 13.5699 -0.3312
40.7800 13.5766 -0.3382
40.8000 13.5833 -0.3305
40.8200 13.5900 -0.3402
40.8400 13.5967 -0.3384
40.8600 13.6033 -0.3335
40.8800 13.6099 -0.3367
40.9000 13.6166 -0.3351
40.9200 13.6233 -0.3376
40.9400 13.6300 -0.3446
40.9600 13.6367 -0.3378
40.9800 13.6434 -0.3437
41.0000 13.6500 -0.3454
41.0200 13.6567 -0.3400
41.0400 13.6633 -0.3482
41.0600 13.6700 -0.3461
41.0800 13.6766 -0.3367
41.1000 13.6833 -0.3491
41.1200 13.6900 -0.3482
41.1400 13.6967 -0.3403
41.1600 13.7034 -0.3495
41.1800 13.7101 -0.3476
41.2000 13.7168 -0.3528
41.2200 13.7234 -0.3514
41.2400 13.7299 -0.3471
41.2600 13.7366 -0.3511
41.2800 13.7432 -0.3548
41.3000 13.7500 -0.3494
41.3200 13.7567 -0.3585
41.3400 13.7633 -0.3509
41.3600 13.7700 -0.3534
41.3800 13.7767 -0.3608
41.4000 13.7833 -0.3598
41.4200 13.7899 -0.3565
41.4400 13.7965 -0.3620
41.4600 13.8032 -0.3539
41.4800 13.8099 -0.3606
41.5000 13.8166 -0.3683
41.5200 13.8233 -0.3585
41.5400 13.8300 -0.3625
41.5600 13.8367 -0.3692
41.5800 13.8433 -0.3573
41.6000 13.8500 -0.3676
41.6200 13.8566 -0.3711
41.6400 13.8633 -0.3617
41.6600 13.8700 -0.3672
41.6800 13.8767 -0.3716
41.7000 13.8833 -0.3661
41.7200 13.8900 -0.3729
41.7400 13.8967 -0.3767
41.7600 13.9034 -0.3649
41.7800 13.9100 -0.3726
41.8000 13.9166 -0.3757
41.8200 13.9233 -0.3715
41.8400 13.9300 -0.3758
41.8600 13.9367 -0.3820
41.8800 13.9434 -0.3723
41.9000 13.9500 -0.3765
41.9200 13.9567 -0.3789
41.9400 13.9633 -0.3728
41.9600 13.9700 -0.3762
41.9800 13.9766 -0.3829
42.0000 13.9833 -0.3786
42.0200 13.9900 -0.3837
42.0400 13.9967 -0.3853
42.0600 14.0033 -0.3843
42.0800 14.0100 -0.3816
42.1000 14.0167 -0.3919
42.1200 14.0233 -0.3841
42.1400 14.0299 -0.3840
42.1600 14.0365 -0.3913
42.1800 14.0432 -0.3818
42.2000 14.0499 -0.3870
42.2200 14.0566 -0.3962
42.2400 14.0633 -0.3865
42.2600 14.0700 -0.3893
42.2800 14.0767 -0.3968
42.3000 14.0833 -0.3822
42.3200 14.0899 -0.3980
42.3400 14.0966 -0.3977
42.3600 14.1032 -0.3841
42.3800 14.1100 -0.3973
42.4000 14.1167 -0.4050
42.4200 14.1234 -0.3899
42.4400 14.1301 -0.3988
42.4600 14.1367 -0.4060
42.4800 14.1434 -0.3947
42.5000 14.1500 -0.4006
42.5200 14.1566 -0.4034
42.5400 14.1633 -0.3956
42.5600 14.1700 -0.4050
42.5800 14.1767 -0.3969
42.6000 14.1834 -0.3995
42.6200 14.1900 -0.4087
42.6400 14.1967 -0.4000
42.6600 14.2033 -0.4047
42.6800 14.2099 -0.4045
42.7000 14.2165 -0.4017
42.7200 14.2232 -0.4100
42.7400 14.2299 -0.4050
42.7600 14.2367 -0.4070
42.7800 14.2433 -0.4118
42.8000 14.2500 -0.4063
42.8200 14.2567 -0.4114
42.8400 14.2634 -0.4152
42.8600 14.2699 -0.4079
42.8800 14.2765 -0.4144
42.9000 14.2832 -0.4119
42.9200 14.2899 -0.4103
42.9400 14.2966 -0.4246
42.9600 14.3033 -0.4059
42.9800 14.3100 -0.4124
43.0000 14.3167 -0.4253
43.0200 14.3233 -0.4125
43.0400 14.3300 -0.4162
43.0600 14.3366 -0.4210
43.0800 14.3433 -0.4104
43.1000 14.3500 -0.4203
43.1200 14.3567 -0.4206
43.1400 14.3634 -0.4195
43.1600 14.3700 -0.4215
43.1800 14.3767 -0.4249
43.2000 14.3834 -0.4161
43.2200 14.3900 -0.4273
43.2400 14.3966 -0.4219
43.2600 14.4032 -0.4228
43.2800 14.4100 -0.4212
43.3000 14.4167 -0.4237
43.3200 14.4234 -0.4308
43.3400 14.4301 -0.4272
43.3600 14.4367 -0.4285
43.3800 14.4434 -0.4280
43.4000 14.4500 -0.4245
43.4200 14.4566 -0.4337
43.4400 14.4632 -0.4278
43.4600 14.4699 -0.4275
43.4800 14.4766 -0.4334
43.5000 14.4833 -0.4295
43.5200 14.4900 -0.4307
43.5400 14.4967 -0.4362
43.5600 14.5033 -0.4367
43.5800 14.5100 -0.4285
43.6000 14.5166 -0.4384
43.6200 14.5232 -0.4302
43.6400 14.5299 -0.4346
43.6600 14.5366 -0.4402
43.6800 14.5433 -0.4362
43.7000 14.5500 -0.4348
43.7200 14.5567 -0.4437
43.7400 14.5633 -0.4378
43.7600 14.5700 -0.4407
43.7800 14.5766 -0.4443
43.8000 14.5833 -0.4422
43.8200 14.5899 -0.4409
43.8400 14.5966 -0.4504
43.8600 14.6033 -0.4395
43.8800 14.6100 -0.4453
43.9000 14.6167 -0.4496
43.9200 14.6234 -0.4432
43.9400 14.6300 -0.4496
43.9600 14.6366 -0.4508
43.9800 14.6432 -0.4480
44.0000 14.6500 -0.4475
44.0200 14.6567 -0.4578
44.0400 14.6634 -0.4483
44.0600 14.6700 -0.4527
44.0800 14.6767 -0.4606
44.1000 14.6834 -0.4477
44.1200 14.6900 -0.4544
44.1400 14.6966 -0.4564
44.1600 14.7032 -0.4480
44.1800 14.7099 -0.4658
44.2000 14.7166 -0.4594
44.2200 14.7233 -0.4547
44.2400 14.7300 -0.4624
44.2600 14.7367 -0.4608
44.2800 14.7433 -0.4549
44.3000 14.7499 -0.4763
44.3200 14.7565 -0.4577
44.3400 14.7632 -0.4510
44.3600 14.7699 -0.4752
44.3800 14.7766 -0.4622
44.4000 14.7833 -0.4617
44.4200 14.7900 -0.4795
44.4400 14.7966 -0.4605
44.4600 14.8033 -0.4687
44.4800 14.8099 -0.4752
44.5000 14.8165 -0.4630
44.5200 14.8232 -0.4716
44.5400 14.8299 -0.4766
44.5600 14.8367 -0.4662
44.5800 14.8434 -0.4786
44.6000 14.8500 -0.4784
44.6200 14.8567 -0.4655
44.6400 14.8634 -0.4885
44.6600 14.8700 -0.4789
44.6800 14.8767 -0.4675
44.7000 14.8833 -0.4896
44.7200 14.8900 -0.4808
44.7400 14.8967 -0.4681
44.7600 14.9034 -0.4903
44.7800 14.9100 -0.4822
44.8000 14.9167 -0.4798
44.8200 14.9234 -0.4942
44.8400 14.9300 -0.4759
44.8600 14.9366 -0.4854
44.8800 14.9432 -0.5010
44.9000 14.9499 -0.4684
44.9200 14.9566 -0.4833
44.9400 14.9633 -0.5002
44.9600 14.9700 -0.4865
44.9800 14.9767 -0.4850
45.0000 14.9833 -0.4982
45.0200 14.9900 -0.4922
45.0400 14.9966 -0.4891
45.0600 15.0032 -0.4939
45.0800 15.0099 -0.4922
45.1000 15.0166 -0.4956
45.1200 15.0233 -0.4996
45.1400 15.0300 -0.4946
45.1600 15.0367 -0.4960
45.1800 15.0434 -0.5006
45.2000 15.0500 -0.5065
45.2200 15.0566 -0.4941
45.2400 15.0633 -0.5024
45.2600 15.0700 -0.5123
45.2800 15.0767 -0.4893
45.3000 15.0833 -0.5015
45.3200 15.0900 -0.5149
45.3400 15.0967 -0.5021
45.3600 15.1034 -0.5055
45.3800 15.1100 -0.5085
45.4000 15.1166 -0.5007
45.4200 15.1232 -0.5185
45.4400 15.1299 -0.5095
45.4600 15.1367 -0.5044
45.4800 15.1434 -0.5163
45.5000 15.1500 -0.5130
45.5200 15.1567 -0.5010
45.5400 15.1634 -0.5158
45.5600 15.1700 -0.5191
45.5800 15.1766 -0.5069
45.6000 15.1832 -0.5141
45.6200 15.1899 -0.5196
45.6400 15.1967 -0.5116
45.6600 15.2034 -0.5235
45.6800 15.2100 -0.5183
45.7000 15.2167 -0.5085
45.7200 15.2234 -0.5205
45.7400 15.2300 -0.5204
45.7600 15.2366 -0.5156
45.7800 15.2432 -0.5262
45.8000 15.2499 -0.5222
45.8200 15.2566 -0.5167
45.8400 15.2633 -0.5304
45.8600 15.2700 -0.5283
45.8800 15.2767 -0.5212
45.9000 15.2833 -0.5282
45.9200 15.2900 -0.5273
45.9400 15.2966 -0.5232
45.9600 15.3032 -0.5288
45.9800 15.3099 -0.5269
46.0000 15.3167 -0.5288
46.0200 15.3234 -0.5335
46.0400 15.3301 -0.5350
46.0600 15.3367 -0.5317
46.0800 15.3434 -0.5410
46.1000 15.3500 -0.5324
46.1200 15.3566 -0.5265
46.1400 15.3633 -0.5413
46.1600 15.3700 -0.5408
46.1800 15.3767 -0.5336
46.2000 15.3834 -0.5486
46.2200 15.3900 -0.5382
46.2400 15.3967 -0.5337
46.2600 15.4034 -0.5514
46.2800 15.4100 -0.5424
46.3000 15.4166 -0.5357
46.3200 15.4232 -0.5496
46.3400 15.4299 -0.5387
46.3600 15.4366 -0.5443
46.3800 15.4433 -0.5559
46.4000 15.4500 -0.5399
46.4200 15.4567 -0.5496
46.4400 15.4634 -0.5550
46.4600 15.4700 -0.5432
46.4800 15.4766 -0.5475
46.5000 15.4832 -0.5527
46.5200 15.4899 -0.5451
46.5400 15.4966 -0.5522
46.5600 15.5033 -0.5545
46.5800 15.5100 -0.5544
46.6000 15.5166 -0.5557
46.6200 15.5233 -0.5572
46.6400 15.5300 -0.5570
46.6600 15.5366 -0.5586
46.6800 15.5432 -0.5567
46.7000 15.5499 -0.5568
46.7200 15.5566 -0.5604
46.7400 15.5633 -0.5651
46.7600 15.5700 -0.5594
46.7800 15.5767 -0.5573
46.8000 15.5834 -0.5693
46.8200 15.5901 -0.5681
46.8400 15.5967 -0.5594
46.8600 15.6033 -0.5686
46.8800 15.6099 -0.5656
46.9000 15.6166 -0.5623
46.9200 15.6234 -0.5715
46.9400 15.6300 -0.5688
46.9600 15.6367 -0.5719
46.9800 15.6434 -0.5737
47.0000 15.6500 -0.5668
47.0200 15.6566 -0.5720
47.0400 15.6632 -0.5771
47.0600 15.6699 -0.5691
47.0800 15.6766 -0.5724
47.1000 15.6833 -0.5772
47.1200 15.6900 -0.5725
47.1400 15.6967 -0.5750
47.1600 15.7034 -0.5790
47.1800 15.7100 -0.5797
47.2000 15.7166 -0.5807
47.2200 15.7232 -0.5754
47.2400 15.7299 -0.5808
47.2600 15.7366 -0.5810
47.2800 15.7433 -0.5826
47.3000 15.7500 -0.5810
47.3200 15.7567 -0.5789
47.3400 15.7634 -0.5856
47.3600 15.7700 -0.5853
47.3800 15.7766 -0.5806
47.4000 15.7833 -0.5918
47.4200 15.7899 -0.5870
47.4400 15.7966 -0.5834
47.4600 15.8033 -0.5933
47.4800 15.8100 -0.5863
47.5000 15.8167 -0.5890
47.5200 15.8234 -0.5971
47.5400 15.8300 -0.5871
47.5600 15.8366 -0.5871
47.5800 15.8432 -0.5973
47.6000 15.8499 -0.5954
47.6200 15.8567 -0.5868
47.6400 15.8634 -0.6000
47.6600 15.8701 -0.5939
47.6800 15.8767 -0.5903
47.7000 15.8834 -0.6005
47.7200 15.8900 -0.5956
47.7400 15.8966 -0.6017
47.7600 15.9032 -0.5963
47.7800 15.9099 -0.5991
47.8000 15.9166 -0.6007
47.8200 15.9233 -0.6059
47.8400 15.9300 -0.5970
47.8600 15.9367 -0.6012
47.8800 15.9434 -0.6060
47.9000 15.9500 -0.6097
47.9200 15.9566 -0.6014
47.9400 15.9632 -0.6047
47.9600 15.9699 -0.6032
47.9800 15.9766 -0.6027
48.0000 15.9833 -0.6086
48.0200 15.9900 -0.6121
48.0400 15.9967 -0.6026
48.0600 16.0034 -0.6144
48.0800 16.0100 -0.6096
48.1000 16.0166 -0.6052
48.1200 16.0233 -0.6189
48.1400 16.0299 -0.6091
48.1600 16.0367 -0.6091
48.1800 16.0434 -0.6147
48.2000 16.0501 -0.6150
48.2200 16.0567 -0.6113
48.2400 16.0634 -0.6150
48.2600 16.0700 -0.6228
48.2800 16.0766 -0.6133
48.3000 16.0833 -0.6201
48.3200 16.0899 -0.6197
48.3400 16.0966 -0.6186
48.3600 16.1033 -0.6220
48.3800 16.1100 -0.6162
48.4000 16.1167 -0.6194
48.4200 16.1234 -0.6171
48.4400 16.1301 -0.6281
48.4600 16.1367 -0.6202
48.4800 16.1432 -0.6210
48.5000 16.1499 -0.6258
48.5200 16.1566 -0.6240
48.5400 16.1633 -0.6226
48.5600 16.1700 -0.6337
48.5800 16.1767 -0.6261
48.6000 16.1834 -0.6206
48.6200 16.1900 -0.6341
48.6400 16.1966 -0.6330
48.6600 16.2032 -0.6229
48.6800 16.2099 -0.6360
48.7000 16.2166 -0.6311
48.7200 16.2233 -0.6275
48.7400 16.2300 -0.6400
48.7600 16.2366 -0.6364
48.7800 16.2433 -0.6319
48.8000 16.2500 -0.6423
48.8200 16.2566 -0.6326
48.8400 16.2633 -0.6355
48.8600 16.2699 -0.6486
48.8800 16.2766 -0.6378
48.9000 16.2833 -0.6347
48.9200 16.2900 -0.6475
48.9400 16.2967 -0.6416
48.9600 16.3034 -0.6380
48.9800 16.3101 -0.6487
49.0000 16.3167 -0.6385
49.0200 16.3233 -0.6451
49.0400 16.3299 -0.6466
49.0600 16.3366 -0.6425
49.0800 16.3433 -0.6513
49.1000 16.3500 -0.6488
49.1200 16.3567 -0.6446
49.1400 16.3634 -0.6541
49.1600 16.3700 -0.6498
49.1800 16.3766 -0.6522
49.2000 16.3832 -0.6522
49.2200 16.3899 -0.6499
49.2400 16.3966 -0.6546
49.2600 16.4033 -0.6625
49.2800 16.4100 -0.6534
49.3000 16.4166 -0.6568
49.3200 16.4233 -0.6573
49.3400 16.4300 -0.6527
49.3600 16.4366 -0.6649
49.3800 16.4432 -0.6590
49.4000 16.4499 -0.6532
49.4200 16.4566 -0.6672
49.4400 16.4633 -0.6593
49.4600 16.4700 -0.6581
49.4800 16.4767 -0.6722
49.5000 16.4834 -0.6624
49.5200 16.4901 -0.6645
49.5400 16.4967 -0.6745
49.5600 16.5033 -0.6577
49.5800 16.5099 -0.6646
49.6000 16.5166 -0.6756
49.6200 16.5233 -0.6605
49.6400 16.5300 -0.6745
49.6600 16.5367 -0.6752
49.6800 16.5434 -0.6651
49.7000 16.5500 -0.6756
49.7200 16.5567 -0.6780
49.7400 16.5633 -0.6664
49.7600 16.5699 -0.6736
49.7800 16.5766 -0.6731
49.8000 16.5833 -0.6703
49.8200 16.5900 -0.6815
49.8400 16.5967 -0.6794
49.8600 16.6034 -0.6703
49.8800 16.6101 -0.6813
49.9000 16.6167 -0.6805
49.9200 16.6233 -0.6815
49.9400 16.6299 -0.6818
49.9600 16.6366 -0.6752
49.9800 16.6433 -0.6813
50.0000 16.6500 -0.6810
50.0200 16.6567 -0.6795
50.0400 16.6634 -0.6865
50.0600 16.6701 -0.6830
50.0800 16.6767 -0.6865
50.1000 16.6833 -0.6879
50.1200 16.6899 -0.6842
50.1400 16.6965 -0.6919
50.1600 16.7033 -0.6882
50.1800 16.7100 -0.6830
50.2000 16.7167 -0.6964
50.2200 16.7233 -0.6926
50.2400 16.7300 -0.6870
50.2600 16.7366 -0.7004
50.2800 16.7433 -0.6895
50.3000 16.7499 -0.6920
50.3200 16.7566 -0.7016
50.3400 16.7633 -0.6911
50.3600 16.7700 -0.6940
50.3800 16.7767 -0.7078
50.4000 16.7834 -0.6916
50.4200 16.7900 -0.6999
50.4400 16.7967 -0.7099
50.4600 16.8033 -0.6976
50.4800 16.8099 -0.6997
50.5000 16.8166 -0.7084
50.5200 16.8233 -0.6992
50.5400 16.8300 -0.7084
50.5600 16.8367 -0.7076
50.5800 16.8434 -0.7018
50.6000 16.8501 -0.7095
50.6200 16.8567 -0.7092
50.6400 16.8633 -0.7062
50.6600 16.8699 -0.7117
50.6800 16.8766 -0.7149
50.7000 16.8833 -0.7107
50.7200 16.8900 -0.7153
50.7400 16.8967 -0.7166
50.7600 16.9034 -0.7150
50.7800 16.9100 -0.7217
50.8000 16.9167 -0.7194
50.8200 16.9233 -0.7145
50.8400 16.9299 -0.7220
50.8600 16.9366 -0.7200
50.8800 16.9433 -0.7182
50.9000 16.9500 -0.7203
50.9200 16.9566 -0.7279
50.9400 16.9633 -0.7184
50.9600 16.9700 -0.7215
50.9800 16.9766 -0.7290
51.0000 16.9833 -0.7294
51.0200 16.9899 -0.7188
51.0400 16.9966 -0.7318
51.0600 17.0033 -0.7295
51.0800 17.0100 -0.7235
51.1000 17.0167 -0.7394
51.1200 17.0234 -0.7244
51.1400 17.0301 -0.7205
51.1600 17.0367 -0.7432
51.1800 17.0433 -0.7303
51.2000 17.0499 -0.7223
51.2200 17.0566 -0.7447
51.2400 17.0633 -0.7370
51.2600 17.0700 -0.7292
51.2800 17.0767 -0.7462
51.3000 17.0834 -0.7360
51.3200 17.0900 -0.7322
51.3400 17.0967 -0.7501
51.3600 17.1033 -0.7347
51.3800 17.1099 -0.7378
51.4000 17.1166 -0.7560
51.4200 17.1233 -0.7358
51.4400 17.1300 -0.7329
51.4600 17.1367 -0.7595
51.4800 17.1433 -0.7414
51.5000 17.1500 -0.7428
51.5200 17.1567 -0.7533
51.5400 17.1633 -0.7445
51.5600 17.1699 -0.7424
51.5800 17.1765 -0.7569
51.6000 17.1833 -0.7522
51.6200 17.1900 -0.7508
51.6400 17.1967 -0.7563
51.6600 17.2034 -0.7533
51.6800 17.2101 -0.7506
51.7000 17.2167 -0.7558
51.7200 17.2233 -0.7528
51.7400 17.2299 -0.7528
51.7600 17.2366 -0.7582
51.7800 17.2433 -0.7599
51.8000 17.2500 -0.7605
51.8200 17.2567 -0.7622
51.8400 17.2633 -0.7609
51.8600 17.2700 -0.7614
51.8800 17.2767 -0.7611
51.9000 17.2833 -0.7679
51.9200 17.2899 -0.7618
51.9400 17.2966 -0.7621
51.9600 17.3033 -0.7722
51.9800 17.3100 -0.7645
52.0000 17.3167 -0.7702
52.0200 17.3234 -0.7737
52.0400 17.3300 -0.7695
52.0600 17.3367 -0.7670
52.0800 17.3433 -0.7760
52.1000 17.3499 -0.7658
52.1200 17.3566 -0.7740
52.1400 17.3633 -0.7792
52.1600 17.3700 -0.7734
52.1800 17.3767 -0.7800
52.2000 17.3834 -0.7823
52.2200 17.3900 -0.7756
52.2400 17.3967 -0.7834
52.2600 17.4033 -0.7826
52.2800 17.4099 -0.7753
52.3000 17.4165 -0.7850
52.3200 17.4232 -0.7855
52.3400 17.4299 -0.7769
52.3600 17.4366 -0.7916
52.3800 17.4433 -0.7891
52.4000 17.4500 -0.7815
52.4200 17.4567 -0.8001
52.4400 17.4633 -0.7899
52.4600 17.4699 -0.7803
52.4800 17.4766 -0.7920
52.5000 17.4833 -0.7933
52.5200 17.4900 -0.7869
52.5400 17.4967 -0.7996
52.5600 17.5034 -0.7941
52.5800 17.5101 -0.7934
52.6000 17.5167 -0.8111
52.6200 17.5233 -0.7939
52.6400 17.5299 -0.7884
52.6600 17.5366 -0.8138
52.6800 17.5433 -0.7954
52.7000 17.5500 -0.7907
52.7200 17.5567 -0.8165
52.7400 17.5634 -0.8008
52.7600 17.5701 -0.8005
52.7800 17.5767 -0.8216
52.8000 17.5833 -0.7983
52.8200 17.5899 -0.8109
52.8400 17.5966 -0.8198
52.8600 17.6033 -0.7991
52.8800 17.6100 -0.8161
52.9000 17.6167 -0.8219
52.9200 17.6233 -0.7965
52.9400 17.6300 -0.8194
52.9600 17.6367 -0.8261
52.9800 17.6433 -0.8125
53.0000 17.6499 -0.8168
53.0200 17.6566 -0.8242
53.0400 17.6633 -0.8158
53.0600 17.6700 -0.8183
53.0800 17.6766 -0.8271
53.1000 17.6833 -0.8218
53.1200 17.6900 -0.8231
53.1400 17.6967 -0.8273
53.1600 17.7033 -0.8190
53.1800 17.7099 -0.8299
53.2000 17.7166 -0.8335
53.2200 17.7233 -0.8220
53.2400 17.7300 -0.8355
53.2600 17.7367 -0.8320
53.2800 17.7434 -0.8274
53.3000 17.7501 -0.8355
53.3200 17.7567 -0.8368
53.3400 17.7633 -0.8299
53.3600 17.7699 -0.8393
53.3800 17.7766 -0.8306
53.4000 17.7833 -0.8405
53.4200 17.7900 -0.8471
53.4400 17.7967 -0.8289
53.4600 17.8034 -0.8437
53.4800 17.8100 -0.8518
53.5000 17.8167 -0.8351
53.5200 17.8233 -0.8436
53.5400 17.8299 -0.8441
53.5600 17.8366 -0.8419
53.5800 17.8432 -0.8522
53.6000 17.8500 -0.8497
53.6200 17.8566 -0.8412
53.6400 17.8633 -0.8564
53.6600 17.8700 -0.8496
53.6800 17.8767 -0.8424
53.7000 17.8833 -0.8602
53.7200 17.8899 -0.8467
53.7400 17.8965 -0.8480
53.7600 17.9032 -0.8545
53.7800 17.9100 -0.8519
53.8000 17.9167 -0.8553
53.8200 17.9233 -0.8561
53.8400 17.9300 -0.8523
53.8600 17.9367 -0.8581
53.8800 17.9433 -0.8644
53.9000 17.9499 -0.8567
53.9200 17.9566 -0.8524
53.9400 17.9633 -0.8626
53.9600 17.9700 -0.8647
53.9800 17.9767 -0.8597
54.0000 17.9833 -0.8552
54.0200 17.9900 -0.8696
54.0400 17.9967 -0.8667
54.0600 18.0034 -0.8583
54.0800 18.0099 -0.8655
54.1000 18.0166 -0.8728
54.1200 18.0233 -0.8619
54.1400 18.0300 -0.8636
54.1600 18.0367 -0.8691
54.1800 18.0433 -0.8673
54.2000 18.0500 -0.8714
54.2200 18.0567 -0.8700
54.2400 18.0633 -0.8717
54.2600 18.0699 -0.8752
54.2800 18.0766 -0.8689
54.3000 18.0833 -0.8728
54.3200 18.0900 -0.8760
54.3400 18.0967 -0.8783
54.3600 18.1034 -0.8756
54.3800 18.1100 -0.8722
54.4000 18.1167 -0.8833
54.4200 18.1233 -0.8786
54.4400 18.1299 -0.8825
54.4600 18.1365 -0.8777
54.4800 18.1432 -0.8795
54.5000 18.1499 -0.8844
54.5200 18.1566 -0.8797
54.5400 18.1633 -0.8808
54.5600 18.1700 -0.8925
54.5800 18.1767 -0.8879
54.6000 18.1833 -0.8901
54.6200 18.1899 -0.8873
54.6400 18.1965 -0.8873
54.6600 18.2032 -0.8930
54.6800 18.2100 -0.8983
54.7000 18.2167 -0.8891
54.7200 18.2234 -0.8934
54.7400 18.2301 -0.9045
54.7600 18.2368 -0.8931
54.7800 18.2434 -0.8895
54.8000 18.2500 -0.9085
54.8200 18.2566 -0.8937
54.8400 18.2633 -0.8943
54.8600 18.2700 -0.9135
54.8800 18.2767 -0.8954
54.9000 18.2834 -0.8974
54.9200 18.2901 -0.9175
54.9400 18.2967 -0.9012
54.9600 18.3033 -0.9046
54.9800 18.3099 -0.9191
55.0000 18.3166 -0.8926
55.0200 18.3233 -0.9082
55.0400 18.3300 -0.9212
55.0600 18.3366 -0.9001
55.0800 18.3433 -0.9122
55.1000 18.3500 -0.9239
55.1200 18.3567 -0.9031
55.1400 18.3633 -0.9167
55.1600 18.3699 -0.9204
55.1800 18.3765 -0.9086
55.2000 18.3832 -0.9166
55.2200 18.3899 -0.9253
55.2400 18.3966 -0.9148
55.2600 18.4033 -0.9233
55.2800 18.4100 -0.9265
55.3000 18.4167 -0.9151
55.3200 18.4233 -0.9248
55.3400 18.4299 -0.9309
55.3600 18.4366 -0.9248
55.3800 18.4433 -0.9253
55.4000 18.4500 -0.9288
55.4200 18.4567 -0.9330
55.4400 18.4634 -0.9287
55.4600 18.4700 -0.9315
55.4800 18.4767 -0.9376
55.5000 18.4834 -0.9343
55.5200 18.4900 -0.9384
55.5400 18.4966 -0.9366
55.5600 18.5033 -0.9395
55.5800 18.5100 -0.9420
55.6000 18.5167 -0.9367
55.6200 18.5233 -0.9370
55.6400 18.5300 -0.9451
55.6600 18.5367 -0.9401
55.6800 18.5434 -0.9468
55.7000 18.5500 -0.9428
55.7200 18.5566 -0.9458
55.7400 18.5632 -0.9455
55.7600 18.5700 -0.9515
55.7800 18.5767 -0.9452
55.8000 18.5833 -0.9534
55.8200 18.5900 -0.9536
55.8400 18.5967 -0.9441
55.8600 18.6033 -0.9539
55.8800 18.6099 -0.9616
55.9000 18.6165 -0.9465
55.9200 18.6232 -0.9579
55.9400 18.6299 -0.9606
55.9600 18.6366 -0.9504
55.9800 18.6433 -0.9648
56.0000 18.6500 -0.9626
56.0200 18.6567 -0.9485
56.0400 18.6634 -0.9665
56.0600 18.6700 -0.9690
56.0800 18.6766 -0.9548
56.1000 18.6833 -0.9676
56.1200 18.6900 -0.9717
56.1400 18.6967 -0.9604
56.1600 18.7033 -0.9671
56.1800 18.7101 -0.9722
56.2000 18.7168 -0.9653
56.2200 18.7234 -0.9763
56.2400 18.7300 -0.9708
56.2600 18.7366 -0.9616
56.2800 18.7432 -0.9763
56.3000 18.7500 -0.9838
56.3200 18.7567 -0.9710
56.3400 18.7634 -0.9768
56.3600 18.7700 -0.9796
56.3800 18.7767 -0.9792
56.4000 18.7834 -0.9749
56.4200 18.7900 -0.9803
56.4400 18.7966 -0.9777
56.4600 18.8033 -0.9808
56.4800 18.8100 -0.9807
56.5000 18.8167 -0.9869
56.5200 18.8233 -0.9843
56.5400 18.8300 -0.9844
56.5600 18.8367 -0.9885
56.5800 18.8433 -0.9860
56.6000 18.8499 -0.9930
56.6200 18.8565 -0.9942
56.6400 18.8632 -0.9816
56.6600 18.8699 -0.9919
56.6800 18.8766 -0.9954
56.7000 18.8833 -0.9881
56.7200 18.8900 -0.9967
56.7400 18.8967 -0.9986
56.7600 18.9034 -0.9922
56.7800 18.9100 -0.9954
56.8000 18.9166 -0.9986
56.8200 18.9232 -0.9987
56.8400 18.9300 -1.0036
56.8600 18.9367 -0.9975
56.8800 18.9434 -1.0054
56.9000 18.9500 -1.0011
56.9200 18.9567 -1.0037
56.9400 18.9634 -1.0109
56.9600 18.9700 -1.0102
56.9800 18.9766 -1.0030
57.0000 18.9833 -1.0147
57.0200 18.9900 -1.0078
57.0400 18.9967 -1.0111
57.0600 19.0034 -1.0163
57.0800 19.0100 -1.0120
57.1000 19.0167 -1.0143
57.1200 19.0234 -1.0183
57.1400 19.0300 -1.0174
57.1600 19.0366 -1.0243
57.1800 19.0432 -1.0192
57.2000 19.0499 -1.0212
57.2200 19.0566 -1.0323
57.2400 19.0633 -1.0217
57.2600 19.0700 -1.0251
57.2800 19.0767 -1.0323
57.3000 19.0833 -1.0270
57.3200 19.0900 -1.0318
57.3400 19.0966 -1.0323
57.3600 19.1032 -1.0261
57.3800 19.1099 -1.0378
57.4000 19.1166 -1.0414
57.4200 19.1233 -1.0275
57.4400 19.1300 -1.0408
57.4600 19.1367 -1.0506
57.4800 19.1433 -1.0268
57.5000 19.1500 -1.0434
57.5200 19.1566 -1.0483
57.5400 19.1632 -1.0321
57.5600 19.1699 -1.0505
57.5800 19.1767 -1.0528
57.6000 19.1834 -1.0361
57.6200 19.1900 -1.0548
57.6400 19.1967 -1.0536
57.6600 19.2034 -1.0463
57.6800 19.2100 -1.0537
57.7000 19.2166 -1.0510
57.7200 19.2233 -1.0481
57.7400 19.2300 -1.0572
57.7600 19.2367 -1.0522
57.7800 19.2434 -1.0530
57.8000 19.2501 -1.0641
57.8200 19.2568 -1.0566
57.8400 19.2634 -1.0591
57.8600 19.2700 -1.0631
57.8800 19.2766 -1.0594
57.9000 19.2832 -1.0610
57.9200 19.2899 -1.0643
57.9400 19.2966 -1.0636
57.9600 19.3033 -1.0678
57.9800 19.3100 -1.0660
58.0000 19.3167 -1.0707
58.0200 19.3233 -1.0706
58.0400 19.3300 -1.0727
58.0600 19.3366 -1.0717
58.0800 19.3432 -1.0761
58.1000 19.3499 -1.0714
58.1200 19.3566 -1.0755
58.1400 19.3633 -1.0789
58.1600 19.3700 -1.0788
58.1800 19.3766 -1.0742
58.2000 19.3833 -1.0899
58.2200 19.3900 -1.0810
58.2400 19.3966 -1.0720
58.2600 19.4033 -1.0937
58.2800 19.4100 -1.0884
58.3000 19.4166 -1.0711
58.3200 19.4233 -1.0975
58.3400 19.4300 -1.0863
58.3600 19.4367 -1.0836
58.3800 19.4434 -1.1081
58.4000 19.4500 -1.0889
58.4200 19.4566 -1.0907
58.4400 19.4632 -1.1080
58.4600 19.4699 -1.0948
58.4800 19.4767 -1.0940
58.5000 19.4834 -1.1143
58.5200 19.4900 -1.0955
58.5400 19.4967 -1.0937
58.5600 19.5034 -1.1213
58.5800 19.5100 -1.0999
58.6000 19.5166 -1.1047
58.6200 19.5233 -1.1248
58.6400 19.5299 -1.0939
58.6600 19.5367 -1.1170
58.6800 19.5433 -1.1268
58.7000 19.5500 -1.0976
58.7200 19.5567 -1.1165
58.7400 19.5634 -1.1320
58.7600 19.5700 -1.1012
58.7800 19.5766 -1.1253
58.8000 19.5832 -1.1281
58.8200 19.5899 -1.1068
58.8400 19.5966 -1.1355
58.8600 19.6033 -1.1293
58.8800 19.6100 -1.1110
58.9000 19.6167 -1.1432
58.9200 19.6233 -1.1316
58.9400 19.6300 -1.1147
58.9600 19.6366 -1.1441
58.9800 19.6432 -1.1363
59.0000 19.6499 -1.1232
59.0200 19.6567 -1.1473
59.0400 19.6634 -1.1365
59.0600 19.6700 -1.1335
59.0800 19.6767 -1.1520
59.1000 19.6834 -1.1401
59.1200 19.6900 -1.1431
59.1400 19.6966 -1.1466
59.1600 19.7033 -1.1451
59.1800 19.7100 -1.1501
59.2000 19.7167 -1.1518
59.2200 19.7234 -1.1522
59.2400 19.7300 -1.1590
59.2600 19.7367 -1.1485
59.2800 19.7434 -1.1626
59.3000 19.7499 -1.1724
59.3010 19.7503 -1.1730
