Raw Data
Time Displacement Force
(s) (mm) (N)
0.0000 0.0000 0.1859
0.0200 0.0000 0.1813
0.0400 0.0008 0.2391
0.0600 0.0040 0.3160
0.0800 0.0094 0.2997
0.1000 0.0152 0.3286
0.1200 0.0211 0.3990
0.1400 0.0277 0.4180
0.1600 0.0350 0.4680
0.1800 0.0425 0.5300
0.2000 0.0496 0.5655
0.2200 0.0565 0.6132
0.2400 0.0632 0.6779
0.2600 0.0698 0.7133
0.2800 0.0765 0.7647
0.3000 0.0832 0.8116
0.3200 0.0900 0.8532
0.3400 0.0967 0.9089
0.3600 0.1033 0.9549
0.3800 0.1100 0.9925
0.4000 0.1166 1.0509
0.4200 0.1233 1.1061
0.4400 0.1300 1.1441
0.4600 0.1367 1.1879
0.4800 0.1434 1.2435
0.5000 0.1501 1.2761
0.5200 0.1568 1.2898
0.5400 0.1634 1.2919
0.5600 0.1700 1.2918
0.5800 0.1766 1.2947
0.6000 0.1833 1.2985
0.6200 0.1900 1.2934
0.6400 0.1967 1.2924
0.6600 0.2034 1.3024
0.6800 0.2101 1.2985
0.7000 0.2167 1.2930
0.7200 0.2234 1.2979
0.7400 0.2300 1.3048
0.7600 0.2366 1.3016
0.7800 0.2433 1.3060
0.8000 0.2500 1.3030
0.8200 0.2567 1.3067
0.8400 0.2633 1.3160
0.8600 0.2700 1.3046
0.8800 0.2767 1.3022
0.9000 0.2833 1.3242
0.9200 0.2899 1.3071
0.9400 0.2965 1.3079
0.9600 0.3032 1.3294
0.9800 0.3099 1.3071
1.0000 0.3166 1.3065
1.0200 0.3233 1.3305
1.0400 0.3300 1.3103
1.0600 0.3367 1.3184
1.0800 0.3433 1.3298
1.1000 0.3499 1.3073
1.1200 0.3566 1.3189
1.1400 0.3633 1.3290
1.1600 0.3700 1.3130
1.1800 0.3767 1.3185
1.2000 0.3833 1.3260
1.2200 0.3900 1.3131
1.2400 0.3967 1.3243
1.2600 0.4034 1.3242
1.2800 0.4100 1.3121
1.3000 0.4167 1.3205
1.3200 0.4234 1.3217
1.3400 0.4300 1.3098
1.3600 0.4367 1.3176
1.3800 0.4434 1.3153
1.4000 0.4501 1.3109
1.4200 0.4568 1.3099
1.4400 0.4634 1.3112
1.4600 0.4700 1.3120
1.4800 0.4766 1.3129
1.5000 0.4833 1.3033
1.5200 0.4900 1.3042
1.5400 0.4967 1.3042
1.5600 0.5033 1.3033
1.5800 0.5100 1.2981
1.6000 0.5167 1.2925
1.6200 0.5233 1.2948
1.6400 0.5299 1.3064
1.6600 0.5366 1.2911
1.6800 0.5433 1.2945
1.7000 0.5500 1.2984
1.7200 0.5567 1.2760
1.7400 0.5634 1.2878
1.7600 0.5700 1.2954
1.7800 0.5767 1.2780
1.8000 0.5834 1.2776
1.8200 0.5900 1.2851
1.8400 0.5966 1.2680
1.8600 0.6033 1.2795
1.8800 0.6100 1.2812
1.9000 0.6167 1.2613
1.9200 0.6234 1.2736
1.9400 0.6301 1.2740
1.9600 0.6368 1.2519
1.9800 0.6434 1.2690
2.0000 0.6500 1.2658
2.0200 0.6566 1.2510
2.0400 0.6633 1.2610
2.0600 0.6700 1.2595
2.0800 0.6767 1.2492
2.1000 0.6834 1.2651
2.1200 0.6901 1.2484
2.1400 0.6967 1.2383
2.1600 0.7034 1.2522
2.1800 0.7100 1.2438
2.2000 0.7166 1.2380
2.2200 0.7232 1.2496
2.2400 0.7300 1.2357
2.2600 0.7367 1.2341
2.2800 0.7434 1.2454
2.3000 0.7500 1.2378
2.3200 0.7567 1.2333
2.3400 0.7634 1.2370
2.3600 0.7700 1.2261
2.3800 0.7766 1.2283
2.4000 0.7832 1.2410
2.4200 0.7899 1.2229
2.4400 0.7966 1.2230
2.4600 0.8033 1.2280
2.4800 0.8100 1.2247
2.5000 0.8167 1.2217
2.5200 0.8234 1.2255
2.5400 0.8300 1.2210
2.5600 0.8366 1.2161
2.5800 0.8433 1.2162
2.6000 0.8500 1.2151
2.6200 0.8567 1.2132
2.6400 0.8634 1.2153
2.6600 0.8701 1.2090
2.6800 0.8767 1.2123
2.7000 0.8834 1.2085
2.7200 0.8900 1.2129
2.7400 0.8966 1.2063
2.7600 0.9033 1.2036
2.7800 0.9100 1.2035
2.8000 0.9167 1.1998
2.8200 0.9234 1.2052
2.8400 0.9301 1.2001
2.8600 0.9367 1.1940
2.8800 0.9434 1.2025
2.9000 0.9500 1.2028
2.9200 0.9566 1.1919
2.9400 0.9633 1.2032
2.9600 0.9700 1.1934
2.9800 0.9767 1.1899
3.0000 0.9833 1.1964
3.0200 0.9900 1.1913
3.0400 0.9967 1.1882
3.0600 1.0034 1.1951
3.0800 1.0100 1.1833
3.1000 1.0166 1.1947
3.1200 1.0232 1.1962
3.1400 1.0299 1.1830
3.1600 1.0367 1.1891
3.1800 1.0434 1.1876
3.2000 1.0500 1.1826
3.2200 1.0567 1.1901
3.2400 1.0634 1.1831
3.2600 1.0700 1.1801
3.2800 1.0766 1.1892
3.3000 1.0833 1.1865
3.3200 1.0900 1.1821
3.3400 1.0967 1.1884
3.3600 1.1034 1.1777
3.3800 1.1101 1.1851
3.4000 1.1168 1.1821
3.4200 1.1234 1.1700
3.4400 1.1301 1.1818
3.4600 1.1367 1.1788
3.4800 1.1433 1.1676
3.5000 1.1500 1.1846
3.5200 1.1567 1.1775
3.5400 1.1634 1.1686
3.5600 1.1701 1.1803
3.5800 1.1768 1.1650
3.6000 1.1834 1.1709
3.6200 1.1900 1.1774
3.6400 1.1966 1.1580
3.6600 1.2032 1.1648
3.6800 1.2100 1.1787
3.7000 1.2167 1.1523
3.7200 1.2234 1.1602
3.7400 1.2300 1.1749
3.7600 1.2367 1.1551
3.7800 1.2434 1.1570
3.8000 1.2500 1.1674
3.8200 1.2566 1.1537
3.8400 1.2633 1.1550
3.8600 1.2700 1.1574
3.8800 1.2767 1.1522
3.9000 1.2833 1.1474
3.9200 1.2900 1.1580
3.9400 1.2967 1.1480
3.9600 1.3034 1.1469
3.9800 1.3100 1.1522
4.0000 1.3166 1.1489
4.0200 1.3233 1.1386
4.0400 1.3299 1.1404
4.0600 1.3367 1.1467
4.0800 1.3434 1.1381
4.1000 1.3501 1.1344
4.1200 1.3567 1.1415
4.1400 1.3634 1.1324
4.1600 1.3700 1.1387
4.1800 1.3766 1.1383
4.2000 1.3833 1.1241
4.2200 1.3900 1.1346
4.2400 1.3967 1.1328
4.2600 1.4034 1.1197
4.2800 1.4101 1.1331
4.3000 1.4168 1.1320
4.3200 1.4234 1.1091
4.3400 1.4300 1.1302
4.3600 1.4366 1.1339
4.3800 1.4433 1.1136
4.4000 1.4500 1.1303
4.4200 1.4567 1.1286
4.4400 1.4633 1.1075
4.4600 1.4700 1.1256
4.4800 1.4767 1.1215
4.5000 1.4834 1.1094
4.5200 1.4900 1.1154
4.5400 1.4966 1.1189
4.5600 1.5032 1.1060
4.5800 1.5099 1.1150
4.6000 1.5166 1.1146
4.6200 1.5233 1.1081
4.6400 1.5300 1.1115
4.6600 1.5367 1.1074
4.6800 1.5434 1.1024
4.7000 1.5500 1.1096
4.7200 1.5566 1.1094
4.7400 1.5633 1.0987
4.7600 1.5700 1.1054
4.7800 1.5767 1.1056
4.8000 1.5834 1.0982
4.8200 1.5901 1.1018
4.8400 1.5968 1.1010
4.8600 1.6034 1.0955
4.8800 1.6100 1.0953
4.9000 1.6166 1.0949
4.9200 1.6233 1.0982
4.9400 1.6300 1.0929
4.9600 1.6367 1.0949
4.9800 1.6434 1.0900
5.0000 1.6501 1.0959
5.0200 1.6568 1.0956
5.0400 1.6634 1.0868
5.0600 1.6700 1.0802
5.0800 1.6766 1.0936
5.1000 1.6832 1.0863
5.1200 1.6899 1.0831
5.1400 1.6966 1.0902
5.1600 1.7033 1.0803
5.1800 1.7100 1.0781
5.2000 1.7167 1.0921
5.2200 1.7234 1.0789
5.2400 1.7300 1.0834
5.2600 1.7366 1.0834
5.2800 1.7432 1.0693
5.3000 1.7499 1.0773
5.3200 1.7566 1.0869
5.3400 1.7633 1.0645
5.3600 1.7700 1.0672
5.3800 1.7767 1.0836
5.4000 1.7833 1.0664
5.4200 1.7900 1.0701
5.4400 1.7966 1.0763
5.4600 1.8033 1.0616
5.4800 1.8100 1.0683
5.5000 1.8167 1.0737
5.5200 1.8234 1.0581
5.5400 1.8301 1.0712
5.5600 1.8368 1.0656
5.5800 1.8434 1.0528
5.6000 1.8501 1.0656
5.6200 1.8567 1.0707
5.6400 1.8633 1.0525
5.6600 1.8700 1.0622
5.6800 1.8767 1.0620
5.7000 1.8834 1.0507
5.7200 1.8901 1.0533
5.7400 1.8967 1.0611
5.7600 1.9034 1.0499
5.7800 1.9100 1.0505
5.8000 1.9166 1.0578
5.8200 1.9233 1.0491
5.8400 1.9299 1.0452
5.8600 1.9367 1.0578
5.8800 1.9433 1.0438
5.9000 1.9500 1.0391
5.9200 1.9567 1.0546
5.9400 1.9633 1.0363
5.9600 1.9700 1.0367
5.9800 1.9766 1.0565
6.0000 1.9832 1.0369
6.0200 1.9899 1.0353
6.0400 1.9966 1.0488
6.0600 2.0033 1.0295
6.0800 2.0100 1.0359
6.1000 2.0167 1.0399
6.1200 2.0234 1.0239
6.1400 2.0301 1.0321
6.1600 2.0367 1.0376
6.1800 2.0433 1.0247
6.2000 2.0500 1.0329
6.2200 2.0567 1.0327
6.2400 2.0634 1.0276
6.2600 2.0701 1.0212
6.2800 2.0767 1.0266
6.3000 2.0834 1.0199
6.3200 2.0900 1.0223
6.3400 2.0966 1.0198
6.3600 2.1033 1.0202
6.3800 2.1099 1.0183
6.4000 2.1167 1.0159
6.4200 2.1234 1.0212
6.4400 2.1300 1.0149
6.4600 2.1367 1.0104
6.4800 2.1434 1.0192
6.5000 2.1501 1.0050
6.5200 2.1567 1.0126
6.5400 2.1633 1.0180
6.5600 2.1700 1.0011
6.5800 2.1767 1.0075
6.6000 2.1833 1.0124
6.6200 2.1900 1.0021
6.6400 2.1967 1.0028
6.6600 2.2034 1.0096
6.6800 2.2101 0.9967
6.7000 2.2167 0.9983
6.7200 2.2232 0.9999
6.7400 2.2299 1.0002
6.7600 2.2366 0.9936
6.7800 2.2433 0.9967
6.8000 2.2500 0.9991
6.8200 2.2567 0.9967
6.8400 2.2634 0.9974
6.8600 2.2700 0.9889
6.8800 2.2767 0.9852
6.9000 2.2833 0.9988
6.9200 2.2899 0.9830
6.9400 2.2966 0.9834
6.9600 2.3034 0.9955
6.9800 2.3100 0.9798
7.0000 2.3167 0.9814
7.0200 2.3234 0.9985
7.0400 2.3301 0.9829
7.0600 2.3367 0.9798
7.0800 2.3433 0.9922
7.1000 2.3500 0.9746
7.1200 2.3566 0.9808
7.1400 2.3634 0.9854
7.1600 2.3700 0.9741
7.1800 2.3767 0.9790
7.2000 2.3834 0.9878
7.2200 2.3901 0.9695
7.2400 2.3967 0.9767
7.2600 2.4033 0.9776
7.2800 2.4099 0.9662
7.3000 2.4167 0.9758
7.3200 2.4234 0.9717
7.3400 2.4300 0.9611
7.3600 2.4367 0.9776
7.3800 2.4434 0.9670
7.4000 2.4500 0.9639
7.4200 2.4566 0.9683
7.4400 2.4632 0.9667
7.4600 2.4699 0.9676
7.4800 2.4766 0.9651
7.5000 2.4833 0.9602
7.5200 2.4900 0.9669
7.5400 2.4967 0.9627
7.5600 2.5033 0.9574
7.5800 2.5100 0.9608
7.6000 2.5166 0.9617
7.6200 2.5233 0.9587
7.6400 2.5299 0.9578
7.6600 2.5367 0.9537
7.6800 2.5434 0.9546
7.7000 2.5501 0.9563
7.7200 2.5567 0.9441
7.7400 2.5634 0.9533
7.7600 2.5701 0.9498
7.7800 2.5767 0.9470
7.8000 2.5833 0.9541
7.8200 2.5900 0.9515
7.8400 2.5967 0.9402
7.8600 2.6034 0.9521
7.8800 2.6101 0.9438
7.9000 2.6167 0.9403
7.9200 2.6234 0.9509
7.9400 2.6301 0.9427
7.9600 2.6367 0.9306
7.9800 2.6433 0.9482
8.0000 2.6500 0.9411
8.0200 2.6566 0.9372
8.0400 2.6634 0.9417
8.0600 2.6700 0.9347
8.0800 2.6767 0.9287
8.1000 2.6834 0.9443
8.1200 2.6901 0.9284
8.1400 2.6967 0.9249
8.1600 2.7032 0.9420
8.1800 2.7099 0.9276
8.2000 2.7166 0.9224
8.2200 2.7233 0.9355
8.2400 2.7300 0.9197
8.2600 2.7367 0.9278
8.2800 2.7434 0.9322
8.3000 2.7501 0.9161
8.3200 2.7567 0.9272
8.3400 2.7633 0.9225
8.3600 2.7699 0.9174
8.3800 2.7766 0.9227
8.4000 2.7833 0.9200
8.4200 2.7900 0.9153
8.4400 2.7967 0.9201
8.4600 2.8034 0.9125
8.4800 2.8101 0.9204
8.5000 2.8167 0.9135
8.5200 2.8233 0.9041
8.5400 2.8300 0.9159
8.5600 2.8366 0.9135
8.5800 2.8434 0.9021
8.6000 2.8501 0.9149
8.6200 2.8567 0.9130
8.6400 2.8634 0.9015
8.6600 2.8701 0.9115
8.6800 2.8767 0.9049
8.7000 2.8833 0.8991
8.7200 2.8899 0.9120
8.7400 2.8966 0.8953
8.7600 2.9033 0.8952
8.7800 2.9100 0.9111
8.8000 2.9167 0.8947
8.8200 2.9234 0.8982
8.8400 2.9301 0.9091
8.8600 2.9367 0.8905
8.8800 2.9432 0.8987
8.9000 2.9499 0.9062
8.9200 2.9566 0.8867
8.9400 2.9633 0.8981
8.9600 2.9700 0.8958
8.9800 2.9766 0.8862
9.0000 2.9833 0.9002
9.0200 2.9900 0.8973
9.0400 2.9967 0.8841
9.0600 3.0033 0.8964
9.0800 3.0099 0.8890
9.1000 3.0166 0.8799
9.1200 3.0234 0.8931
9.1400 3.0301 0.8887
9.1600 3.0367 0.8748
9.1800 3.0434 0.8936
9.2000 3.0501 0.8850
9.2200 3.0567 0.8772
9.2400 3.0633 0.8925
9.2600 3.0699 0.8844
9.2800 3.0766 0.8727
9.3000 3.0834 0.8844
9.3200 3.0901 0.8811
9.3400 3.0967 0.8706
9.3600 3.1034 0.8856
9.3800 3.1101 0.8811
9.4000 3.1167 0.8677
9.4200 3.1233 0.8785
9.4400 3.1299 0.8802
9.4600 3.1366 0.8697
9.4800 3.1433 0.8752
9.5000 3.1500 0.8738
9.5200 3.1567 0.8628
9.5400 3.1634 0.8724
9.5600 3.1701 0.8717
9.5800 3.1767 0.8584
9.6000 3.1833 0.8746
9.6200 3.1899 0.8699
9.6400 3.1966 0.8592
9.6600 3.2033 0.8696
9.6800 3.2100 0.8671
9.7000 3.2167 0.8565
9.7200 3.2233 0.8706
9.7400 3.2300 0.8620
9.7600 3.2367 0.8604
9.7800 3.2433 0.8647
9.8000 3.2499 0.8623
9.8200 3.2566 0.8569
9.8400 3.2633 0.8617
9.8600 3.2701 0.8588
9.8800 3.2767 0.8532
9.9000 3.2834 0.8596
9.9200 3.2901 0.8504
9.9400 3.2967 0.8519
9.9600 3.3033 0.8600
9.9800 3.3099 0.8542
10.0000 3.3167 0.8523
10.0200 3.3234 0.8512
10.0400 3.3301 0.8494
10.0600 3.3368 0.8501
10.0800 3.3434 0.8502
10.1000 3.3501 0.8467
10.1200 3.3567 0.8465
10.1400 3.3633 0.8469
10.1600 3.3699 0.8455
10.1800 3.3766 0.8484
10.2000 3.3833 0.8442
10.2200 3.3900 0.8408
10.2400 3.3967 0.8406
10.2600 3.4034 0.8455
10.2800 3.4101 0.8355
10.3000 3.4167 0.8390
10.3200 3.4233 0.8371
10.3400 3.4299 0.8398
10.3600 3.4366 0.8329
10.3800 3.4433 0.8351
10.4000 3.4500 0.8340
10.4200 3.4567 0.8290
10.4400 3.4634 0.8287
10.4600 3.4701 0.8362
10.4800 3.4767 0.8297
10.5000 3.4833 0.8227
10.5200 3.4900 0.8313
10.5400 3.4966 0.8283
10.5600 3.5034 0.8182
10.5800 3.5100 0.8255
10.6000 3.5167 0.8215
10.6200 3.5234 0.8212
10.6400 3.5301 0.8249
10.6600 3.5367 0.8152
10.6800 3.5433 0.8173
10.7000 3.5499 0.8305
10.7200 3.5566 0.8117
10.7400 3.5633 0.8061
10.7600 3.5700 0.8248
10.7800 3.5767 0.8053
10.8000 3.5834 0.8125
10.8200 3.5901 0.8143
10.8400 3.5967 0.8025
10.8600 3.6033 0.8122
10.8800 3.6099 0.8117
10.9000 3.6166 0.8019
10.9200 3.6234 0.8108
10.9400 3.6301 0.8042
10.9600 3.6367 0.7999
10.9800 3.6434 0.8062
11.0000 3.6501 0.8004
11.0200 3.6567 0.7987
11.0400 3.6633 0.8029
11.0600 3.6699 0.7975
11.0800 3.6766 0.8042
11.1000 3.6833 0.7962
11.1200 3.6900 0.7857
11.1400 3.6967 0.7996
11.1600 3.7033 0.7958
11.1800 3.7100 0.7862
11.2000 3.7167 0.7983
11.2200 3.7233 0.7888
11.2400 3.7299 0.7831
11.2600 3.7366 0.7999
11.2800 3.7433 0.7829
11.3000 3.7500 0.7855
11.3200 3.7567 0.7972
11.3400 3.7634 0.7776
11.3600 3.7701 0.7790
11.3800 3.7768 0.7954
11.4000 3.7833 0.7738
11.4200 3.7899 0.7848
11.4400 3.7966 0.7909
11.4600 3.8033 0.7744
11.4800 3.8101 0.7835
11.5000 3.8168 0.7864
11.5200 3.8234 0.7700
11.5400 3.8301 0.7822
11.5600 3.8367 0.7792
11.5800 3.8433 0.7716
11.6000 3.8499 0.7795
11.6200 3.8566 0.7761
11.6400 3.8633 0.7649
11.6600 3.8699 0.7755
11.6800 3.8766 0.7770
11.7000 3.8833 0.7704
11.7200 3.8900 0.7761
11.7400 3.8967 0.7658
11.7600 3.9033 0.7637
11.7800 3.9099 0.7740
11.8000 3.9165 0.7696
11.8200 3.9233 0.7662
11.8400 3.9300 0.7693
11.8600 3.9367 0.7618
11.8800 3.9434 0.7668
11.9000 3.9501 0.7658
11.9200 3.9567 0.7604
11.9400 3.9633 0.7575
11.9600 3.9699 0.7615
11.9800 3.9766 0.7616
12.0000 3.9833 0.7617
12.0200 3.9901 0.7543
12.0400 3.9967 0.7597
12.0600 4.0034 0.7580
12.0800 4.0101 0.7569
12.1000 4.0167 0.7567
12.1200 4.0234 0.7586
12.1400 4.0300 0.7500
12.1600 4.0366 0.7551
12.1800 4.0433 0.7543
12.2000 4.0500 0.7483
12.2200 4.0567 0.7521
12.2400 4.0634 0.7487
12.2600 4.0701 0.7430
12.2800 4.0768 0.7487
12.3000 4.0834 0.7484
12.3200 4.0899 0.7433
12.3400 4.0966 0.7492
12.3600 4.1033 0.7416
12.3800 4.1100 0.7385
12.4000 4.1167 0.7462
12.4200 4.1234 0.7394
12.4400 4.1300 0.7375
12.4600 4.1367 0.7450
12.4800 4.1433 0.7337
12.5000 4.1499 0.7385
12.5200 4.1566 0.7386
12.5400 4.1633 0.7306
12.5600 4.1700 0.7279
12.5800 4.1767 0.7374
12.6000 4.1834 0.7258
12.6200 4.1900 0.7283
12.6400 4.1967 0.7338
12.6600 4.2034 0.7253
12.6800 4.2100 0.7299
12.7000 4.2166 0.7312
12.7200 4.2233 0.7236
12.7400 4.2300 0.7300
12.7600 4.2367 0.7226
12.7800 4.2434 0.7214
12.8000 4.2501 0.7233
12.8200 4.2568 0.7216
12.8400 4.2634 0.7197
12.8600 4.2700 0.7208
12.8800 4.2766 0.7240
12.9000 4.2833 0.7211
12.9200 4.2900 0.7163
12.9400 4.2967 0.7183
12.9600 4.3034 0.7129
12.9800 4.3101 0.7096
13.0000 4.3167 0.7192
13.0200 4.3234 0.7150
13.0400 4.3300 0.7083
13.0600 4.3366 0.7173
13.0800 4.3433 0.7124
13.1000 4.3500 0.7008
13.1200 4.3567 0.7177
13.1400 4.3634 0.7080
13.1600 4.3700 0.7029
13.1800 4.3767 0.7083
13.2000 4.3834 0.7011
13.2200 4.3899 0.7008
13.2400 4.3966 0.7151
13.2600 4.4032 0.7018
13.2800 4.4100 0.7007
13.3000 4.4167 0.7130
13.3200 4.4234 0.6973
13.3400 4.4301 0.6991
13.3600 4.4367 0.7064
13.3800 4.4434 0.6935
13.4000 4.4500 0.7034
13.4200 4.4566 0.7041
13.4400 4.4633 0.6889
13.4600 4.4700 0.6984
13.4800 4.4767 0.7044
13.5000 4.4834 0.6886
13.5200 4.4901 0.6952
13.5400 4.4968 0.7009
13.5600 4.5034 0.6850
13.5800 4.5100 0.6975
13.6000 4.5166 0.6940
13.6200 4.5233 0.6914
13.6400 4.5300 0.6931
13.6600 4.5367 0.6883
13.6800 4.5434 0.6877
13.7000 4.5500 0.6977
13.7200 4.5567 0.6821
13.7400 4.5633 0.6834
13.7600 4.5699 0.6897
13.7800 4.5766 0.6817
13.8000 4.5833 0.6840
13.8200 4.5900 0.6834
13.8400 4.5967 0.6753
13.8600 4.6034 0.6894
13.8800 4.6100 0.6835
13.9000 4.6167 0.6722
13.9200 4.6234 0.6830
13.9400 4.6299 0.6814
13.9600 4.6366 0.6721
13.9800 4.6433 0.6828
14.0000 4.6500 0.6761
14.0200 4.6567 0.6736
14.0400 4.6633 0.6769
14.0600 4.6700 0.6696
14.0800 4.6766 0.6748
14.1000 4.6833 0.6737
14.1200 4.6899 0.6683
14.1400 4.6966 0.6698
14.1600 4.7033 0.6724
14.1800 4.7101 0.6646
14.2000 4.7167 0.6708
14.2200 4.7234 0.6707
14.2400 4.7301 0.6618
14.2600 4.7368 0.6692
14.2800 4.7434 0.6629
14.3000 4.7500 0.6608
14.3200 4.7566 0.6726
14.3400 4.7633 0.6586
14.3600 4.7700 0.6594
14.3800 4.7767 0.6656
14.4000 4.7834 0.6603
14.4200 4.7901 0.6555
14.4400 4.7968 0.6613
14.4600 4.8034 0.6532
14.4800 4.8100 0.6571
14.5000 4.8166 0.6626
14.5200 4.8233 0.6523
14.5400 4.8300 0.6531
14.5600 4.8367 0.6543
14.5800 4.8434 0.6488
14.6000 4.8500 0.6516
14.6200 4.8567 0.6509
14.6400 4.8633 0.6512
14.6600 4.8699 0.6499
14.6800 4.8766 0.6515
14.7000 4.8832 0.6500
14.7200 4.8900 0.6474
14.7400 4.8967 0.6408
14.7600 4.9033 0.6422
14.7800 4.9100 0.6482
14.8000 4.9167 0.6365
14.8200 4.9233 0.6434
14.8400 4.9300 0.6422
14.8600 4.9366 0.6334
14.8800 4.9433 0.6426
14.9000 4.9500 0.6396
14.9200 4.9567 0.6296
14.9400 4.9634 0.6414
14.9600 4.9701 0.6357
14.9800 4.9768 0.6244
15.0000 4.9834 0.6351
15.0200 4.9900 0.6355
15.0400 4.9966 0.6213
15.0600 5.0033 0.6372
15.0800 5.0100 0.6310
15.1000 5.0167 0.6205
15.1200 5.0234 0.6370
15.1400 5.0301 0.6238
15.1600 5.0367 0.6131
15.1800 5.0434 0.6366
15.2000 5.0500 0.6178
15.2200 5.0566 0.6115
15.2400 5.0633 0.6331
15.2600 5.0700 0.6103
15.2800 5.0767 0.6172
15.3000 5.0834 0.6317
15.3200 5.0901 0.6065
15.3400 5.0967 0.6120
15.3600 5.1034 0.6236
15.3800 5.1100 0.6015
15.4000 5.1166 0.6158
15.4200 5.1232 0.6204
15.4400 5.1299 0.6011
15.4600 5.1366 0.6074
15.4800 5.1433 0.6213
15.5000 5.1500 0.6019
15.5200 5.1567 0.6145
15.5400 5.1633 0.6088
15.5600 5.1699 0.5965
15.5800 5.1766 0.6117
15.6000 5.1833 0.6072
15.6200 5.1900 0.5929
15.6400 5.1967 0.6077
15.6600 5.2033 0.6002
15.6800 5.2100 0.5972
15.7000 5.2167 0.6050
15.7200 5.2234 0.5960
15.7400 5.2300 0.5986
15.7600 5.2367 0.5979
15.7800 5.2434 0.5898
15.8000 5.2501 0.5966
15.8200 5.2568 0.5959
15.8400 5.2634 0.5873
15.8600 5.2701 0.5980
15.8800 5.2768 0.5930
15.9000 5.2834 0.5847
15.9200 5.2900 0.5965
15.9400 5.2966 0.5907
15.9600 5.3032 0.5833
15.9800 5.3100 0.5958
16.0000 5.3167 0.5836
16.0200 5.3234 0.5850
16.0400 5.3300 0.5900
16.0600 5.3367 0.5810
16.0800 5.3434 0.5838
16.1000 5.3500 0.5920
16.1200 5.3566 0.5746
16.1400 5.3633 0.5861
16.1600 5.3700 0.5853
16.1800 5.3767 0.5671
16.2000 5.3834 0.5846
16.2200 5.3900 0.5830
16.2400 5.3967 0.5672
16.2600 5.4034 0.5821
16.2800 5.4100 0.5789
16.3000 5.4167 0.5697
16.3200 5.4233 0.5798
16.3400 5.4300 0.5735
16.3600 5.4367 0.5671
16.3800 5.4434 0.5759
16.4000 5.4501 0.5711
16.4200 5.4568 0.5626
16.4400 5.4634 0.5746
16.4600 5.4700 0.5664
16.4800 5.4765 0.5678
16.5000 5.4832 0.5719
16.5200 5.4900 0.5653
16.5400 5.4967 0.5655
16.5600 5.5034 0.5628
16.5800 5.5101 0.5658
16.6000 5.5167 0.5641
16.6200 5.5234 0.5574
16.6400 5.5300 0.5647
16.6600 5.5366 0.5609
16.6800 5.5433 0.5623
16.7000 5.5500 0.5604
16.7200 5.5567 0.5598
16.7400 5.5634 0.5573
16.7600 5.5700 0.5637
16.7800 5.5767 0.5534
16.8000 5.5834 0.5502
16.8200 5.5900 0.5580
16.8400 5.5966 0.5533
16.8600 5.6033 0.5503
16.8800 5.6099 0.5622
16.9000 5.6166 0.5500
16.9200 5.6233 0.5477
16.9400 5.6300 0.5563
16.9600 5.6367 0.5471
16.9800 5.6434 0.5460
17.0000 5.6500 0.5543
17.0200 5.6566 0.5470
17.0400 5.6633 0.5417
17.0600 5.6700 0.5577
17.0800 5.6767 0.5453
17.1000 5.6834 0.5448
17.1200 5.6901 0.5506
17.1400 5.6967 0.5389
17.1600 5.7034 0.5391
17.1800 5.7100 0.5502
17.2000 5.7166 0.5343
17.2200 5.7233 0.5411
17.2400 5.7300 0.5467
17.2600 5.7367 0.5319
17.2800 5.7433 0.5401
17.3000 5.7500 0.5474
17.3200 5.7567 0.5295
17.3400 5.7634 0.5383
17.3600 5.7701 0.5354
17.3800 5.7766 0.5296
17.4000 5.7833 0.5376
17.4200 5.7899 0.5349
17.4400 5.7967 0.5250
17.4600 5.8034 0.5350
17.4800 5.8101 0.5273
17.5000 5.8167 0.5288
17.5200 5.8234 0.5329
17.5400 5.8300 0.5232
17.5600 5.8366 0.5280
17.5800 5.8432 0.5273
17.6000 5.8499 0.5223
17.6200 5.8567 0.5259
17.6400 5.8634 0.5205
17.6600 5.8700 0.5212
17.6800 5.8767 0.5273
17.7000 5.8834 0.5126
17.7200 5.8900 0.5222
17.7400 5.8966 0.5235
17.7600 5.9033 0.5135
17.7800 5.9100 0.5145
17.8000 5.9167 0.5229
17.8200 5.9234 0.5099
17.8400 5.9301 0.5151
17.8600 5.9368 0.5160
17.8800 5.9435 0.5135
17.9000 5.9501 0.5155
17.9200 5.9567 0.5132
17.9400 5.9633 0.5064
17.9600 5.9700 0.5123
17.9800 5.9767 0.5075
18.0000 5.9834 0.5035
18.0200 5.9901 0.5077
18.0400 5.9967 0.5051
18.0600 6.0034 0.5044
18.0800 6.0100 0.5057
18.1000 6.0165 0.5017
18.1200 6.0232 0.5070
18.1400 6.0300 0.5066
18.1600 6.0367 0.4975
18.1800 6.0434 0.5008
18.2000 6.0501 0.5007
18.2200 6.0567 0.4982
18.2400 6.0634 0.4940
18.2600 6.0700 0.4936
18.2800 6.0766 0.4984
18.3000 6.0833 0.4953
18.3200 6.0900 0.4896
18.3400 6.0967 0.4975
18.3600 6.1033 0.4910
18.3800 6.1100 0.4876
18.4000 6.1167 0.4907
18.4200 6.1234 0.4870
18.4400 6.1300 0.4867
18.4600 6.1366 0.4928
18.4800 6.1433 0.4839
18.5000 6.1499 0.4883
18.5200 6.1567 0.4846
18.5400 6.1634 0.4819
18.5600 6.1701 0.4852
18.5800 6.1768 0.4854
18.6000 6.1834 0.4801
18.6200 6.1900 0.4838
18.6400 6.1966 0.4834
18.6600 6.2033 0.4808
18.6800 6.2100 0.4836
18.7000 6.2167 0.4800
18.7200 6.2234 0.4758
18.7400 6.2301 0.4806
18.7600 6.2367 0.4759
18.7800 6.2434 0.4750
18.8000 6.2501 0.4761
18.8200 6.2567 0.4697
18.8400 6.2633 0.4780
18.8600 6.2700 0.4774
18.8800 6.2766 0.4693
18.9000 6.2833 0.4759
18.9200 6.2900 0.4770
18.9400 6.2967 0.4659
18.9600 6.3034 0.4749
18.9800 6.3100 0.4663
19.0000 6.3166 0.4652
19.0200 6.3232 0.4741
19.0400 6.3299 0.4703
19.0600 6.3366 0.4588
19.0800 6.3433 0.4721
19.1000 6.3500 0.4692
19.1200 6.3567 0.4607
19.1400 6.3634 0.4699
19.1600 6.3700 0.4625
19.1800 6.3766 0.4579
19.2000 6.3833 0.4701
19.2200 6.3900 0.4554
19.2400 6.3967 0.4586
19.2600 6.4034 0.4656
19.2800 6.4101 0.4502
19.3000 6.4168 0.4611
19.3200 6.4234 0.4655
19.3400 6.4301 0.4505
19.3600 6.4367 0.4586
19.3800 6.4433 0.4612
19.4000 6.4500 0.4483
19.4200 6.4567 0.4614
19.4400 6.4634 0.4551
19.4600 6.4701 0.4487
19.4800 6.4768 0.4609
19.5000 6.4834 0.4533
19.5200 6.4901 0.4428
19.5400 6.4967 0.4582
19.5600 6.5033 0.4468
19.5800 6.5099 0.4418
19.6000 6.5166 0.4556
19.6200 6.5234 0.4437
19.6400 6.5300 0.4375
19.6600 6.5367 0.4507
19.6800 6.5434 0.4379
19.7000 6.5500 0.4451
19.7200 6.5566 0.4433
19.7400 6.5632 0.4321
19.7600 6.5699 0.4431
19.7800 6.5766 0.4436
19.8000 6.5833 0.4298
19.8200 6.5900 0.4412
19.8400 6.5967 0.4395
19.8600 6.6033 0.4314
19.8800 6.6100 0.4370
19.9000 6.6166 0.4337
19.9200 6.6233 0.4352
19.9400 6.6300 0.4338
19.9600 6.6367 0.4315
19.9800 6.6434 0.4286
20.0000 6.6500 0.4298
20.0200 6.6568 0.4286
20.0400 6.6634 0.4267
20.0600 6.6701 0.4265
20.0800 6.6767 0.4324
20.1000 6.6833 0.4270
20.1200 6.6900 0.4239
20.1400 6.6967 0.4277
20.1600 6.7034 0.4303
20.1800 6.7101 0.4191
20.2000 6.7168 0.4279
20.2200 6.7234 0.4204
20.2400 6.7301 0.4157
20.2600 6.7366 0.4292
20.2800 6.7433 0.4232
20.3000 6.7499 0.4080
20.3200 6.7566 0.4263
20.3400 6.7633 0.4170
20.3600 6.7700 0.4090
20.3800 6.7767 0.4215
20.4000 6.7834 0.4160
20.4200 6.7900 0.4073
20.4400 6.7966 0.4172
20.4600 6.8032 0.4157
20.4800 6.8099 0.4072
20.5000 6.8166 0.4192
20.5200 6.8233 0.4064
20.5400 6.8300 0.3990
20.5600 6.8367 0.4195
20.5800 6.8434 0.4073
20.6000 6.8501 0.3975
20.6200 6.8567 0.4144
20.6400 6.8633 0.4017
20.6600 6.8699 0.4037
20.6800 6.8767 0.4130
20.7000 6.8834 0.3995
20.7200 6.8901 0.3977
20.7400 6.8968 0.4091
20.7600 6.9034 0.3931
20.7800 6.9101 0.3980
20.8000 6.9167 0.4050
20.8200 6.9233 0.3932
20.8400 6.9299 0.3940
20.8600 6.9367 0.4022
20.8800 6.9434 0.3928
20.9000 6.9501 0.3966
20.9200 6.9567 0.3957
20.9400 6.9634 0.3913
20.9600 6.9701 0.3932
20.9800 6.9767 0.3903
21.0000 6.9833 0.3876
21.0200 6.9900 0.3937
21.0400 6.9966 0.3868
21.0600 7.0033 0.3850
21.0800 7.0100 0.3891
21.1000 7.0167 0.3916
21.1200 7.0234 0.3862
21.1400 7.0301 0.3832
21.1600 7.0367 0.3846
21.1800 7.0432 0.3843
21.2000 7.0499 0.3833
21.2200 7.0566 0.3832
21.2400 7.0633 0.3790
21.2600 7.0700 0.3787
21.2800 7.0767 0.3795
21.3000 7.0833 0.3800
21.3200 7.0900 0.3774
21.3400 7.0966 0.3771
21.3600 7.1033 0.3786
21.3800 7.1099 0.3714
21.4000 7.1166 0.3793
21.4200 7.1233 0.3709
21.4400 7.1300 0.3711
21.4600 7.1367 0.3755
21.4800 7.1434 0.3708
21.5000 7.1501 0.3712
21.5200 7.1567 0.3759
21.5400 7.1633 0.3641
21.5600 7.1700 0.3652
21.5800 7.1767 0.3734
21.6000 7.1834 0.3607
21.6200 7.1901 0.3647
21.6400 7.1967 0.3679
21.6600 7.2034 0.3603
21.6800 7.2101 0.3649
21.7000 7.2167 0.3637
21.7200 7.2233 0.3617
21.7400 7.2299 0.3635
21.7600 7.2366 0.3560
21.7800 7.2434 0.3570
21.8000 7.2501 0.3580
21.8200 7.2567 0.3607
21.8400 7.2634 0.3551
21.8600 7.2700 0.3556
21.8800 7.2767 0.3549
21.9000 7.2833 0.3558
21.9200 7.2899 0.3517
21.9400 7.2966 0.3506
21.9600 7.3033 0.3491
21.9800 7.3100 0.3469
22.0000 7.3167 0.3470
22.0200 7.3233 0.3488
22.0400 7.3300 0.3443
22.0600 7.3367 0.3454
22.0800 7.3433 0.3446
22.1000 7.3499 0.3463
22.1200 7.3566 0.3460
22.1400 7.3633 0.3435
22.1600 7.3701 0.3359
22.1800 7.3767 0.3429
22.2000 7.3834 0.3421
22.2200 7.3901 0.3332
22.2400 7.3967 0.3368
22.2600 7.4033 0.3393
22.2800 7.4099 0.3301
22.3000 7.4167 0.3396
22.3200 7.4234 0.3386
22.3400 7.4301 0.3231
22.3600 7.4367 0.3367
22.3800 7.4434 0.3361
22.4000 7.4500 0.3227
22.4200 7.4567 0.3318
22.4400 7.4633 0.3301
22.4600 7.4699 0.3242
22.4800 7.4766 0.3349
22.5000 7.4833 0.3278
22.5200 7.4900 0.3238
22.5400 7.4967 0.3310
22.5600 7.5034 0.3243
22.5800 7.5101 0.3189
22.6000 7.5167 0.3337
22.6200 7.5233 0.3165
22.6400 7.5299 0.3199
22.6600 7.5366 0.3252
22.6800 7.5433 0.3179
22.7000 7.5500 0.3232
22.7200 7.5567 0.3216
22.7400 7.5634 0.3144
22.7600 7.5701 0.3195
22.7800 7.5767 0.3191
22.8000 7.5833 0.3073
22.8200 7.5899 0.3238
22.8400 7.5966 0.3189
22.8600 7.6033 0.3014
22.8800 7.6100 0.3163
22.9000 7.6167 0.3176
22.9200 7.6234 0.3064
22.9400 7.6301 0.3116
22.9600 7.6367 0.3081
22.9800 7.6433 0.3038
23.0000 7.6500 0.3122
23.0200 7.6567 0.3044
23.0400 7.6634 0.2998
23.0600 7.6700 0.3111
23.0800 7.6767 0.3005
23.1000 7.6834 0.3018
23.1200 7.6901 0.3056
23.1400 7.6967 0.2976
23.1600 7.7033 0.2955
23.1800 7.7099 0.3057
23.2000 7.7166 0.2955
23.2200 7.7233 0.2910
23.2400 7.7300 0.2983
23.2600 7.7367 0.2941
23.2800 7.7434 0.2880
23.3000 7.7501 0.2989
23.3200 7.7567 0.2897
23.3400 7.7633 0.2917
23.3600 7.7699 0.2947
23.3800 7.7766 0.2840
23.4000 7.7833 0.2875
23.4200 7.7900 0.2903
23.4400 7.7966 0.2823
23.4600 7.8033 0.2919
23.4800 7.8100 0.2905
23.5000 7.8167 0.2769
23.5200 7.8233 0.2883
23.5400 7.8299 0.2847
23.5600 7.8366 0.2778
23.5800 7.8433 0.2901
23.6000 7.8500 0.2781
23.6200 7.8567 0.2733
23.6400 7.8634 0.2900
23.6600 7.8701 0.2746
23.6800 7.8767 0.2745
23.7000 7.8833 0.2847
23.7200 7.8899 0.2747
23.7400 7.8966 0.2777
23.7600 7.9033 0.2885
23.7800 7.9101 0.2661
23.8000 7.9167 0.2754
23.8200 7.9234 0.2800
23.8400 7.9301 0.2628
23.8600 7.9367 0.2778
23.8800 7.9433 0.2781
23.9000 7.9499 0.2629
23.9200 7.9566 0.2757
23.9400 7.9633 0.2684
23.9600 7.9700 0.2654
23.9800 7.9767 0.2736
24.0000 7.9834 0.2606
24.0200 7.9901 0.2660
24.0400 7.9967 0.2711
24.0600 8.0033 0.2609
24.0800 8.0099 0.2624
24.1000 8.0166 0.2705
24.1200 8.0233 0.2629
24.1400 8.0300 0.2588
24.1600 8.0367 0.2656
24.1800 8.0434 0.2629
24.2000 8.0500 0.2588
24.2200 8.0567 0.2622
24.2400 8.0633 0.2567
24.2600 8.0699 0.2609
24.2800 8.0766 0.2635
24.3000 8.0833 0.2575
24.3200 8.0900 0.2540
24.3400 8.0967 0.2622
24.3600 8.1034 0.2528
24.3800 8.1101 0.2526
24.4000 8.1167 0.2577
24.4200 8.1233 0.2519
24.4400 8.1299 0.2525
24.4600 8.1366 0.2541
24.4800 8.1434 0.2486
24.5000 8.1501 0.2493
24.5200 8.1568 0.2548
24.5400 8.1634 0.2490
24.5600 8.1701 0.2457
24.5800 8.1767 0.2498
24.6000 8.1833 0.2436
24.6200 8.1899 0.2449
24.6400 8.1966 0.2466
24.6600 8.2033 0.2392
24.6800 8.2100 0.2483
24.7000 8.2167 0.2430
24.7200 8.2234 0.2370
24.7400 8.2301 0.2414
24.7600 8.2367 0.2433
24.7800 8.2433 0.2355
24.8000 8.2499 0.2386
24.8200 8.2566 0.2442
24.8400 8.2633 0.2326
24.8600 8.2700 0.2369
24.8800 8.2767 0.2376
24.9000 8.2834 0.2268
24.9200 8.2900 0.2434
24.9400 8.2967 0.2263
24.9600 8.3033 0.2272
24.9800 8.3099 0.2384
25.0000 8.3166 0.2286
25.0200 8.3233 0.2224
25.0400 8.3300 0.2307
25.0600 8.3367 0.2240
25.0800 8.3434 0.2271
25.1000 8.3501 0.2305
25.1200 8.3567 0.2193
25.1400 8.3633 0.2252
25.1600 8.3700 0.2284
25.1800 8.3766 0.2182
25.2000 8.3833 0.2230
25.2200 8.3900 0.2195
25.2400 8.3967 0.2189
25.2600 8.4034 0.2188
25.2800 8.4101 0.2189
25.3000 8.4167 0.2220
25.3200 8.4233 0.2164
25.3400 8.4299 0.2160
25.3600 8.4366 0.2124
25.3800 8.4433 0.2167
25.4000 8.4500 0.2124
25.4200 8.4567 0.2131
25.4400 8.4634 0.2089
25.4600 8.4701 0.2077
25.4800 8.4767 0.2099
25.5000 8.4833 0.2113
25.5200 8.4899 0.2064
25.5400 8.4966 0.2112
25.5600 8.5033 0.2056
25.5800 8.5100 0.2056
25.6000 8.5166 0.2057
25.6200 8.5233 0.2085
25.6400 8.5300 0.2021
25.6600 8.5367 0.2014
25.6800 8.5433 0.2068
25.7000 8.5499 0.2008
25.7200 8.5566 0.1993
25.7400 8.5633 0.2042
25.7600 8.5700 0.1943
25.7800 8.5767 0.1992
25.8000 8.5834 0.2001
25.8200 8.5901 0.1942
25.8400 8.5968 0.1928
25.8600 8.6034 0.1965
25.8800 8.6100 0.1948
25.9000 8.6166 0.1953
25.9200 8.6233 0.1968
25.9400 8.6300 0.1936
25.9600 8.6367 0.1940
25.9800 8.6434 0.1881
26.0000 8.6501 0.1920
26.0200 8.6568 0.1882
26.0400 8.6634 0.1873
26.0600 8.6700 0.1903
26.0800 8.6766 0.1853
26.1000 8.6833 0.1903
26.1200 8.6900 0.1894
26.1400 8.6967 0.1761
26.1600 8.7033 0.1925
26.1800 8.7100 0.1869
26.2000 8.7167 0.1779
26.2200 8.7233 0.1816
26.2400 8.7299 0.1850
26.2600 8.7365 0.1789
26.2800 8.7432 0.1875
26.3000 8.7500 0.1816
26.3200 8.7567 0.1755
26.3400 8.7633 0.1852
26.3600 8.7700 0.1742
26.3800 8.7767 0.1703
26.4000 8.7833 0.1821
26.4200 8.7899 0.1760
26.4400 8.7966 0.1712
26.4600 8.8033 0.1771
26.4800 8.8100 0.1737
26.5000 8.8167 0.1710
26.5200 8.8234 0.1751
26.5400 8.8301 0.1710
26.5600 8.8367 0.1653
26.5800 8.8434 0.1713
26.6000 8.8500 0.1651
26.6200 8.8567 0.1661
26.6400 8.8634 0.1691
26.6600 8.8700 0.1680
26.6800 8.8767 0.1615
26.7000 8.8834 0.1710
26.7200 8.8901 0.1645
26.7400 8.8968 0.1579
26.7600 8.9034 0.1649
26.7800 8.9099 0.1619
26.8000 8.9166 0.1550
26.8200 8.9233 0.1657
26.8400 8.9300 0.1563
26.8600 8.9367 0.1535
26.8800 8.9434 0.1611
26.9000 8.9500 0.1557
26.9200 8.9567 0.1517
26.9400 8.9633 0.1541
26.9600 8.9699 0.1553
26.9800 8.9766 0.1561
27.0000 8.9833 0.1537
27.0200 8.9900 0.1517
27.0400 8.9967 0.1532
27.0600 9.0033 0.1565
27.0800 9.0100 0.1468
27.1000 9.0167 0.1490
27.1200 9.0234 0.1517
27.1400 9.0300 0.1445
27.1600 9.0366 0.1461
27.1800 9.0433 0.1481
27.2000 9.0500 0.1413
27.2200 9.0567 0.1435
27.2400 9.0634 0.1493
27.2600 9.0701 0.1392
27.2800 9.0768 0.1464
27.3000 9.0834 0.1434
27.3200 9.0900 0.1374
27.3400 9.0966 0.1469
27.3600 9.1033 0.1456
27.3800 9.1100 0.1317
27.4000 9.1167 0.1432
27.4200 9.1234 0.1416
27.4400 9.1301 0.1310
27.4600 9.1368 0.1391
27.4800 9.1434 0.1418
27.5000 9.1500 0.1318
27.5200 9.1566 0.1414
27.5400 9.1633 0.1326
27.5600 9.1700 0.1271
27.5800 9.1767 0.1398
27.6000 9.1834 0.1372
27.6200 9.1900 0.1272
27.6400 9.1967 0.1332
27.6600 9.2034 0.1353
27.6800 9.2100 0.1263
27.7000 9.2166 0.1349
27.7200 9.2232 0.1290
27.7400 9.2299 0.1239
27.7600 9.2367 0.1270
27.7800 9.2433 0.1236
27.8000 9.2500 0.1230
27.8200 9.2567 0.1310
27.8400 9.2634 0.1161
27.8600 9.2699 0.1211
27.8800 9.2766 0.1291
27.9000 9.2833 0.1213
27.9200 9.2900 0.1164
27.9400 9.2967 0.1207
27.9600 9.3034 0.1146
27.9800 9.3101 0.1186
28.0000 9.3168 0.1211
28.0200 9.3234 0.1157
28.0400 9.3300 0.1117
28.0600 9.3366 0.1224
28.0800 9.3433 0.1157
28.1000 9.3500 0.1104
28.1200 9.3567 0.1161
28.1400 9.3634 0.1137
28.1600 9.3701 0.1065
28.1800 9.3767 0.1135
28.2000 9.3834 0.1107
28.2200 9.3900 0.1059
28.2400 9.3966 0.1104
28.2600 9.4033 0.1096
28.2800 9.4100 0.1063
28.3000 9.4167 0.1058
28.3200 9.4234 0.1063
28.3400 9.4300 0.0980
28.3600 9.4367 0.1064
28.3800 9.4434 0.1043
28.4000 9.4500 0.0995
28.4200 9.4566 0.1022
28.4400 9.4633 0.1004
28.4600 9.4700 0.0986
28.4800 9.4767 0.1006
28.5000 9.4834 0.0947
28.5200 9.4900 0.0970
28.5400 9.4967 0.0990
28.5600 9.5034 0.0910
28.5800 9.5100 0.0944
28.6000 9.5166 0.0973
28.6200 9.5233 0.0852
28.6400 9.5300 0.0975
28.6600 9.5367 0.0923
28.6800 9.5434 0.0902
28.7000 9.5501 0.0922
28.7200 9.5567 0.0880
28.7400 9.5634 0.0856
28.7600 9.5700 0.0930
28.7800 9.5767 0.0859
28.8000 9.5833 0.0817
28.8200 9.5900 0.0876
28.8400 9.5967 0.0817
28.8600 9.6034 0.0830
28.8800 9.6101 0.0894
28.9000 9.6168 0.0783
28.9200 9.6234 0.0779
28.9400 9.6300 0.0844
28.9600 9.6366 0.0767
28.9800 9.6433 0.0859
29.0000 9.6500 0.0788
29.0200 9.6567 0.0727
29.0400 9.6634 0.0799
29.0600 9.6700 0.0774
29.0800 9.6767 0.0742
29.1000 9.6834 0.0804
29.1200 9.6900 0.0711
29.1400 9.6966 0.0744
29.1600 9.7033 0.0774
29.1800 9.7100 0.0672
29.2000 9.7167 0.0719
29.2200 9.7233 0.0795
29.2400 9.7300 0.0621
29.2600 9.7367 0.0761
29.2800 9.7434 0.0748
29.3000 9.7500 0.0645
29.3200 9.7566 0.0736
29.3400 9.7633 0.0710
29.3600 9.7700 0.0594
29.3800 9.7767 0.0729
29.4000 9.7834 0.0629
29.4200 9.7901 0.0618
29.4400 9.7968 0.0748
29.4600 9.8034 0.0588
29.4800 9.8100 0.0617
29.5000 9.8166 0.0713
29.5200 9.8233 0.0558
29.5400 9.8300 0.0618
29.5600 9.8367 0.0728
29.5800 9.8434 0.0482
29.6000 9.8501 0.0621
29.6200 9.8567 0.0649
29.6400 9.8634 0.0545
29.6600 9.8700 0.0630
29.6800 9.8766 0.0605
29.7000 9.8833 0.0482
29.7200 9.8900 0.0587
29.7400 9.8967 0.0568
29.7600 9.9034 0.0506
29.7800 9.9100 0.0536
29.8000 9.9167 0.0569
29.8200 9.9234 0.0442
29.8400 9.9300 0.0496
29.8600 9.9366 0.0554
29.8800 9.9432 0.0514
29.9000 9.9499 0.0463
29.9200 9.9566 0.0504
29.9400 9.9633 0.0427
29.9600 9.9700 0.0472
29.9800 9.9767 0.0513
30.0000 9.9833 0.0387
30.0200 9.9899 0.0425
30.0400 9.9966 0.0510
30.0600 10.0033 0.0415
30.0800 10.0100 0.0360
30.1000 10.0167 0.0488
30.1200 10.0234 0.0372
30.1400 10.0301 0.0348
30.1600 10.0367 0.0462
30.1800 10.0434 0.0352
30.2000 10.0500 0.0329
30.2200 10.0567 0.0419
30.2400 10.0633 0.0291
30.2600 10.0700 0.0349
30.2800 10.0767 0.0410
30.3000 10.0834 0.0289
30.3200 10.0901 0.0271
30.3400 10.0968 0.0383
30.3600 10.1034 0.0210
30.3800 10.1100 0.0282
30.4000 10.1166 0.0373
30.4200 10.1233 0.0217
30.4400 10.1299 0.0275
30.4600 10.1367 0.0379
30.4800 10.1433 0.0214
30.5000 10.1500 0.0265
30.5200 10.1567 0.0321
30.5400 10.1634 0.0154
30.5600 10.1700 0.0215
30.5800 10.1766 0.0330
30.6000 10.1832 0.0173
30.6200 10.1900 0.0211
30.6400 10.1967 0.0256
30.6600 10.2034 0.0193
30.6800 10.2100 0.0190
30.7000 10.2167 0.0179
30.7200 10.2234 0.0143
30.7400 10.2300 0.0209
30.7600 10.2366 0.0171
30.7800 10.2433 0.0111
30.8000 10.2500 0.0179
30.8200 10.2567 0.0164
30.8400 10.2634 0.0161
30.8600 10.2701 0.0166
30.8800 10.2768 0.0131
30.9000 10.2834 0.0109
30.9200 10.2900 0.0109
30.9400 10.2966 0.0134
30.9600 10.3033 0.0101
30.9800 10.3100 0.0036
31.0000 10.3167 0.0140
31.0200 10.3234 0.0016
31.0400 10.3301 0.0083
31.0600 10.3367 0.0108
31.0800 10.3434 0.0022
31.1000 10.3500 0.0023
31.1200 10.3566 0.0114
31.1400 10.3632 0.0008
31.1600 10.3699 0.0006
31.1800 10.3767 0.0103
31.2000 10.3834 -0.0053
31.2200 10.3900 0.0001
31.2400 10.3967 0.0073
31.2600 10.4034 -0.0060
31.2800 10.4100 0.0015
31.3000 10.4166 0.0032
31.3200 10.4232 -0.0111
31.3400 10.4299 -0.0004
31.3600 10.4366 -0.0006
31.3800 10.4433 -0.0067
31.4000 10.4500 -0.0036
31.4200 10.4567 -0.0038
31.4400 10.4634 -0.0074
31.4600 10.4700 -0.0021
31.4800 10.4766 -0.0084
31.5000 10.4833 -0.0109
31.5200 10.4900 -0.0046
31.5400 10.4967 -0.0074
31.5600 10.5034 -0.0148
31.5800 10.5101 -0.0089
31.6000 10.5168 -0.0134
31.6200 10.5234 -0.0149
31.6400 10.5300 -0.0129
31.6600 10.5366 -0.0090
31.6800 10.5433 -0.0145
31.7000 10.5500 -0.0124
31.7200 10.5567 -0.0208
31.7400 10.5634 -0.0188
31.7600 10.5701 -0.0116
31.7800 10.5768 -0.0203
31.8000 10.5834 -0.0234
31.8200 10.5901 -0.0150
31.8400 10.5967 -0.0196
31.8600 10.6033 -0.0206
31.8800 10.6099 -0.0097
31.9000 10.6167 -0.0263
31.9200 10.6234 -0.0254
31.9400 10.6301 -0.0180
31.9600 10.6367 -0.0283
31.9800 10.6434 -0.0249
32.0000 10.6500 -0.0188
32.0200 10.6566 -0.0310
32.0400 10.6632 -0.0265
32.0600 10.6699 -0.0202
32.0800 10.6766 -0.0307
32.1000 10.6834 -0.0343
32.1200 10.6900 -0.0213
32.1400 10.6967 -0.0344
32.1600 10.7034 -0.0318
32.1800 10.7100 -0.0238
32.2000 10.7166 -0.0402
32.2200 10.7233 -0.0381
32.2400 10.7300 -0.0231
32.2600 10.7367 -0.0408
32.2800 10.7434 -0.0375
32.3000 10.7501 -0.0306
32.3200 10.7568 -0.0444
32.3400 10.7635 -0.0374
32.3600 10.7701 -0.0384
32.3800 10.7767 -0.0503
32.4000 10.7833 -0.0314
32.4200 10.7900 -0.0418
32.4400 10.7967 -0.0525
32.4600 10.8034 -0.0331
32.4800 10.8101 -0.0414
32.5000 10.8167 -0.0536
32.5200 10.8234 -0.0441
32.5400 10.8300 -0.0484
32.5600 10.8366 -0.0522
32.5800 10.8432 -0.0444
32.6000 10.8499 -0.0517
32.6200 10.8567 -0.0534
32.6400 10.8634 -0.0487
32.6600 10.8700 -0.0524
32.6800 10.8767 -0.0559
32.7000 10.8834 -0.0520
32.7200 10.8900 -0.0546
32.7400 10.8966 -0.0558
32.7600 10.9033 -0.0569
32.7800 10.9099 -0.0527
32.8000 10.9167 -0.0622
32.8200 10.9233 -0.0579
32.8400 10.9300 -0.0570
32.8600 10.9367 -0.0611
32.8800 10.9434 -0.0639
32.9000 10.9500 -0.0608
32.9200 10.9567 -0.0661
32.9400 10.9633 -0.0636
32.9600 10.9699 -0.0613
32.9800 10.9767 -0.0669
33.0000 10.9834 -0.0668
33.0200 10.9900 -0.0662
33.0400 10.9967 -0.0707
33.0600 11.0034 -0.0696
33.0800 11.0100 -0.0690
33.1000 11.0166 -0.0703
33.1200 11.0233 -0.0718
33.1400 11.0300 -0.0736
33.1600 11.0367 -0.0742
33.1800 11.0434 -0.0760
33.2000 11.0501 -0.0727
33.2200 11.0568 -0.0801
33.2400 11.0634 -0.0732
33.2600 11.0701 -0.0716
33.2800 11.0767 -0.0817
33.3000 11.0833 -0.0769
33.3200 11.0900 -0.0747
33.3400 11.0967 -0.0853
33.3600 11.1033 -0.0723
33.3800 11.1100 -0.0814
33.4000 11.1167 -0.0871
33.4200 11.1234 -0.0766
33.4400 11.1300 -0.0787
33.4600 11.1366 -0.0907
33.4800 11.1433 -0.0797
33.5000 11.1499 -0.0821
33.5200 11.1566 -0.0875
33.5400 11.1633 -0.0865
33.5600 11.1700 -0.0888
33.5800 11.1767 -0.0831
33.6000 11.1834 -0.0854
33.6200 11.1900 -0.0926
33.6400 11.1967 -0.0810
33.6600 11.2033 -0.0875
33.6800 11.2100 -0.0927
33.7000 11.2167 -0.0868
33.7200 11.2234 -0.1002
33.7400 11.2301 -0.0884
33.7600 11.2368 -0.0911
33.7800 11.2434 -0.1008
33.8000 11.2501 -0.0929
33.8200 11.2567 -0.0891
33.8400 11.2633 -0.0973
33.8600 11.2699 -0.0921
33.8800 11.2767 -0.0961
33.9000 11.2834 -0.1014
33.9200 11.2901 -0.0903
33.9400 11.2968 -0.1032
33.9600 11.3034 -0.1063
33.9800 11.3101 -0.0874
34.0000 11.3167 -0.1078
34.0200 11.3233 -0.1048
34.0400 11.3299 -0.0940
34.0600 11.3366 -0.1034
34.0800 11.3433 -0.1036
34.1000 11.3500 -0.0975
34.1200 11.3567 -0.1175
34.1400 11.3634 -0.1007
34.1600 11.3701 -0.0977
34.1800 11.3766 -0.1223
34.2000 11.3832 -0.1007
34.2200 11.3899 -0.0983
34.2400 11.3966 -0.1182
34.2600 11.4033 -0.1029
34.2800 11.4100 -0.1075
34.3000 11.4167 -0.1132
34.3200 11.4234 -0.1069
34.3400 11.4300 -0.1199
34.3600 11.4366 -0.1129
34.3800 11.4432 -0.1041
34.4000 11.4499 -0.1208
34.4200 11.4567 -0.1162
34.4400 11.4634 -0.1052
34.4600 11.4701 -0.1236
34.4800 11.4767 -0.1148
34.5000 11.4834 -0.1174
34.5200 11.4901 -0.1218
34.5400 11.4967 -0.1177
34.5600 11.5033 -0.1156
34.5800 11.5100 -0.1239
34.6000 11.5167 -0.1161
34.6200 11.5234 -0.1195
34.6400 11.5301 -0.1213
34.6600 11.5368 -0.1234
34.6800 11.5434 -0.1240
34.7000 11.5501 -0.1210
34.7200 11.5566 -0.1223
34.7400 11.5633 -0.1340
34.7600 11.5699 -0.1214
34.7800 11.5766 -0.1217
34.8000 11.5833 -0.1360
34.8200 11.5900 -0.1241
34.8400 11.5967 -0.1254
34.8600 11.6033 -0.1326
34.8800 11.6100 -0.1294
34.9000 11.6166 -0.1354
34.9200 11.6233 -0.1311
34.9400 11.6299 -0.1221
34.9600 11.6366 -0.1446
34.9800 11.6433 -0.1375
35.0000 11.6500 -0.1234
35.0200 11.6567 -0.1347
35.0400 11.6634 -0.1424
35.0600 11.6701 -0.1318
35.0800 11.6767 -0.1348
35.1000 11.6833 -0.1391
35.1200 11.6899 -0.1373
35.1400 11.6966 -0.1409
35.1600 11.7033 -0.1398
35.1800 11.7100 -0.1373
35.2000 11.7167 -0.1469
35.2200 11.7234 -0.1367
35.2400 11.7301 -0.1375
35.2600 11.7367 -0.1484
35.2800 11.7433 -0.1445
35.3000 11.7500 -0.1408
35.3200 11.7566 -0.1477
35.3400 11.7634 -0.1434
35.3600 11.7701 -0.1539
35.3800 11.7767 -0.1528
35.4000 11.7834 -0.1386
35.4200 11.7901 -0.1496
35.4400 11.7967 -0.1581
35.4600 11.8033 -0.1417
35.4800 11.8100 -0.1445
35.5000 11.8166 -0.1554
35.5200 11.8233 -0.1511
35.5400 11.8300 -0.1491
35.5600 11.8367 -0.1506
35.5800 11.8434 -0.1571
35.6000 11.8501 -0.1498
35.6200 11.8567 -0.1564
35.6400 11.8633 -0.1587
35.6600 11.8699 -0.1484
35.6800 11.8766 -0.1571
35.7000 11.8833 -0.1574
35.7200 11.8900 -0.1547
35.7400 11.8967 -0.1637
35.7600 11.9034 -0.1628
35.7800 11.9100 -0.1533
35.8000 11.9167 -0.1586
35.8200 11.9233 -0.1698
35.8400 11.9299 -0.1522
35.8600 11.9366 -0.1651
35.8800 11.9433 -0.1713
35.9000 11.9500 -0.1533
35.9200 11.9567 -0.1606
35.9400 11.9634 -0.1733
35.9600 11.9701 -0.1641
35.9800 11.9767 -0.1650
36.0000 11.9833 -0.1723
36.0200 11.9899 -0.1638
36.0400 11.9966 -0.1634
36.0600 12.0034 -0.1757
36.0800 12.0101 -0.1702
36.1000 12.0168 -0.1662
36.1200 12.0234 -0.1744
36.1400 12.0301 -0.1756
36.1600 12.0367 -0.1746
36.1800 12.0433 -0.1668
36.2000 12.0499 -0.1757
36.2200 12.0566 -0.1775
36.2400 12.0634 -0.1630
36.2600 12.0701 -0.1821
36.2800 12.0767 -0.1887
36.3000 12.0834 -0.1652
36.3200 12.0900 -0.1853
36.3400 12.0967 -0.1827
36.3600 12.1033 -0.1700
36.3800 12.1099 -0.1882
36.4000 12.1166 -0.1826
36.4200 12.1233 -0.1701
36.4400 12.1300 -0.1952
36.4600 12.1367 -0.1777
36.4800 12.1433 -0.1800
36.5000 12.1500 -0.1986
36.5200 12.1567 -0.1781
36.5400 12.1633 -0.1805
36.5600 12.1700 -0.2028
36.5800 12.1766 -0.1839
36.6000 12.1833 -0.1836
36.6200 12.1900 -0.1973
36.6400 12.1967 -0.1880
36.6600 12.2034 -0.1871
36.6800 12.2101 -0.2038
36.7000 12.2167 -0.1947
36.7200 12.2233 -0.1922
36.7400 12.2300 -0.1984
36.7600 12.2367 -0.1953
36.7800 12.2434 -0.2002
36.8000 12.2501 -0.1946
36.8200 12.2567 -0.2010
36.8400 12.2634 -0.2010
36.8600 12.2700 -0.2006
36.8800 12.2767 -0.2038
36.9000 12.2833 -0.2039
36.9200 12.2899 -0.2034
36.9400 12.2966 -0.2049
36.9600 12.3033 -0.2002
36.9800 12.3100 -0.2076
37.0000 12.3167 -0.2112
37.0200 12.3234 -0.2035
37.0400 12.3301 -0.2044
37.0600 12.3367 -0.2168
37.0800 12.3433 -0.2037
37.1000 12.3499 -0.2104
37.1200 12.3566 -0.2119
37.1400 12.3633 -0.2098
37.1600 12.3700 -0.2154
37.1800 12.3767 -0.2110
37.2000 12.3834 -0.2109
37.2200 12.3901 -0.2194
37.2400 12.3967 -0.2132
37.2600 12.4033 -0.2140
37.2800 12.4099 -0.2182
37.3000 12.4166 -0.2138
37.3200 12.4233 -0.2152
37.3400 12.4300 -0.2196
37.3600 12.4367 -0.2180
37.3800 12.4434 -0.2130
37.4000 12.4501 -0.2200
37.4200 12.4567 -0.2155
37.4400 12.4633 -0.2195
37.4600 12.4700 -0.2218
37.4800 12.4766 -0.2205
37.5000 12.4833 -0.2191
37.5200 12.4900 -0.2278
37.5400 12.4967 -0.2189
37.5600 12.5034 -0.2193
37.5800 12.5101 -0.2274
37.6000 12.5167 -0.2273
37.6200 12.5233 -0.2199
37.6400 12.5299 -0.2287
37.6600 12.5366 -0.2246
37.6800 12.5433 -0.2255
37.7000 12.5500 -0.2336
37.7200 12.5567 -0.2285
37.7400 12.5634 -0.2263
37.7600 12.5701 -0.2332
37.7800 12.5767 -0.2262
37.8000 12.5833 -0.2290
37.8200 12.5899 -0.2343
37.8400 12.5966 -0.2329
37.8600 12.6033 -0.2305
37.8800 12.6100 -0.2391
37.9000 12.6167 -0.2311
37.9200 12.6233 -0.2320
37.9400 12.6300 -0.2421
37.9600 12.6367 -0.2353
37.9800 12.6433 -0.2340
38.0000 12.6499 -0.2369
38.0200 12.6566 -0.2347
38.0400 12.6633 -0.2414
38.0600 12.6701 -0.2411
38.0800 12.6767 -0.2333
38.1000 12.6834 -0.2400
38.1200 12.6901 -0.2444
38.1400 12.6968 -0.2382
38.1600 12.7033 -0.2399
38.1800 12.7100 -0.2503
38.2000 12.7166 -0.2326
38.2200 12.7233 -0.2449
38.2400 12.7300 -0.2583
38.2600 12.7367 -0.2425
38.2800 12.7434 -0.2431
38.3000 12.7501 -0.2595
38.3200 12.7567 -0.2416
38.3400 12.7633 -0.2502
38.3600 12.7699 -0.2608
38.3800 12.7766 -0.2390
38.4000 12.7833 -0.2498
38.4200 12.7900 -0.2666
38.4400 12.7967 -0.2474
38.4600 12.8033 -0.2538
38.4800 12.8100 -0.2651
38.5000 12.8167 -0.2528
38.5200 12.8234 -0.2561
38.5400 12.8300 -0.2663
38.5600 12.8366 -0.2529
38.5800 12.8433 -0.2536
38.6000 12.8500 -0.2734
38.6200 12.8566 -0.2552
38.6400 12.8633 -0.2573
38.6600 12.8700 -0.2721
38.6800 12.8767 -0.2615
38.7000 12.8833 -0.2636
38.7200 12.8899 -0.2758
38.7400 12.8966 -0.2633
38.7600 12.9033 -0.2619
38.7800 12.9100 -0.2737
38.8000 12.9167 -0.2635
38.8200 12.9234 -0.2685
38.8400 12.9301 -0.2796
38.8600 12.9367 -0.2652
38.8800 12.9433 -0.2737
38.9000 12.9499 -0.2788
38.9200 12.9566 -0.2709
38.9400 12.9634 -0.2759
38.9600 12.9701 -0.2756
38.9800 12.9768 -0.2719
39.0000 12.9834 -0.2829
39.0200 12.9901 -0.2769
39.0400 12.9967 -0.2751
39.0600 13.0033 -0.2857
39.0800 13.0100 -0.2811
39.1000 13.0166 -0.2802
39.1200 13.0233 -0.2861
39.1400 13.0300 -0.2784
39.1600 13.0367 -0.2874
39.1800 13.0433 -0.2843
39.2000 13.0500 -0.2822
39.2200 13.0567 -0.2950
39.2400 13.0633 -0.2782
39.2600 13.0699 -0.2894
39.2800 13.0766 -0.2963
39.3000 13.0833 -0.2876
39.3200 13.0900 -0.2930
39.3400 13.0967 -0.2915
39.3600 13.1034 -0.2860
39.3800 13.1101 -0.3019
39.4000 13.1167 -0.2906
39.4200 13.1233 -0.2856
39.4400 13.1300 -0.3018
39.4600 13.1366 -0.2941
39.4800 13.1433 -0.2896
39.5000 13.1500 -0.3073
39.5200 13.1567 -0.2906
39.5400 13.1634 -0.2963
39.5600 13.1701 -0.3044
39.5800 13.1767 -0.2898
39.6000 13.1833 -0.3050
39.6200 13.1900 -0.3029
39.6400 13.1966 -0.2895
39.6600 13.2033 -0.3087
39.6800 13.2100 -0.3063
39.7000 13.2167 -0.2987
39.7200 13.2234 -0.3068
39.7400 13.2301 -0.3039
39.7600 13.2368 -0.2997
39.7800 13.2434 -0.3125
39.8000 13.2500 -0.3008
39.8200 13.2566 -0.3007
39.8400 13.2633 -0.3153
39.8600 13.2700 -0.2966
39.8800 13.2767 -0.3161
39.9000 13.2834 -0.3184
39.9200 13.2901 -0.2955
39.9400 13.2967 -0.3110
39.9600 13.3033 -0.3210
39.9800 13.3099 -0.2962
40.0000 13.3165 -0.3118
40.0200 13.3232 -0.3222
40.0400 13.3299 -0.3006
40.0600 13.3366 -0.3160
40.0800 13.3433 -0.3244
40.1000 13.3500 -0.3013
40.1200 13.3567 -0.3157
40.1400 13.3634 -0.3296
40.1600 13.3700 -0.2988
40.1800 13.3766 -0.3057
40.2000 13.3833 -0.3357
40.2200 13.3900 -0.3123
40.2400 13.3967 -0.3094
40.2600 13.4034 -0.3307
40.2800 13.4101 -0.3222
40.3000 13.4168 -0.3080
40.3200 13.4234 -0.3246
40.3400 13.4300 -0.3285
40.3600 13.4366 -0.3081
40.3800 13.4433 -0.3152
40.4000 13.4501 -0.3278
40.4200 13.4568 -0.3214
40.4400 13.4634 -0.3268
40.4600 13.4701 -0.3310
40.4800 13.4767 -0.3163
40.5000 13.4833 -0.3292
40.5200 13.4899 -0.3313
40.5400 13.4966 -0.3153
40.5600 13.5033 -0.3280
40.5800 13.5100 -0.3377
40.6000 13.5167 -0.3186
40.6200 13.5234 -0.3283
40.6400 13.5300 -0.3353
40.6600 13.5367 -0.3258
40.6800 13.5433 -0.3361
40.7000 13.5499 -0.3347
40.7200 13.5565 -0.3247
40.7400 13.5632 -0.3429
40.7600 13.5700 -0.3296
40.7800 13.5767 -0.3295
40.8000 13.5833 -0.3487
40.8200 13.5900 -0.3359
40.8400 13.5967 -0.3321
40.8600 13.6033 -0.3447
40.8800 13.6099 -0.3365
40.9000 13.6166 -0.3386
40.9200 13.6233 -0.3459
40.9400 13.6301 -0.3367
40.9600 13.6368 -0.3442
40.9800 13.6434 -0.3463
41.0000 13.6501 -0.3396
41.0200 13.6568 -0.3508
41.0400 13.6634 -0.3528
41.0600 13.6700 -0.3376
41.0800 13.6766 -0.3517
41.1000 13.6833 -0.3518
41.1200 13.6900 -0.3471
41.1400 13.6967 -0.3488
41.1600 13.7034 -0.3513
41.1800 13.7101 -0.3477
41.2000 13.7168 -0.3571
41.2200 13.7234 -0.3568
41.2400 13.7300 -0.3534
41.2600 13.7366 -0.3501
41.2800 13.7433 -0.3604
41.3000 13.7500 -0.3595
41.3200 13.7567 -0.3525
41.3400 13.7634 -0.3548
41.3600 13.7700 -0.3610
41.3800 13.7767 -0.3593
41.4000 13.7833 -0.3602
41.4200 13.7899 -0.3567
41.4400 13.7966 -0.3624
41.4600 13.8032 -0.3629
41.4800 13.8100 -0.3625
41.5000 13.8167 -0.3656
41.5200 13.8233 -0.3691
41.5400 13.8300 -0.3610
41.5600 13.8367 -0.3621
41.5800 13.8434 -0.3740
41.6000 13.8500 -0.3648
41.6200 13.8566 -0.3685
41.6400 13.8632 -0.3713
41.6600 13.8699 -0.3668
41.6800 13.8766 -0.3717
41.7000 13.8833 -0.3757
41.7200 13.8901 -0.3657
41.7400 13.8968 -0.3721
41.7600 13.9034 -0.3786
41.7800 13.9100 -0.3724
41.8000 13.9166 -0.3727
41.8200 13.9233 -0.3799
41.8400 13.9300 -0.3732
41.8600 13.9368 -0.3785
41.8800 13.9434 -0.3768
41.9000 13.9501 -0.3791
41.9200 13.9567 -0.3782
41.9400 13.9634 -0.3789
41.9600 13.9700 -0.3810
41.9800 13.9766 -0.3812
42.0000 13.9833 -0.3811
42.0200 13.9900 -0.3811
42.0400 13.9967 -0.3832
42.0600 14.0034 -0.3871
42.0800 14.0100 -0.3872
42.1000 14.0167 -0.3877
42.1200 14.0234 -0.3848
42.1400 14.0300 -0.3843
42.1600 14.0366 -0.3885
42.1800 14.0432 -0.3920
42.2000 14.0499 -0.3847
42.2200 14.0567 -0.3897
42.2400 14.0633 -0.3958
42.2600 14.0700 -0.3871
42.2800 14.0767 -0.3924
42.3000 14.0834 -0.3979
42.3200 14.0900 -0.3917
42.3400 14.0966 -0.3908
42.3600 14.1033 -0.3969
42.3800 14.1100 -0.3925
42.4000 14.1167 -0.4042
42.4200 14.1234 -0.3945
42.4400 14.1301 -0.3928
42.4600 14.1367 -0.4009
42.4800 14.1434 -0.4019
42.5000 14.1500 -0.3931
42.5200 14.1566 -0.4024
42.5400 14.1633 -0.3991
42.5600 14.1701 -0.4027
42.5800 14.1768 -0.4045
42.6000 14.1834 -0.3970
42.6200 14.1901 -0.4047
42.6400 14.1967 -0.4077
42.6600 14.2034 -0.3991
42.6800 14.2100 -0.4076
42.7000 14.2166 -0.4080
42.7200 14.2232 -0.4045
42.7400 14.2300 -0.4046
42.7600 14.2367 -0.4084
42.7800 14.2434 -0.4125
42.8000 14.2501 -0.4078
42.8200 14.2568 -0.4120
42.8400 14.2634 -0.4111
42.8600 14.2700 -0.4137
42.8800 14.2766 -0.4122
42.9000 14.2832 -0.4169
42.9200 14.2900 -0.4085
42.9400 14.2967 -0.4176
42.9600 14.3034 -0.4173
42.9800 14.3100 -0.4120
43.0000 14.3167 -0.4212
43.0200 14.3234 -0.4245
43.0400 14.3300 -0.4147
43.0600 14.3366 -0.4173
43.0800 14.3433 -0.4200
43.1000 14.3500 -0.4239
43.1200 14.3567 -0.4196
43.1400 14.3634 -0.4219
43.1600 14.3701 -0.4250
43.1800 14.3767 -0.4268
43.2000 14.3834 -0.4228
43.2200 14.3900 -0.4279
43.2400 14.3966 -0.4277
43.2600 14.4032 -0.4183
43.2800 14.4100 -0.4324
43.3000 14.4167 -0.4299
43.3200 14.4234 -0.4233
43.3400 14.4301 -0.4370
43.3600 14.4368 -0.4327
43.3800 14.4434 -0.4298
43.4000 14.4500 -0.4368
43.4200 14.4566 -0.4307
43.4400 14.4633 -0.4339
43.4600 14.4700 -0.4369
43.4800 14.4767 -0.4328
43.5000 14.4834 -0.4379
43.5200 14.4900 -0.4392
43.5400 14.4967 -0.4283
43.5600 14.5034 -0.4493
43.5800 14.5100 -0.4448
43.6000 14.5166 -0.4249
43.6200 14.5233 -0.4497
43.6400 14.5300 -0.4480
43.6600 14.5367 -0.4264
43.6800 14.5433 -0.4534
43.7000 14.5500 -0.4445
43.7200 14.5567 -0.4337
43.7400 14.5634 -0.4536
43.7600 14.5700 -0.4470
43.7800 14.5766 -0.4347
43.8000 14.5833 -0.4606
43.8200 14.5900 -0.4445
43.8400 14.5967 -0.4401
43.8600 14.6034 -0.4637
43.8800 14.6101 -0.4442
43.9000 14.6168 -0.4428
43.9200 14.6234 -0.4610
43.9400 14.6300 -0.4479
43.9600 14.6366 -0.4496
43.9800 14.6433 -0.4594
44.0000 14.6500 -0.4481
44.0200 14.6567 -0.4569
44.0400 14.6634 -0.4656
44.0600 14.6700 -0.4513
44.0800 14.6767 -0.4552
44.1000 14.6834 -0.4624
44.1200 14.6900 -0.4499
44.1400 14.6966 -0.4633
44.1600 14.7033 -0.4635
44.1800 14.7100 -0.4547
44.2000 14.7167 -0.4674
44.2200 14.7234 -0.4647
44.2400 14.7301 -0.4573
44.2600 14.7367 -0.4688
44.2800 14.7434 -0.4590
44.3000 14.7500 -0.4639
44.3200 14.7566 -0.4724
44.3400 14.7632 -0.4629
44.3600 14.7699 -0.4632
44.3800 14.7766 -0.4731
44.4000 14.7833 -0.4609
44.4200 14.7900 -0.4728
44.4400 14.7967 -0.4776
44.4600 14.8033 -0.4653
44.4800 14.8100 -0.4760
44.5000 14.8166 -0.4705
44.5200 14.8233 -0.4695
44.5400 14.8300 -0.4820
44.5600 14.8367 -0.4760
44.5800 14.8434 -0.4658
44.6000 14.8501 -0.4798
44.6200 14.8568 -0.4811
44.6400 14.8634 -0.4732
44.6600 14.8701 -0.4783
44.6800 14.8767 -0.4789
44.7000 14.8833 -0.4756
44.7200 14.8900 -0.4815
44.7400 14.8967 -0.4768
44.7600 14.9034 -0.4806
44.7800 14.9101 -0.4830
44.8000 14.9168 -0.4791
44.8200 14.9234 -0.4879
44.8400 14.9300 -0.4875
44.8600 14.9366 -0.4820
44.8800 14.9432 -0.4835
44.9000 14.9499 -0.4841
44.9200 14.9566 -0.4940
44.9400 14.9633 -0.4901
44.9600 14.9700 -0.4860
44.9800 14.9767 -0.4880
45.0000 14.9834 -0.4966
45.0200 14.9900 -0.4931
45.0400 14.9966 -0.4902
45.0600 15.0033 -0.4922
45.0800 15.0100 -0.4834
45.1000 15.0167 -0.4994
45.1200 15.0234 -0.5017
45.1400 15.0300 -0.4909
45.1600 15.0367 -0.4998
45.1800 15.0434 -0.5002
45.2000 15.0500 -0.4945
45.2200 15.0567 -0.5071
45.2400 15.0633 -0.4992
45.2600 15.0700 -0.4932
45.2800 15.0767 -0.5075
45.3000 15.0834 -0.4965
45.3200 15.0901 -0.5009
45.3400 15.0968 -0.5151
45.3600 15.1035 -0.4948
45.3800 15.1101 -0.5017
45.4000 15.1167 -0.5141
45.4200 15.1233 -0.5002
45.4400 15.1299 -0.5028
45.4600 15.1367 -0.5122
45.4800 15.1434 -0.5023
45.5000 15.1501 -0.5127
45.5200 15.1568 -0.5153
45.5400 15.1634 -0.5022
45.5600 15.1700 -0.5131
45.5800 15.1766 -0.5165
45.6000 15.1833 -0.5038
45.6200 15.1900 -0.5210
45.6400 15.1967 -0.5180
45.6600 15.2034 -0.5063
45.6800 15.2100 -0.5163
45.7000 15.2167 -0.5179
45.7200 15.2233 -0.5160
45.7400 15.2300 -0.5207
45.7600 15.2366 -0.5208
45.7800 15.2433 -0.5143
45.8000 15.2499 -0.5232
45.8200 15.2566 -0.5231
45.8400 15.2633 -0.5178
45.8600 15.2700 -0.5232
45.8800 15.2767 -0.5293
45.9000 15.2834 -0.5197
45.9200 15.2900 -0.5227
45.9400 15.2966 -0.5309
45.9600 15.3033 -0.5236
45.9800 15.3100 -0.5273
46.0000 15.3167 -0.5340
46.0200 15.3234 -0.5219
46.0400 15.3301 -0.5305
46.0600 15.3367 -0.5339
46.0800 15.3434 -0.5247
46.1000 15.3500 -0.5334
46.1200 15.3566 -0.5389
46.1400 15.3633 -0.5219
46.1600 15.3700 -0.5408
46.1800 15.3767 -0.5420
46.2000 15.3834 -0.5309
46.2200 15.3901 -0.5386
46.2400 15.3968 -0.5399
46.2600 15.4034 -0.5353
46.2800 15.4101 -0.5449
46.3000 15.4167 -0.5398
46.3200 15.4233 -0.5378
46.3400 15.4299 -0.5455
46.3600 15.4367 -0.5409
46.3800 15.4434 -0.5470
46.4000 15.4500 -0.5470
46.4200 15.4567 -0.5453
46.4400 15.4634 -0.5457
46.4600 15.4700 -0.5463
46.4800 15.4766 -0.5486
46.5000 15.4832 -0.5490
46.5200 15.4899 -0.5456
46.5400 15.4966 -0.5554
46.5600 15.5033 -0.5496
46.5800 15.5100 -0.5511
46.6000 15.5167 -0.5548
46.6200 15.5234 -0.5527
46.6400 15.5300 -0.5495
46.6600 15.5366 -0.5565
46.6800 15.5433 -0.5522
46.7000 15.5499 -0.5508
46.7200 15.5567 -0.5583
46.7400 15.5633 -0.5603
46.7600 15.5700 -0.5528
46.7800 15.5767 -0.5658
46.8000 15.5834 -0.5572
46.8200 15.5901 -0.5586
46.8400 15.5967 -0.5653
46.8600 15.6033 -0.5570
46.8800 15.6100 -0.5569
46.9000 15.6167 -0.5713
46.9200 15.6234 -0.5650
46.9400 15.6301 -0.5564
46.9600 15.6367 -0.5761
46.9800 15.6434 -0.5646
47.0000 15.6501 -0.5620
47.0200 15.6567 -0.5768
47.0400 15.6633 -0.5668
47.0600 15.6699 -0.5648
47.0800 15.6766 -0.5815
47.1000 15.6834 -0.5694
47.1200 15.6900 -0.5710
47.1400 15.6967 -0.5784
47.1600 15.7034 -0.5716
47.1800 15.7100 -0.5776
47.2000 15.7167 -0.5821
47.2200 15.7233 -0.5679
47.2400 15.7299 -0.5794
47.2600 15.7366 -0.5826
47.2800 15.7433 -0.5750
47.3000 15.7500 -0.5818
47.3200 15.7567 -0.5830
47.3400 15.7634 -0.5750
47.3600 15.7701 -0.5880
47.3800 15.7767 -0.5834
47.4000 15.7833 -0.5823
47.4200 15.7900 -0.5860
47.4400 15.7967 -0.5874
47.4600 15.8034 -0.5860
47.4800 15.8101 -0.5855
47.5000 15.8167 -0.5878
47.5200 15.8234 -0.5928
47.5400 15.8301 -0.5898
47.5600 15.8367 -0.5896
47.5800 15.8433 -0.5906
47.6000 15.8499 -0.5873
47.6200 15.8567 -0.5927
47.6400 15.8634 -0.5908
47.6600 15.8701 -0.5887
47.6800 15.8768 -0.5954
47.7000 15.8834 -0.5978
47.7200 15.8901 -0.5865
47.7400 15.8967 -0.5959
47.7600 15.9033 -0.5988
47.7800 15.9099 -0.5924
47.8000 15.9167 -0.5983
47.8200 15.9234 -0.5993
47.8400 15.9300 -0.5867
47.8600 15.9367 -0.5994
47.8800 15.9434 -0.6012
47.9000 15.9500 -0.5970
47.9200 15.9567 -0.6015
47.9400 15.9633 -0.6025
47.9600 15.9699 -0.5956
47.9800 15.9766 -0.6013
48.0000 15.9833 -0.6020
48.0200 15.9900 -0.5994
48.0400 15.9967 -0.6026
48.0600 16.0034 -0.6069
48.0800 16.0100 -0.5976
48.1000 16.0166 -0.6065
48.1200 16.0233 -0.6044
48.1400 16.0299 -0.6000
48.1600 16.0367 -0.6122
48.1800 16.0434 -0.6067
48.2000 16.0501 -0.6021
48.2200 16.0568 -0.6108
48.2400 16.0634 -0.6089
48.2600 16.0701 -0.6040
48.2800 16.0767 -0.6125
48.3000 16.0833 -0.6112
48.3200 16.0900 -0.6110
48.3400 16.0967 -0.6157
48.3600 16.1034 -0.6094
48.3800 16.1101 -0.6133
48.4000 16.1167 -0.6192
48.4200 16.1234 -0.6063
48.4400 16.1301 -0.6187
48.4600 16.1367 -0.6234
48.4800 16.1433 -0.6112
48.5000 16.1499 -0.6179
48.5200 16.1566 -0.6256
48.5400 16.1633 -0.6152
48.5600 16.1700 -0.6263
48.5800 16.1767 -0.6175
48.6000 16.1834 -0.6221
48.6200 16.1901 -0.6296
48.6400 16.1967 -0.6132
48.6600 16.2032 -0.6232
48.6800 16.2099 -0.6304
48.7000 16.2166 -0.6199
48.7200 16.2233 -0.6259
48.7400 16.2300 -0.6285
48.7600 16.2367 -0.6249
48.7800 16.2434 -0.6343
48.8000 16.2500 -0.6265
48.8200 16.2567 -0.6218
48.8400 16.2633 -0.6341
48.8600 16.2699 -0.6309
48.8800 16.2766 -0.6312
48.9000 16.2833 -0.6415
48.9200 16.2900 -0.6314
48.9400 16.2967 -0.6339
48.9600 16.3034 -0.6403
48.9800 16.3101 -0.6374
49.0000 16.3167 -0.6363
49.0200 16.3233 -0.6442
49.0400 16.3299 -0.6320
49.0600 16.3367 -0.6414
49.0800 16.3434 -0.6402
49.1000 16.3501 -0.6403
49.1200 16.3567 -0.6408
49.1400 16.3634 -0.6395
49.1600 16.3701 -0.6435
49.1800 16.3767 -0.6458
49.2000 16.3833 -0.6417
49.2200 16.3899 -0.6465
49.2400 16.3966 -0.6456
49.2600 16.4033 -0.6499
49.2800 16.4100 -0.6515
49.3000 16.4166 -0.6436
49.3200 16.4233 -0.6503
49.3400 16.4300 -0.6550
49.3600 16.4367 -0.6469
49.3800 16.4433 -0.6505
49.4000 16.4499 -0.6537
49.4200 16.4566 -0.6477
49.4400 16.4633 -0.6592
49.4600 16.4700 -0.6582
49.4800 16.4767 -0.6518
49.5000 16.4834 -0.6621
49.5200 16.4901 -0.6603
49.5400 16.4967 -0.6556
49.5600 16.5033 -0.6633
49.5800 16.5099 -0.6569
49.6000 16.5166 -0.6552
49.6200 16.5234 -0.6675
49.6400 16.5301 -0.6681
49.6600 16.5367 -0.6588
49.6800 16.5434 -0.6722
49.7000 16.5501 -0.6639
49.7200 16.5567 -0.6647
49.7400 16.5633 -0.6689
49.7600 16.5699 -0.6703
49.7800 16.5766 -0.6644
49.8000 16.5834 -0.6723
49.8200 16.5901 -0.6741
49.8400 16.5967 -0.6732
49.8600 16.6034 -0.6715
49.8800 16.6101 -0.6751
49.9000 16.6167 -0.6762
49.9200 16.6233 -0.6793
49.9400 16.6300 -0.6770
49.9600 16.6366 -0.6728
49.9800 16.6433 -0.6844
50.0000 16.6500 -0.6782
50.0200 16.6567 -0.6796
50.0400 16.6634 -0.6859
50.0600 16.6701 -0.6843
50.0800 16.6767 -0.6777
50.1000 16.6833 -0.6815
50.1200 16.6899 -0.6884
50.1400 16.6966 -0.6869
50.1600 16.7033 -0.6836
50.1800 16.7100 -0.6907
50.2000 16.7167 -0.6878
50.2200 16.7234 -0.6880
50.2400 16.7300 -0.6954
50.2600 16.7367 -0.6912
50.2800 16.7433 -0.6886
50.3000 16.7499 -0.6964
50.3200 16.7566 -0.6902
50.3400 16.7633 -0.6930
50.3600 16.7700 -0.7003
50.3800 16.7767 -0.6941
50.4000 16.7834 -0.6919
50.4200 16.7901 -0.7084
50.4400 16.7967 -0.6958
50.4600 16.8033 -0.7000
50.4800 16.8099 -0.7076
50.5000 16.8166 -0.6986
50.5200 16.8233 -0.7021
50.5400 16.8300 -0.7076
50.5600 16.8367 -0.6985
50.5800 16.8434 -0.7073
50.6000 16.8501 -0.7131
50.6200 16.8567 -0.7026
50.6400 16.8633 -0.7083
50.6600 16.8699 -0.7156
50.6800 16.8766 -0.7012
50.7000 16.8833 -0.7132
50.7200 16.8901 -0.7156
50.7400 16.8967 -0.7071
50.7600 16.9034 -0.7162
50.7800 16.9101 -0.7110
50.8000 16.9167 -0.7111
50.8200 16.9233 -0.7171
50.8400 16.9299 -0.7175
50.8600 16.9366 -0.7143
50.8800 16.9433 -0.7191
50.9000 16.9500 -0.7185
50.9200 16.9567 -0.7177
50.9400 16.9633 -0.7167
50.9600 16.9700 -0.7220
50.9800 16.9767 -0.7190
51.0000 16.9833 -0.7209
51.0200 16.9899 -0.7184
51.0400 16.9966 -0.7271
51.0600 17.0033 -0.7229
51.0800 17.0100 -0.7232
51.1000 17.0167 -0.7301
51.1200 17.0234 -0.7247
51.1400 17.0301 -0.7281
51.1600 17.0367 -0.7303
51.1800 17.0433 -0.7263
51.2000 17.0500 -0.7296
51.2200 17.0566 -0.7352
51.2400 17.0633 -0.7291
51.2600 17.0701 -0.7376
51.2800 17.0767 -0.7314
51.3000 17.0834 -0.7335
51.3200 17.0901 -0.7422
51.3400 17.0967 -0.7376
51.3600 17.1033 -0.7325
51.3800 17.1099 -0.7428
51.4000 17.1166 -0.7404
51.4200 17.1233 -0.7377
51.4400 17.1300 -0.7482
51.4600 17.1367 -0.7412
51.4800 17.1434 -0.7346
51.5000 17.1501 -0.7536
51.5200 17.1567 -0.7396
51.5400 17.1633 -0.7439
51.5600 17.1699 -0.7528
51.5800 17.1766 -0.7414
51.6000 17.1833 -0.7501
51.6200 17.1900 -0.7576
51.6400 17.1967 -0.7461
51.6600 17.2034 -0.7513
51.6800 17.2101 -0.7642
51.7000 17.2167 -0.7494
51.7200 17.2233 -0.7490
51.7400 17.2299 -0.7578
51.7600 17.2366 -0.7495
51.7800 17.2433 -0.7585
51.8000 17.2500 -0.7633
51.8200 17.2567 -0.7499
51.8400 17.2634 -0.7652
51.8600 17.2701 -0.7655
51.8800 17.2767 -0.7570
51.9000 17.2834 -0.7677
51.9200 17.2900 -0.7665
51.9400 17.2966 -0.7506
51.9600 17.3033 -0.7715
51.9800 17.3100 -0.7688
52.0000 17.3167 -0.7602
52.0200 17.3234 -0.7720
52.0400 17.3301 -0.7662
52.0600 17.3368 -0.7663
52.0800 17.3433 -0.7768
52.1000 17.3499 -0.7615
52.1200 17.3566 -0.7712
52.1400 17.3633 -0.7762
52.1600 17.3700 -0.7711
52.1800 17.3767 -0.7741
52.2000 17.3834 -0.7797
52.2200 17.3901 -0.7694
52.2400 17.3967 -0.7786
52.2600 17.4033 -0.7831
52.2800 17.4099 -0.7769
52.3000 17.4166 -0.7780
52.3200 17.4233 -0.7774
52.3400 17.4300 -0.7800
52.3600 17.4366 -0.7844
52.3800 17.4433 -0.7835
52.4000 17.4500 -0.7810
52.4200 17.4567 -0.7899
52.4400 17.4633 -0.7848
52.4600 17.4699 -0.7860
52.4800 17.4766 -0.7930
52.5000 17.4833 -0.7871
52.5200 17.4900 -0.7877
52.5400 17.4967 -0.7953
52.5600 17.5034 -0.7815
52.5800 17.5101 -0.7986
52.6000 17.5168 -0.8006
52.6200 17.5234 -0.7880
52.6400 17.5300 -0.7951
52.6600 17.5366 -0.7984
52.6800 17.5433 -0.7931
52.7000 17.5500 -0.7988
52.7200 17.5567 -0.7972
52.7400 17.5634 -0.7942
52.7600 17.5701 -0.8041
52.7800 17.5767 -0.8038
52.8000 17.5833 -0.7960
52.8200 17.5899 -0.8060
52.8400 17.5966 -0.7963
52.8600 17.6033 -0.8015
52.8800 17.6100 -0.8105
52.9000 17.6167 -0.7994
52.9200 17.6234 -0.8050
52.9400 17.6300 -0.8047
52.9600 17.6367 -0.8076
52.9800 17.6433 -0.8138
53.0000 17.6499 -0.8096
53.0200 17.6566 -0.8047
53.0400 17.6633 -0.8124
53.0600 17.6700 -0.8089
53.0800 17.6767 -0.8154
53.1000 17.6833 -0.8138
53.1200 17.6900 -0.8125
53.1400 17.6967 -0.8157
53.1600 17.7033 -0.8155
53.1800 17.7100 -0.8127
53.2000 17.7166 -0.8225
53.2200 17.7233 -0.8195
53.2400 17.7300 -0.8152
53.2600 17.7367 -0.8210
53.2800 17.7434 -0.8250
53.3000 17.7501 -0.8157
53.3200 17.7567 -0.8280
53.3400 17.7633 -0.8209
53.3600 17.7700 -0.8189
53.3800 17.7766 -0.8285
53.4000 17.7833 -0.8242
53.4200 17.7901 -0.8229
53.4400 17.7968 -0.8393
53.4600 17.8034 -0.8245
53.4800 17.8101 -0.8244
53.5000 17.8167 -0.8380
53.5200 17.8234 -0.8231
53.5400 17.8300 -0.8314
53.5600 17.8366 -0.8363
53.5800 17.8433 -0.8328
53.6000 17.8500 -0.8339
53.6200 17.8567 -0.8379
53.6400 17.8633 -0.8327
53.6600 17.8700 -0.8430
53.6800 17.8767 -0.8404
53.7000 17.8833 -0.8348
53.7200 17.8899 -0.8376
53.7400 17.8965 -0.8438
53.7600 17.9033 -0.8396
53.7800 17.9100 -0.8442
53.8000 17.9167 -0.8454
53.8200 17.9234 -0.8439
53.8400 17.9300 -0.8473
53.8600 17.9367 -0.8516
53.8800 17.9434 -0.8451
53.9000 17.9500 -0.8447
53.9200 17.9566 -0.8518
53.9400 17.9633 -0.8500
53.9600 17.9700 -0.8456
53.9800 17.9767 -0.8571
54.0000 17.9834 -0.8546
54.0200 17.9901 -0.8485
54.0400 17.9968 -0.8592
54.0600 18.0034 -0.8573
54.0800 18.0100 -0.8465
54.1000 18.0166 -0.8599
54.1200 18.0233 -0.8559
54.1400 18.0300 -0.8552
54.1600 18.0367 -0.8663
54.1800 18.0434 -0.8559
54.2000 18.0501 -0.8601
54.2200 18.0568 -0.8703
54.2400 18.0634 -0.8595
54.2600 18.0700 -0.8605
54.2800 18.0766 -0.8649
54.3000 18.0833 -0.8567
54.3200 18.0900 -0.8658
54.3400 18.0967 -0.8662
54.3600 18.1034 -0.8620
54.3800 18.1101 -0.8667
54.4000 18.1167 -0.8774
54.4200 18.1233 -0.8668
54.4400 18.1299 -0.8754
54.4600 18.1366 -0.8711
54.4800 18.1433 -0.8666
54.5000 18.1500 -0.8775
54.5200 18.1567 -0.8777
54.5400 18.1633 -0.8742
54.5600 18.1700 -0.8744
54.5800 18.1767 -0.8797
54.6000 18.1833 -0.8798
54.6200 18.1899 -0.8811
54.6400 18.1966 -0.8819
54.6600 18.2033 -0.8810
54.6800 18.2100 -0.8836
54.7000 18.2167 -0.8902
54.7200 18.2234 -0.8851
54.7400 18.2301 -0.8864
54.7600 18.2368 -0.8939
54.7800 18.2434 -0.8850
54.8000 18.2500 -0.8915
54.8200 18.2566 -0.8953
54.8400 18.2633 -0.8919
54.8600 18.2700 -0.8927
54.8800 18.2768 -0.8954
54.9000 18.2834 -0.8958
54.9200 18.2901 -0.8933
54.9400 18.2967 -0.9035
54.9600 18.3034 -0.8970
54.9800 18.3100 -0.9036
55.0000 18.3166 -0.8982
55.0200 18.3233 -0.8961
55.0400 18.3300 -0.9054
55.0600 18.3367 -0.9082
55.0800 18.3433 -0.8968
55.1000 18.3500 -0.9066
55.1200 18.3567 -0.9066
55.1400 18.3633 -0.9043
55.1600 18.3699 -0.9076
55.1800 18.3766 -0.9141
55.2000 18.3832 -0.9105
55.2200 18.3899 -0.9109
55.2400 18.3966 -0.9102
55.2600 18.4033 -0.9167
55.2800 18.4100 -0.9094
55.3000 18.4167 -0.9125
55.3200 18.4233 -0.9219
55.3400 18.4299 -0.9139
55.3600 18.4366 -0.9176
55.3800 18.4433 -0.9229
55.4000 18.4500 -0.9183
55.4200 18.4567 -0.9261
55.4400 18.4634 -0.9249
55.4600 18.4701 -0.9144
55.4800 18.4768 -0.9300
55.5000 18.4834 -0.9300
55.5200 18.4900 -0.9200
55.5400 18.4967 -0.9323
55.5600 18.5033 -0.9374
55.5800 18.5100 -0.9235
55.6000 18.5167 -0.9340
55.6200 18.5234 -0.9360
55.6400 18.5301 -0.9320
55.6600 18.5368 -0.9333
55.6800 18.5434 -0.9391
55.7000 18.5500 -0.9324
55.7200 18.5566 -0.9382
55.7400 18.5633 -0.9397
55.7600 18.5700 -0.9408
55.7800 18.5767 -0.9435
55.8000 18.5834 -0.9361
55.8200 18.5900 -0.9462
55.8400 18.5967 -0.9516
55.8600 18.6034 -0.9387
55.8800 18.6100 -0.9420
55.9000 18.6166 -0.9485
55.9200 18.6232 -0.9454
55.9400 18.6300 -0.9459
55.9600 18.6367 -0.9541
55.9800 18.6433 -0.9478
56.0000 18.6500 -0.9398
56.0200 18.6567 -0.9577
56.0400 18.6634 -0.9539
56.0600 18.6700 -0.9449
56.0800 18.6766 -0.9564
56.1000 18.6833 -0.9556
56.1200 18.6900 -0.9505
56.1400 18.6967 -0.9676
56.1600 18.7034 -0.9615
56.1800 18.7101 -0.9566
56.2000 18.7168 -0.9624
56.2200 18.7234 -0.9645
56.2400 18.7300 -0.9625
56.2600 18.7366 -0.9608
56.2800 18.7433 -0.9623
56.3000 18.7500 -0.9626
56.3200 18.7567 -0.9710
56.3400 18.7634 -0.9674
56.3600 18.7701 -0.9661
56.3800 18.7767 -0.9735
56.4000 18.7834 -0.9650
56.4200 18.7900 -0.9718
56.4400 18.7966 -0.9789
56.4600 18.8033 -0.9690
56.4800 18.8100 -0.9728
56.5000 18.8167 -0.9773
56.5200 18.8234 -0.9739
56.5400 18.8300 -0.9846
56.5600 18.8367 -0.9806
56.5800 18.8434 -0.9752
56.6000 18.8500 -0.9889
56.6200 18.8566 -0.9823
56.6400 18.8632 -0.9779
56.6600 18.8699 -0.9908
56.6800 18.8766 -0.9849
56.7000 18.8833 -0.9828
56.7200 18.8900 -0.9989
56.7400 18.8967 -0.9869
56.7600 18.9034 -0.9883
56.7800 18.9100 -0.9956
56.8000 18.9166 -0.9888
56.8200 18.9233 -0.9929
56.8400 18.9300 -1.0015
56.8600 18.9367 -0.9921
56.8800 18.9434 -0.9964
56.9000 18.9501 -1.0013
56.9200 18.9568 -0.9980
56.9400 18.9634 -1.0085
56.9600 18.9700 -1.0017
56.9800 18.9766 -0.9965
57.0000 18.9833 -1.0136
57.0200 18.9900 -1.0002
57.0400 18.9967 -1.0036
57.0600 19.0034 -1.0121
57.0800 19.0100 -1.0085
57.1000 19.0167 -1.0091
57.1200 19.0234 -1.0139
57.1400 19.0300 -1.0164
57.1600 19.0366 -1.0153
57.1800 19.0432 -1.0176
57.2000 19.0499 -1.0160
57.2200 19.0567 -1.0227
57.2400 19.0634 -1.0190
57.2600 19.0700 -1.0165
57.2800 19.0767 -1.0273
57.3000 19.0834 -1.0281
57.3200 19.0900 -1.0258
57.3400 19.0966 -1.0274
57.3600 19.1032 -1.0291
57.3800 19.1099 -1.0336
57.4000 19.1167 -1.0256
57.4200 19.1234 -1.0328
57.4400 19.1300 -1.0410
57.4600 19.1367 -1.0329
57.4800 19.1434 -1.0304
57.5000 19.1500 -1.0468
57.5200 19.1566 -1.0408
57.5400 19.1633 -1.0385
57.5600 19.1700 -1.0452
57.5800 19.1767 -1.0422
57.6000 19.1834 -1.0491
57.6200 19.1901 -1.0491
57.6400 19.1967 -1.0381
57.6600 19.2034 -1.0529
57.6800 19.2100 -1.0581
57.7000 19.2166 -1.0441
57.7200 19.2233 -1.0507
57.7400 19.2300 -1.0653
57.7600 19.2367 -1.0510
57.7800 19.2434 -1.0513
57.8000 19.2501 -1.0625
57.8200 19.2568 -1.0572
57.8400 19.2634 -1.0622
57.8600 19.2700 -1.0616
57.8800 19.2766 -1.0647
57.9000 19.2832 -1.0675
57.9200 19.2899 -1.0640
57.9400 19.2967 -1.0663
57.9600 19.3033 -1.0725
57.9800 19.3100 -1.0706
58.0000 19.3167 -1.0705
58.0200 19.3234 -1.0697
58.0400 19.3300 -1.0759
58.0600 19.3366 -1.0740
58.0800 19.3432 -1.0738
58.1000 19.3499 -1.0780
58.1200 19.3567 -1.0823
58.1400 19.3633 -1.0723
58.1600 19.3700 -1.0805
58.1800 19.3767 -1.0905
58.2000 19.3834 -1.0809
58.2200 19.3900 -1.0813
58.2400 19.3966 -1.0892
58.2600 19.4033 -1.0872
58.2800 19.4100 -1.0924
58.3000 19.4167 -1.0914
58.3200 19.4234 -1.0898
58.3400 19.4300 -1.0929
58.3600 19.4368 -1.0959
58.3800 19.4434 -1.0923
58.4000 19.4501 -1.1000
58.4200 19.4566 -1.0959
58.4400 19.4633 -1.0885
58.4600 19.4700 -1.1084
58.4800 19.4767 -1.1040
58.5000 19.4834 -1.0958
58.5200 19.4901 -1.1067
58.5400 19.4967 -1.1064
58.5600 19.5034 -1.0988
58.5800 19.5100 -1.1151
58.6000 19.5166 -1.1047
58.6200 19.5233 -1.0991
58.6400 19.5300 -1.1133
58.6600 19.5367 -1.1159
58.6800 19.5434 -1.1087
58.7000 19.5500 -1.1170
58.7200 19.5567 -1.1146
58.7400 19.5634 -1.1099
58.7600 19.5700 -1.1255
58.7800 19.5766 -1.1204
58.8000 19.5832 -1.1067
58.8200 19.5899 -1.1303
58.8400 19.5966 -1.1204
58.8600 19.6033 -1.1158
58.8800 19.6100 -1.1301
58.9000 19.6167 -1.1270
58.9200 19.6234 -1.1244
58.9400 19.6300 -1.1344
58.9600 19.6366 -1.1279
58.9800 19.6433 -1.1294
59.0000 19.6500 -1.1390
59.0200 19.6567 -1.1297
59.0400 19.6634 -1.1319
59.0600 19.6701 -1.1483
59.0800 19.6768 -1.1366
59.1000 19.6834 -1.1350
59.1200 19.6901 -1.1524
59.1400 19.6967 -1.1385
59.1600 19.7033 -1.1405
59.1800 19.7100 -1.1477
59.2000 19.7167 -1.1453
59.2200 19.7234 -1.1417
59.2400 19.7301 -1.1576
59.2600 19.7367 -1.1487
59.2800 19.7434 -1.1523
59.3000 19.7500 -1.1727
59.3010 19.7503 -1.1744
