Raw Data
Time Displacement Force
(s) (mm) (N)
0.0000 0.0001 0.1819
0.0200 0.0001 0.1899
0.0400 0.0009 0.2309
0.0600 0.0041 0.3007
0.0800 0.0097 0.2876
0.1000 0.0156 0.3088
0.1200 0.0215 0.3891
0.1400 0.0281 0.4243
0.1600 0.0353 0.4489
0.1800 0.0427 0.5203
0.2000 0.0499 0.5618
0.2200 0.0567 0.6013
0.2400 0.0634 0.6684
0.2600 0.0701 0.7077
0.2800 0.0768 0.7451
0.3000 0.0835 0.8150
0.3200 0.0902 0.8466
0.3400 0.0969 0.8945
0.3600 0.1036 0.9549
0.3800 0.1102 0.9867
0.4000 0.1169 1.0417
0.4200 0.1235 1.0957
0.4400 0.1303 1.1387
0.4600 0.1369 1.1900
0.4800 0.1436 1.2398
0.5000 0.1503 1.2710
0.5200 0.1570 1.2843
0.5400 0.1636 1.2836
0.5600 0.1702 1.2857
0.5800 0.1768 1.2901
0.6000 0.1835 1.2820
0.6200 0.1903 1.2852
0.6400 0.1970 1.2931
0.6600 0.2036 1.2826
0.6800 0.2103 1.2933
0.7000 0.2170 1.2954
0.7200 0.2236 1.2836
0.7400 0.2302 1.2955
0.7600 0.2369 1.3032
0.7800 0.2435 1.2830
0.8000 0.2502 1.2984
0.8200 0.2569 1.3053
0.8400 0.2636 1.2879
0.8600 0.2703 1.3067
0.8800 0.2769 1.3023
0.9000 0.2836 1.2875
0.9200 0.2902 1.3185
0.9400 0.2968 1.3048
0.9600 0.3035 1.2914
0.9800 0.3102 1.3196
1.0000 0.3169 1.3034
1.0200 0.3236 1.2969
1.0400 0.3303 1.3173
1.0600 0.3369 1.3044
1.0800 0.3436 1.3022
1.1000 0.3502 1.3172
1.1200 0.3568 1.3053
1.1400 0.3635 1.3059
1.1600 0.3702 1.3174
1.1800 0.3770 1.3035
1.2000 0.3836 1.3062
1.2200 0.3903 1.3182
1.2400 0.3970 1.3031
1.2600 0.4036 1.3104
1.2800 0.4102 1.3076
1.3000 0.4169 1.3074
1.3200 0.4236 1.3108
1.3400 0.4303 1.3080
1.3600 0.4370 1.3010
1.3800 0.4436 1.3090
1.4000 0.4503 1.3056
1.4200 0.4570 1.2974
1.4400 0.4636 1.3051
1.4600 0.4702 1.3036
1.4800 0.4768 1.2951
1.5000 0.4835 1.3041
1.5200 0.4902 1.2988
1.5400 0.4969 1.2986
1.5600 0.5036 1.2944
1.5800 0.5103 1.2909
1.6000 0.5170 1.2954
1.6200 0.5236 1.2908
1.6400 0.5302 1.2870
1.6600 0.5368 1.2888
1.6800 0.5435 1.2885
1.7000 0.5503 1.2825
1.7200 0.5570 1.2829
1.7400 0.5636 1.2793
1.7600 0.5703 1.2789
1.7800 0.5770 1.2796
1.8000 0.5836 1.2694
1.8200 0.5902 1.2716
1.8400 0.5969 1.2773
1.8600 0.6036 1.2650
1.8800 0.6103 1.2663
1.9000 0.6169 1.2688
1.9200 0.6236 1.2601
1.9400 0.6303 1.2595
1.9600 0.6370 1.2599
1.9800 0.6437 1.2493
2.0000 0.6502 1.2612
2.0200 0.6568 1.2574
2.0400 0.6635 1.2449
2.0600 0.6702 1.2511
2.0800 0.6770 1.2502
2.1000 0.6836 1.2396
2.1200 0.6903 1.2492
2.1400 0.6970 1.2452
2.1600 0.7036 1.2336
2.1800 0.7102 1.2433
2.2000 0.7169 1.2406
2.2200 0.7235 1.2301
2.2400 0.7303 1.2393
2.2600 0.7370 1.2380
2.2800 0.7436 1.2229
2.3000 0.7503 1.2347
2.3200 0.7569 1.2319
2.3400 0.7636 1.2223
2.3600 0.7702 1.2304
2.3800 0.7768 1.2286
2.4000 0.7835 1.2149
2.4200 0.7902 1.2283
2.4400 0.7969 1.2263
2.4600 0.8036 1.2158
2.4800 0.8103 1.2212
2.5000 0.8170 1.2226
2.5200 0.8237 1.2042
2.5400 0.8303 1.2171
2.5600 0.8369 1.2161
2.5800 0.8435 1.2101
2.6000 0.8503 1.2112
2.6200 0.8570 1.2138
2.6400 0.8637 1.2068
2.6600 0.8703 1.2174
2.6800 0.8770 1.2084
2.7000 0.8836 1.2013
2.7200 0.8902 1.2088
2.7400 0.8969 1.2044
2.7600 0.9035 1.1931
2.7800 0.9102 1.2033
2.8000 0.9170 1.2027
2.8200 0.9236 1.1946
2.8400 0.9303 1.1997
2.8600 0.9370 1.1944
2.8800 0.9437 1.1945
2.9000 0.9503 1.2004
2.9200 0.9569 1.1922
2.9400 0.9635 1.1878
2.9600 0.9702 1.1959
2.9800 0.9769 1.1874
3.0000 0.9836 1.1873
3.0200 0.9903 1.1950
3.0400 0.9970 1.1873
3.0600 1.0036 1.1827
3.0800 1.0102 1.1937
3.1000 1.0168 1.1872
3.1200 1.0235 1.1897
3.1400 1.0302 1.1874
3.1600 1.0369 1.1760
3.1800 1.0436 1.1873
3.2000 1.0503 1.1847
3.2200 1.0570 1.1738
3.2400 1.0636 1.1828
3.2600 1.0702 1.1813
3.2800 1.0769 1.1771
3.3000 1.0835 1.1798
3.3200 1.0902 1.1795
3.3400 1.0969 1.1745
3.3600 1.1036 1.1799
3.3800 1.1103 1.1710
3.4000 1.1170 1.1741
3.4200 1.1237 1.1749
3.4400 1.1303 1.1710
3.4600 1.1369 1.1713
3.4800 1.1435 1.1718
3.5000 1.1502 1.1678
3.5200 1.1569 1.1665
3.5400 1.1636 1.1725
3.5600 1.1703 1.1635
3.5800 1.1770 1.1622
3.6000 1.1836 1.1633
3.6200 1.1902 1.1567
3.6400 1.1968 1.1631
3.6600 1.2035 1.1665
3.6800 1.2102 1.1584
3.7000 1.2169 1.1573
3.7200 1.2236 1.1547
3.7400 1.2303 1.1595
3.7600 1.2370 1.1555
3.7800 1.2436 1.1534
3.8000 1.2502 1.1484
3.8200 1.2568 1.1497
3.8400 1.2635 1.1510
3.8600 1.2702 1.1504
3.8800 1.2769 1.1456
3.9000 1.2836 1.1473
3.9200 1.2902 1.1462
3.9400 1.2969 1.1398
3.9600 1.3036 1.1483
3.9800 1.3103 1.1431
4.0000 1.3169 1.1349
4.0200 1.3235 1.1492
4.0400 1.3302 1.1344
4.0600 1.3369 1.1351
4.0800 1.3436 1.1429
4.1000 1.3503 1.1303
4.1200 1.3570 1.1309
4.1400 1.3636 1.1366
4.1600 1.3703 1.1305
4.1800 1.3769 1.1265
4.2000 1.3835 1.1365
4.2200 1.3902 1.1251
4.2400 1.3970 1.1276
4.2600 1.4037 1.1318
4.2800 1.4103 1.1204
4.3000 1.4170 1.1216
4.3200 1.4237 1.1297
4.3400 1.4303 1.1132
4.3600 1.4369 1.1213
4.3800 1.4435 1.1225
4.4000 1.4502 1.1209
4.4200 1.4569 1.1142
4.4400 1.4636 1.1241
4.4600 1.4702 1.1141
4.4800 1.4769 1.1118
4.5000 1.4836 1.1154
4.5200 1.4903 1.1102
4.5400 1.4969 1.1100
4.5600 1.5035 1.1149
4.5800 1.5102 1.1072
4.6000 1.5169 1.1063
4.6200 1.5236 1.1191
4.6400 1.5303 1.1060
4.6600 1.5370 1.0978
4.6800 1.5436 1.1131
4.7000 1.5503 1.0979
4.7200 1.5569 1.0987
4.7400 1.5635 1.1122
4.7600 1.5702 1.0930
4.7800 1.5770 1.0955
4.8000 1.5837 1.1021
4.8200 1.5903 1.0940
4.8400 1.5970 1.0966
4.8600 1.6037 1.1042
4.8800 1.6103 1.0820
4.9000 1.6169 1.0904
4.9200 1.6235 1.0963
4.9400 1.6302 1.0830
4.9600 1.6369 1.0888
4.9800 1.6436 1.0970
5.0000 1.6503 1.0824
5.0200 1.6570 1.0880
5.0400 1.6637 1.0929
5.0600 1.6703 1.0839
5.0800 1.6769 1.0814
5.1000 1.6835 1.0895
5.1200 1.6902 1.0763
5.1400 1.6969 1.0738
5.1600 1.7036 1.0846
5.1800 1.7103 1.0747
5.2000 1.7170 1.0677
5.2200 1.7236 1.0829
5.2400 1.7303 1.0686
5.2600 1.7369 1.0684
5.2800 1.7435 1.0832
5.3000 1.7502 1.0686
5.3200 1.7569 1.0632
5.3400 1.7636 1.0741
5.3600 1.7703 1.0665
5.3800 1.7769 1.0603
5.4000 1.7836 1.0748
5.4200 1.7903 1.0632
5.4400 1.7969 1.0639
5.4600 1.8035 1.0707
5.4800 1.8102 1.0601
5.5000 1.8169 1.0591
5.5200 1.8236 1.0701
5.5400 1.8303 1.0528
5.5600 1.8370 1.0557
5.5800 1.8437 1.0683
5.6000 1.8503 1.0537
5.6200 1.8569 1.0532
5.6400 1.8635 1.0638
5.6600 1.8702 1.0432
5.6800 1.8769 1.0542
5.7000 1.8836 1.0585
5.7200 1.8903 1.0492
5.7400 1.8970 1.0515
5.7600 1.9036 1.0476
5.7800 1.9103 1.0431
5.8000 1.9169 1.0497
5.8200 1.9235 1.0526
5.8400 1.9302 1.0406
5.8600 1.9369 1.0404
5.8800 1.9436 1.0463
5.9000 1.9502 1.0446
5.9200 1.9569 1.0414
5.9400 1.9636 1.0399
5.9600 1.9702 1.0376
5.9800 1.9769 1.0377
6.0000 1.9835 1.0348
6.0200 1.9902 1.0370
6.0400 1.9969 1.0304
6.0600 2.0036 1.0303
6.0800 2.0103 1.0269
6.1000 2.0170 1.0314
6.1200 2.0237 1.0301
6.1400 2.0303 1.0272
6.1600 2.0369 1.0258
6.1800 2.0435 1.0259
6.2000 2.0502 1.0192
6.2200 2.0569 1.0243
6.2400 2.0636 1.0232
6.2600 2.0703 1.0194
6.2800 2.0770 1.0126
6.3000 2.0837 1.0199
6.3200 2.0903 1.0172
6.3400 2.0969 1.0130
6.3600 2.1035 1.0201
6.3800 2.1102 1.0158
6.4000 2.1169 1.0086
6.4200 2.1236 1.0094
6.4400 2.1303 1.0123
6.4600 2.1370 1.0076
6.4800 2.1437 1.0056
6.5000 2.1503 1.0041
6.5200 2.1569 1.0008
6.5400 2.1636 1.0107
6.5600 2.1702 1.0087
6.5800 2.1769 0.9986
6.6000 2.1836 1.0065
6.6200 2.1903 0.9960
6.6400 2.1970 0.9954
6.6600 2.2037 0.9994
6.6800 2.2103 0.9991
6.7000 2.2169 0.9927
6.7200 2.2235 0.9991
6.7400 2.2301 0.9935
6.7600 2.2369 0.9987
6.7800 2.2436 0.9964
6.8000 2.2503 0.9866
6.8200 2.2570 0.9911
6.8400 2.2636 0.9949
6.8600 2.2703 0.9839
6.8800 2.2769 0.9878
6.9000 2.2835 0.9890
6.9200 2.2902 0.9846
6.9400 2.2969 0.9859
6.9600 2.3036 0.9926
6.9800 2.3103 0.9883
7.0000 2.3170 0.9844
7.0200 2.3237 0.9834
7.0400 2.3303 0.9782
7.0600 2.3369 0.9818
7.0800 2.3435 0.9833
7.1000 2.3502 0.9763
7.1200 2.3569 0.9814
7.1400 2.3636 0.9790
7.1600 2.3703 0.9723
7.1800 2.3770 0.9804
7.2000 2.3837 0.9749
7.2200 2.3903 0.9768
7.2400 2.3969 0.9743
7.2600 2.4035 0.9711
7.2800 2.4102 0.9703
7.3000 2.4169 0.9755
7.3200 2.4236 0.9682
7.3400 2.4303 0.9713
7.3600 2.4369 0.9686
7.3800 2.4436 0.9620
7.4000 2.4503 0.9696
7.4200 2.4569 0.9681
7.4400 2.4635 0.9599
7.4600 2.4702 0.9685
7.4800 2.4769 0.9607
7.5000 2.4836 0.9604
7.5200 2.4902 0.9639
7.5400 2.4969 0.9589
7.5600 2.5036 0.9550
7.5800 2.5103 0.9596
7.6000 2.5169 0.9535
7.6200 2.5235 0.9559
7.6400 2.5302 0.9628
7.6600 2.5369 0.9478
7.6800 2.5436 0.9501
7.7000 2.5503 0.9534
7.7200 2.5570 0.9496
7.7400 2.5637 0.9467
7.7600 2.5703 0.9547
7.7800 2.5769 0.9459
7.8000 2.5835 0.9440
7.8200 2.5902 0.9500
7.8400 2.5969 0.9433
7.8600 2.6036 0.9407
7.8800 2.6103 0.9486
7.9000 2.6170 0.9359
7.9200 2.6236 0.9406
7.9400 2.6303 0.9427
7.9600 2.6369 0.9376
7.9800 2.6435 0.9382
8.0000 2.6502 0.9376
8.0200 2.6569 0.9333
8.0400 2.6636 0.9371
8.0600 2.6703 0.9346
8.0800 2.6769 0.9351
8.1000 2.6836 0.9310
8.1200 2.6903 0.9310
8.1400 2.6969 0.9289
8.1600 2.7035 0.9295
8.1800 2.7101 0.9299
8.2000 2.7168 0.9277
8.2200 2.7236 0.9194
8.2400 2.7303 0.9242
8.2600 2.7370 0.9282
8.2800 2.7437 0.9191
8.3000 2.7503 0.9230
8.3200 2.7569 0.9246
8.3400 2.7635 0.9215
8.3600 2.7702 0.9160
8.3800 2.7769 0.9213
8.4000 2.7836 0.9114
8.4200 2.7903 0.9199
8.4400 2.7970 0.9153
8.4600 2.8036 0.9111
8.4800 2.8103 0.9185
8.5000 2.8169 0.9153
8.5200 2.8236 0.9042
8.5400 2.8302 0.9193
8.5600 2.8369 0.9080
8.5800 2.8436 0.9019
8.6000 2.8503 0.9095
8.6200 2.8570 0.9056
8.6400 2.8637 0.9034
8.6600 2.8703 0.9068
8.6800 2.8770 0.9013
8.7000 2.8835 0.9044
8.7200 2.8902 0.9119
8.7400 2.8969 0.9052
8.7600 2.9036 0.8944
8.7800 2.9103 0.9011
8.8000 2.9170 0.8964
8.8200 2.9236 0.8953
8.8400 2.9303 0.8941
8.8600 2.9369 0.8946
8.8800 2.9435 0.8935
8.9000 2.9501 0.8960
8.9200 2.9568 0.8986
8.9400 2.9635 0.8913
8.9600 2.9702 0.8940
8.9800 2.9769 0.8909
9.0000 2.9836 0.8821
9.0200 2.9903 0.8845
9.0400 2.9969 0.8919
9.0600 3.0035 0.8799
9.0800 3.0102 0.8856
9.1000 3.0169 0.8910
9.1200 3.0236 0.8801
9.1400 3.0303 0.8821
9.1600 3.0370 0.8910
9.1800 3.0437 0.8792
9.2000 3.0503 0.8769
9.2200 3.0570 0.8839
9.2400 3.0636 0.8784
9.2600 3.0702 0.8772
9.2800 3.0769 0.8846
9.3000 3.0836 0.8705
9.3200 3.0903 0.8769
9.3400 3.0970 0.8823
9.3600 3.1037 0.8710
9.3800 3.1103 0.8721
9.4000 3.1169 0.8759
9.4200 3.1235 0.8675
9.4400 3.1302 0.8683
9.4600 3.1369 0.8724
9.4800 3.1436 0.8674
9.5000 3.1503 0.8691
9.5200 3.1570 0.8677
9.5400 3.1636 0.8645
9.5600 3.1703 0.8662
9.5800 3.1770 0.8670
9.6000 3.1836 0.8642
9.6200 3.1902 0.8615
9.6400 3.1969 0.8614
9.6600 3.2036 0.8593
9.6800 3.2102 0.8581
9.7000 3.2169 0.8627
9.7200 3.2236 0.8579
9.7400 3.2303 0.8513
9.7600 3.2369 0.8539
9.7800 3.2435 0.8630
9.8000 3.2502 0.8538
9.8200 3.2569 0.8557
9.8400 3.2636 0.8546
9.8600 3.2703 0.8496
9.8800 3.2770 0.8528
9.9000 3.2837 0.8553
9.9200 3.2903 0.8490
9.9400 3.2970 0.8452
9.9600 3.3036 0.8471
9.9800 3.3102 0.8488
10.0000 3.3169 0.8493
10.0200 3.3236 0.8425
10.0400 3.3303 0.8440
10.0600 3.3370 0.8483
10.0800 3.3436 0.8387
10.1000 3.3503 0.8376
10.1200 3.3569 0.8435
10.1400 3.3635 0.8387
10.1600 3.3702 0.8387
10.1800 3.3769 0.8365
10.2000 3.3836 0.8377
10.2200 3.3902 0.8359
10.2400 3.3969 0.8418
10.2600 3.4036 0.8345
10.2800 3.4103 0.8321
10.3000 3.4169 0.8329
10.3200 3.4235 0.8348
10.3400 3.4301 0.8347
10.3600 3.4368 0.8315
10.3800 3.4435 0.8292
10.4000 3.4503 0.8310
10.4200 3.4569 0.8262
10.4400 3.4636 0.8341
10.4600 3.4703 0.8306
10.4800 3.4770 0.8241
10.5000 3.4836 0.8255
10.5200 3.4902 0.8205
10.5400 3.4969 0.8231
10.5600 3.5036 0.8271
10.5800 3.5103 0.8200
10.6000 3.5169 0.8172
10.6200 3.5236 0.8273
10.6400 3.5303 0.8188
10.6600 3.5370 0.8190
10.6800 3.5436 0.8173
10.7000 3.5502 0.8102
10.7200 3.5569 0.8190
10.7400 3.5636 0.8132
10.7600 3.5703 0.8099
10.7800 3.5770 0.8187
10.8000 3.5837 0.8077
10.8200 3.5903 0.8099
10.8400 3.5970 0.8123
10.8600 3.6036 0.8117
10.8800 3.6102 0.8063
10.9000 3.6169 0.8121
10.9200 3.6236 0.8016
10.9400 3.6303 0.8029
10.9600 3.6370 0.8039
10.9800 3.6436 0.7951
11.0000 3.6503 0.8058
11.0200 3.6569 0.8061
11.0400 3.6635 0.7949
11.0600 3.6701 0.8032
11.0800 3.6768 0.8025
11.1000 3.6835 0.7981
11.1200 3.6902 0.7974
11.1400 3.6969 0.7976
11.1600 3.7036 0.7909
11.1800 3.7102 0.7916
11.2000 3.7169 0.7907
11.2200 3.7235 0.7927
11.2400 3.7302 0.7973
11.2600 3.7369 0.7836
11.2800 3.7436 0.7912
11.3000 3.7503 0.7937
11.3200 3.7570 0.7847
11.3400 3.7637 0.7919
11.3600 3.7704 0.7871
11.3800 3.7770 0.7794
11.4000 3.7836 0.7907
11.4200 3.7902 0.7851
11.4400 3.7969 0.7792
11.4600 3.8036 0.7864
11.4800 3.8103 0.7816
11.5000 3.8170 0.7711
11.5200 3.8237 0.7923
11.5400 3.8303 0.7750
11.5600 3.8370 0.7692
11.5800 3.8436 0.7849
11.6000 3.8502 0.7724
11.6200 3.8569 0.7705
11.6400 3.8636 0.7877
11.6600 3.8702 0.7662
11.6800 3.8769 0.7679
11.7000 3.8836 0.7854
11.7200 3.8903 0.7611
11.7400 3.8969 0.7684
11.7600 3.9035 0.7813
11.7800 3.9101 0.7577
11.8000 3.9168 0.7726
11.8200 3.9235 0.7769
11.8400 3.9302 0.7553
11.8600 3.9369 0.7714
11.8800 3.9436 0.7690
11.9000 3.9503 0.7530
11.9200 3.9569 0.7684
11.9400 3.9636 0.7702
11.9600 3.9702 0.7510
11.9800 3.9768 0.7678
12.0000 3.9836 0.7626
12.0200 3.9903 0.7537
12.0400 3.9970 0.7640
12.0600 4.0036 0.7588
12.0800 4.0103 0.7503
12.1000 4.0170 0.7615
12.1200 4.0236 0.7560
12.1400 4.0302 0.7520
12.1600 4.0369 0.7567
12.1800 4.0436 0.7537
12.2000 4.0503 0.7504
12.2200 4.0569 0.7509
12.2400 4.0636 0.7497
12.2600 4.0703 0.7482
12.2800 4.0770 0.7453
12.3000 4.0836 0.7484
12.3200 4.0902 0.7465
12.3400 4.0968 0.7474
12.3600 4.1035 0.7495
12.3800 4.1103 0.7439
12.4000 4.1169 0.7420
12.4200 4.1236 0.7414
12.4400 4.1303 0.7403
12.4600 4.1370 0.7367
12.4800 4.1436 0.7425
12.5000 4.1502 0.7368
12.5200 4.1568 0.7347
12.5400 4.1635 0.7414
12.5600 4.1703 0.7372
12.5800 4.1769 0.7341
12.6000 4.1836 0.7366
12.6200 4.1903 0.7286
12.6400 4.1970 0.7338
12.6600 4.2036 0.7303
12.6800 4.2102 0.7278
12.7000 4.2169 0.7306
12.7200 4.2236 0.7283
12.7400 4.2303 0.7249
12.7600 4.2370 0.7339
12.7800 4.2436 0.7249
12.8000 4.2504 0.7239
12.8200 4.2570 0.7246
12.8400 4.2636 0.7220
12.8600 4.2702 0.7259
12.8800 4.2769 0.7224
12.9000 4.2836 0.7148
12.9200 4.2903 0.7213
12.9400 4.2970 0.7155
12.9600 4.3037 0.7144
12.9800 4.3103 0.7249
13.0000 4.3170 0.7133
13.0200 4.3236 0.7091
13.0400 4.3302 0.7183
13.0600 4.3369 0.7150
13.0800 4.3436 0.7094
13.1000 4.3503 0.7125
13.1200 4.3570 0.7039
13.1400 4.3636 0.7103
13.1600 4.3703 0.7136
13.1800 4.3770 0.7063
13.2000 4.3836 0.7075
13.2200 4.3902 0.7089
13.2400 4.3968 0.7033
13.2600 4.4035 0.7061
13.2800 4.4102 0.7019
13.3000 4.4169 0.7023
13.3200 4.4236 0.6981
13.3400 4.4303 0.7037
13.3600 4.4370 0.6985
13.3800 4.4436 0.6992
13.4000 4.4502 0.7002
13.4200 4.4568 0.6981
13.4400 4.4636 0.6934
13.4600 4.4703 0.6984
13.4800 4.4770 0.6932
13.5000 4.4837 0.6867
13.5200 4.4904 0.6952
13.5400 4.4970 0.6926
13.5600 4.5036 0.6875
13.5800 4.5102 0.6938
13.6000 4.5169 0.6935
13.6200 4.5236 0.6843
13.6400 4.5303 0.6897
13.6600 4.5370 0.6852
13.6800 4.5436 0.6801
13.7000 4.5503 0.6904
13.7200 4.5570 0.6807
13.7400 4.5636 0.6761
13.7600 4.5702 0.6885
13.7800 4.5768 0.6815
13.8000 4.5835 0.6801
13.8200 4.5902 0.6847
13.8400 4.5969 0.6789
13.8600 4.6036 0.6734
13.8800 4.6103 0.6838
13.9000 4.6170 0.6668
13.9200 4.6236 0.6689
13.9400 4.6302 0.6834
13.9600 4.6368 0.6716
13.9800 4.6435 0.6714
14.0000 4.6502 0.6804
14.0200 4.6570 0.6655
14.0400 4.6636 0.6709
14.0600 4.6703 0.6761
14.0800 4.6769 0.6625
14.1000 4.6836 0.6654
14.1200 4.6902 0.6677
14.1400 4.6969 0.6598
14.1600 4.7036 0.6687
14.1800 4.7103 0.6686
14.2000 4.7170 0.6515
14.2200 4.7236 0.6671
14.2400 4.7303 0.6650
14.2600 4.7370 0.6534
14.2800 4.7436 0.6639
14.3000 4.7502 0.6584
14.3200 4.7569 0.6527
14.3400 4.7635 0.6605
14.3600 4.7703 0.6561
14.3800 4.7770 0.6541
14.4000 4.7837 0.6550
14.4200 4.7904 0.6515
14.4400 4.7970 0.6464
14.4600 4.8036 0.6592
14.4800 4.8102 0.6485
14.5000 4.8168 0.6449
14.5200 4.8235 0.6543
14.5400 4.8302 0.6513
14.5600 4.8369 0.6433
14.5800 4.8436 0.6490
14.6000 4.8502 0.6430
14.6200 4.8569 0.6385
14.6400 4.8635 0.6493
14.6600 4.8702 0.6445
14.6800 4.8768 0.6388
14.7000 4.8835 0.6428
14.7200 4.8903 0.6428
14.7400 4.8969 0.6382
14.7600 4.9036 0.6382
14.7800 4.9103 0.6404
14.8000 4.9170 0.6332
14.8200 4.9236 0.6342
14.8400 4.9303 0.6379
14.8600 4.9369 0.6333
14.8800 4.9436 0.6370
14.9000 4.9503 0.6372
14.9200 4.9570 0.6322
14.9400 4.9636 0.6387
14.9600 4.9703 0.6327
14.9800 4.9770 0.6179
15.0000 4.9836 0.6322
15.0200 4.9902 0.6312
15.0400 4.9968 0.6211
15.0600 5.0035 0.6235
15.0800 5.0103 0.6275
15.1000 5.0170 0.6188
15.1200 5.0236 0.6326
15.1400 5.0303 0.6224
15.1600 5.0370 0.6121
15.1800 5.0436 0.6257
15.2000 5.0502 0.6211
15.2200 5.0569 0.6124
15.2400 5.0636 0.6285
15.2600 5.0703 0.6134
15.2800 5.0770 0.6069
15.3000 5.0836 0.6263
15.3200 5.0903 0.6197
15.3400 5.0970 0.6074
15.3600 5.1036 0.6153
15.3800 5.1102 0.6084
15.4000 5.1168 0.6066
15.4200 5.1234 0.6206
15.4400 5.1301 0.6033
15.4600 5.1368 0.6054
15.4800 5.1436 0.6106
15.5000 5.1503 0.6058
15.5200 5.1570 0.6093
15.5400 5.1636 0.6118
15.5600 5.1702 0.5974
15.5800 5.1769 0.6032
15.6000 5.1835 0.6054
15.6200 5.1903 0.5996
15.6400 5.1970 0.6000
15.6600 5.2037 0.5977
15.6800 5.2103 0.5963
15.7000 5.2170 0.6060
15.7200 5.2237 0.5935
15.7400 5.2303 0.5985
15.7600 5.2369 0.6007
15.7800 5.2436 0.5907
15.8000 5.2503 0.5910
15.8200 5.2570 0.5965
15.8400 5.2637 0.5885
15.8600 5.2703 0.5904
15.8800 5.2770 0.5973
15.9000 5.2837 0.5872
15.9200 5.2902 0.5854
15.9400 5.2968 0.5914
15.9600 5.3035 0.5863
15.9800 5.3102 0.5873
16.0000 5.3169 0.5915
16.0200 5.3236 0.5833
16.0400 5.3303 0.5773
16.0600 5.3370 0.5827
16.0800 5.3436 0.5806
16.1000 5.3502 0.5861
16.1200 5.3568 0.5909
16.1400 5.3635 0.5756
16.1600 5.3702 0.5809
16.1800 5.3769 0.5784
16.2000 5.3836 0.5821
16.2200 5.3902 0.5793
16.2400 5.3969 0.5767
16.2600 5.4035 0.5723
16.2800 5.4102 0.5786
16.3000 5.4169 0.5739
16.3200 5.4236 0.5738
16.3400 5.4303 0.5736
16.3600 5.4370 0.5692
16.3800 5.4437 0.5703
16.4000 5.4503 0.5739
16.4200 5.4570 0.5710
16.4400 5.4637 0.5711
16.4600 5.4703 0.5624
16.4800 5.4769 0.5682
16.5000 5.4835 0.5749
16.5200 5.4902 0.5681
16.5400 5.4970 0.5635
16.5600 5.5036 0.5653
16.5800 5.5103 0.5666
16.6000 5.5170 0.5640
16.6200 5.5236 0.5615
16.6400 5.5302 0.5654
16.6600 5.5368 0.5652
16.6800 5.5435 0.5605
16.7000 5.5502 0.5638
16.7200 5.5569 0.5616
16.7400 5.5636 0.5561
16.7600 5.5703 0.5609
16.7800 5.5770 0.5639
16.8000 5.5836 0.5486
16.8200 5.5903 0.5598
16.8400 5.5969 0.5605
16.8600 5.6035 0.5557
16.8800 5.6102 0.5557
16.9000 5.6169 0.5503
16.9200 5.6236 0.5471
16.9400 5.6303 0.5543
16.9600 5.6370 0.5526
16.9800 5.6436 0.5506
17.0000 5.6502 0.5455
17.0200 5.6568 0.5491
17.0400 5.6635 0.5523
17.0600 5.6702 0.5521
17.0800 5.6769 0.5504
17.1000 5.6837 0.5434
17.1200 5.6904 0.5391
17.1400 5.6970 0.5422
17.1600 5.7037 0.5475
17.1800 5.7103 0.5375
17.2000 5.7169 0.5433
17.2200 5.7236 0.5396
17.2400 5.7303 0.5325
17.2600 5.7370 0.5446
17.2800 5.7437 0.5467
17.3000 5.7503 0.5241
17.3200 5.7570 0.5336
17.3400 5.7637 0.5388
17.3600 5.7703 0.5294
17.3800 5.7769 0.5290
17.4000 5.7835 0.5337
17.4200 5.7902 0.5263
17.4400 5.7969 0.5347
17.4600 5.8036 0.5328
17.4800 5.8103 0.5254
17.5000 5.8170 0.5271
17.5200 5.8236 0.5255
17.5400 5.8302 0.5168
17.5600 5.8368 0.5300
17.5800 5.8435 0.5254
17.6000 5.8502 0.5146
17.6200 5.8569 0.5215
17.6400 5.8636 0.5254
17.6600 5.8703 0.5185
17.6800 5.8769 0.5211
17.7000 5.8836 0.5172
17.7200 5.8903 0.5103
17.7400 5.8969 0.5184
17.7600 5.9035 0.5203
17.7800 5.9102 0.5098
17.8000 5.9169 0.5104
17.8200 5.9236 0.5153
17.8400 5.9303 0.5106
17.8600 5.9370 0.5175
17.8800 5.9437 0.5142
17.9000 5.9503 0.5042
17.9200 5.9570 0.5059
17.9400 5.9636 0.5075
17.9600 5.9703 0.5027
17.9800 5.9770 0.5145
18.0000 5.9837 0.4996
18.0200 5.9903 0.4978
18.0400 5.9970 0.5128
18.0600 6.0037 0.5040
18.0800 6.0103 0.4997
18.1000 6.0169 0.5052
18.1200 6.0235 0.4985
18.1400 6.0302 0.5027
18.1600 6.0369 0.4994
18.1800 6.0436 0.4885
18.2000 6.0503 0.4961
18.2200 6.0570 0.5017
18.2400 6.0636 0.4859
18.2600 6.0703 0.4996
18.2800 6.0769 0.4984
18.3000 6.0835 0.4858
18.3200 6.0902 0.4967
18.3400 6.0969 0.4945
18.3600 6.1036 0.4854
18.3800 6.1103 0.4947
18.4000 6.1169 0.4879
18.4200 6.1236 0.4802
18.4400 6.1303 0.4939
18.4600 6.1369 0.4812
18.4800 6.1435 0.4818
18.5000 6.1502 0.4909
18.5200 6.1569 0.4790
18.5400 6.1636 0.4804
18.5600 6.1703 0.4909
18.5800 6.1770 0.4713
18.6000 6.1837 0.4792
18.6200 6.1903 0.4935
18.6400 6.1968 0.4702
18.6600 6.2035 0.4784
18.6800 6.2102 0.4893
18.7000 6.2170 0.4653
18.7200 6.2237 0.4795
18.7400 6.2303 0.4844
18.7600 6.2370 0.4686
18.7800 6.2437 0.4713
18.8000 6.2503 0.4782
18.8200 6.2569 0.4648
18.8400 6.2635 0.4778
18.8600 6.2702 0.4719
18.8800 6.2769 0.4639
18.9000 6.2836 0.4757
18.9200 6.2903 0.4662
18.9400 6.2970 0.4694
18.9600 6.3036 0.4690
18.9800 6.3103 0.4581
19.0000 6.3169 0.4718
19.0200 6.3235 0.4724
19.0400 6.3301 0.4544
19.0600 6.3369 0.4692
19.0800 6.3436 0.4677
19.1000 6.3503 0.4484
19.1200 6.3569 0.4667
19.1400 6.3636 0.4664
19.1600 6.3703 0.4470
19.1800 6.3769 0.4695
19.2000 6.3835 0.4564
19.2200 6.3902 0.4494
19.2400 6.3970 0.4650
19.2600 6.4037 0.4566
19.2800 6.4103 0.4459
19.3000 6.4170 0.4602
19.3200 6.4237 0.4492
19.3400 6.4303 0.4464
19.3600 6.4369 0.4611
19.3800 6.4435 0.4523
19.4000 6.4502 0.4457
19.4200 6.4569 0.4586
19.4400 6.4636 0.4437
19.4600 6.4703 0.4441
19.4800 6.4770 0.4537
19.5000 6.4837 0.4403
19.5200 6.4903 0.4406
19.5400 6.4969 0.4490
19.5600 6.5035 0.4428
19.5800 6.5102 0.4433
19.6000 6.5169 0.4491
19.6200 6.5236 0.4417
19.6400 6.5303 0.4379
19.6600 6.5370 0.4401
19.6800 6.5437 0.4355
19.7000 6.5503 0.4375
19.7200 6.5569 0.4415
19.7400 6.5635 0.4302
19.7600 6.5701 0.4347
19.7800 6.5769 0.4371
19.8000 6.5836 0.4378
19.8200 6.5903 0.4335
19.8400 6.5969 0.4364
19.8600 6.6036 0.4287
19.8800 6.6102 0.4254
19.9000 6.6169 0.4324
19.9200 6.6235 0.4307
19.9400 6.6302 0.4247
19.9600 6.6369 0.4240
19.9800 6.6436 0.4268
20.0000 6.6503 0.4299
20.0200 6.6570 0.4280
20.0400 6.6637 0.4249
20.0600 6.6703 0.4179
20.0800 6.6769 0.4191
20.1000 6.6836 0.4253
20.1200 6.6902 0.4233
20.1400 6.6969 0.4148
20.1600 6.7036 0.4195
20.1800 6.7103 0.4240
20.2000 6.7170 0.4122
20.2200 6.7237 0.4203
20.2400 6.7303 0.4271
20.2600 6.7369 0.4148
20.2800 6.7435 0.4055
20.3000 6.7502 0.4145
20.3200 6.7569 0.4187
20.3400 6.7636 0.4116
20.3600 6.7703 0.4065
20.3800 6.7769 0.4186
20.4000 6.7836 0.4016
20.4200 6.7903 0.4048
20.4400 6.7969 0.4186
20.4600 6.8035 0.4129
20.4800 6.8102 0.3936
20.5000 6.8169 0.4081
20.5200 6.8236 0.4113
20.5400 6.8303 0.3975
20.5600 6.8370 0.4008
20.5800 6.8437 0.4054
20.6000 6.8503 0.3990
20.6200 6.8569 0.3993
20.6400 6.8635 0.4063
20.6600 6.8702 0.4062
20.6800 6.8769 0.3912
20.7000 6.8836 0.4007
20.7200 6.8903 0.3989
20.7400 6.8970 0.3912
20.7600 6.9037 0.3925
20.7800 6.9103 0.3941
20.8000 6.9169 0.4011
20.8200 6.9235 0.3933
20.8400 6.9302 0.3896
20.8600 6.9369 0.3944
20.8800 6.9436 0.3932
20.9000 6.9503 0.3878
20.9200 6.9570 0.3917
20.9400 6.9637 0.3896
20.9600 6.9703 0.3823
20.9800 6.9769 0.3870
21.0000 6.9836 0.3961
21.0200 6.9902 0.3852
21.0400 6.9969 0.3848
21.0600 7.0036 0.3871
21.0800 7.0103 0.3845
21.1000 7.0170 0.3813
21.1200 7.0237 0.3881
21.1400 7.0303 0.3763
21.1600 7.0369 0.3763
21.1800 7.0435 0.3869
21.2000 7.0501 0.3851
21.2200 7.0568 0.3765
21.2400 7.0636 0.3734
21.2600 7.0702 0.3792
21.2800 7.0769 0.3799
21.3000 7.0836 0.3733
21.3200 7.0903 0.3766
21.3400 7.0969 0.3708
21.3600 7.1035 0.3654
21.3800 7.1102 0.3750
21.4000 7.1169 0.3750
21.4200 7.1236 0.3690
21.4400 7.1303 0.3717
21.4600 7.1370 0.3663
21.4800 7.1437 0.3627
21.5000 7.1503 0.3739
21.5200 7.1569 0.3643
21.5400 7.1636 0.3593
21.5600 7.1702 0.3709
21.5800 7.1769 0.3588
21.6000 7.1836 0.3593
21.6200 7.1903 0.3630
21.6400 7.1970 0.3504
21.6600 7.2037 0.3648
21.6800 7.2103 0.3565
21.7000 7.2169 0.3530
21.7200 7.2235 0.3601
21.7400 7.2302 0.3598
21.7600 7.2369 0.3542
21.7800 7.2436 0.3562
21.8000 7.2503 0.3503
21.8200 7.2570 0.3472
21.8400 7.2636 0.3556
21.8600 7.2703 0.3522
21.8800 7.2769 0.3407
21.9000 7.2835 0.3531
21.9200 7.2902 0.3487
21.9400 7.2969 0.3425
21.9600 7.3036 0.3532
21.9800 7.3102 0.3473
22.0000 7.3169 0.3427
22.0200 7.3236 0.3409
22.0400 7.3303 0.3370
22.0600 7.3369 0.3479
22.0800 7.3435 0.3411
22.1000 7.3502 0.3218
22.1200 7.3569 0.3536
22.1400 7.3636 0.3563
22.1600 7.3703 0.3104
22.1800 7.3770 0.3454
22.2000 7.3837 0.3534
22.2200 7.3903 0.3025
22.2400 7.3969 0.3465
22.2600 7.4035 0.3552
22.2800 7.4102 0.2998
22.3000 7.4169 0.3357
22.3200 7.4236 0.3599
22.3400 7.4303 0.3050
22.3600 7.4370 0.3289
22.3800 7.4436 0.3510
22.4000 7.4503 0.3085
22.4200 7.4569 0.3281
22.4400 7.4635 0.3337
22.4600 7.4702 0.3126
22.4800 7.4769 0.3364
22.5000 7.4836 0.3144
22.5200 7.4903 0.3094
22.5400 7.4969 0.3472
22.5600 7.5036 0.3145
22.5800 7.5103 0.3001
22.6000 7.5169 0.3521
22.6200 7.5235 0.3090
22.6400 7.5302 0.2949
22.6600 7.5368 0.3533
22.6800 7.5436 0.3108
22.7000 7.5503 0.2816
22.7200 7.5570 0.3512
22.7400 7.5636 0.3182
22.7600 7.5703 0.2897
22.7800 7.5769 0.3356
22.8000 7.5835 0.3102
22.8200 7.5902 0.2990
22.8400 7.5969 0.3307
22.8600 7.6036 0.2887
22.8800 7.6103 0.3014
22.9000 7.6170 0.3339
22.9200 7.6236 0.2827
22.9400 7.6303 0.3126
22.9600 7.6370 0.3308
22.9800 7.6436 0.2755
23.0000 7.6502 0.3143
23.0200 7.6569 0.3278
23.0400 7.6636 0.2797
23.0600 7.6703 0.3077
23.0800 7.6770 0.3025
23.1000 7.6837 0.2841
23.1200 7.6904 0.3224
23.1400 7.6970 0.3009
23.1600 7.7036 0.2749
23.1800 7.7102 0.3188
23.2000 7.7169 0.3002
23.2200 7.7236 0.2779
23.2400 7.7303 0.3142
23.2600 7.7370 0.2884
23.2800 7.7436 0.2799
23.3000 7.7503 0.3058
23.3200 7.7569 0.2874
23.3400 7.7635 0.2917
23.3600 7.7702 0.3092
23.3800 7.7768 0.2655
23.4000 7.7835 0.2915
23.4200 7.7902 0.3095
23.4400 7.7969 0.2748
23.4600 7.8036 0.2877
23.4800 7.8103 0.2942
23.5000 7.8169 0.2726
23.5200 7.8236 0.2893
23.5400 7.8302 0.2905
23.5600 7.8369 0.2825
23.5800 7.8436 0.2839
23.6000 7.8503 0.2746
23.6200 7.8570 0.2766
23.6400 7.8637 0.2902
23.6600 7.8704 0.2726
23.6800 7.8770 0.2707
23.7000 7.8836 0.2833
23.7200 7.8902 0.2752
23.7400 7.8969 0.2769
23.7600 7.9036 0.2799
23.7800 7.9103 0.2711
23.8000 7.9170 0.2741
23.8200 7.9237 0.2753
23.8400 7.9303 0.2697
23.8600 7.9370 0.2777
23.8800 7.9436 0.2676
23.9000 7.9502 0.2694
23.9200 7.9569 0.2770
23.9400 7.9636 0.2623
23.9600 7.9703 0.2669
23.9800 7.9769 0.2769
24.0000 7.9836 0.2552
24.0200 7.9903 0.2721
24.0400 7.9970 0.2636
24.0600 8.0036 0.2551
24.0800 8.0102 0.2756
24.1000 8.0169 0.2640
24.1200 8.0235 0.2516
24.1400 8.0302 0.2714
24.1600 8.0369 0.2562
24.1800 8.0436 0.2511
24.2000 8.0503 0.2669
24.2200 8.0569 0.2522
24.2400 8.0636 0.2494
24.2600 8.0702 0.2689
24.2800 8.0769 0.2516
24.3000 8.0836 0.2462
24.3200 8.0903 0.2635
24.3400 8.0970 0.2481
24.3600 8.1037 0.2473
24.3800 8.1103 0.2553
24.4000 8.1170 0.2448
24.4200 8.1236 0.2503
24.4400 8.1302 0.2566
24.4600 8.1369 0.2377
24.4800 8.1436 0.2468
24.5000 8.1503 0.2527
24.5200 8.1570 0.2371
24.5400 8.1637 0.2487
24.5600 8.1703 0.2465
24.5800 8.1770 0.2286
24.6000 8.1836 0.2456
24.6200 8.1902 0.2459
24.6400 8.1968 0.2327
24.6600 8.2035 0.2416
24.6800 8.2102 0.2453
24.7000 8.2169 0.2283
24.7200 8.2236 0.2432
24.7400 8.2303 0.2402
24.7600 8.2370 0.2213
24.7800 8.2436 0.2397
24.8000 8.2502 0.2379
24.8200 8.2568 0.2243
24.8400 8.2635 0.2392
24.8600 8.2703 0.2297
24.8800 8.2770 0.2322
24.9000 8.2836 0.2325
24.9200 8.2903 0.2231
24.9400 8.2970 0.2331
24.9600 8.3036 0.2313
24.9800 8.3102 0.2176
25.0000 8.3169 0.2289
25.0200 8.3236 0.2281
25.0400 8.3303 0.2185
25.0600 8.3370 0.2279
25.0800 8.3436 0.2271
25.1000 8.3503 0.2178
25.1200 8.3570 0.2201
25.1400 8.3636 0.2207
25.1600 8.3702 0.2263
25.1800 8.3769 0.2218
25.2000 8.3836 0.2128
25.2200 8.3903 0.2237
25.2400 8.3970 0.2123
25.2600 8.4037 0.2194
25.2800 8.4103 0.2178
25.3000 8.4170 0.2118
25.3200 8.4236 0.2108
25.3400 8.4302 0.2198
25.3600 8.4369 0.2095
25.3800 8.4436 0.2175
25.4000 8.4503 0.2080
25.4200 8.4570 0.2004
25.4400 8.4636 0.2244
25.4600 8.4703 0.2096
25.4800 8.4769 0.1997
25.5000 8.4836 0.2131
25.5200 8.4901 0.2023
25.5400 8.4968 0.2109
25.5600 8.5035 0.2071
25.5800 8.5102 0.2000
25.6000 8.5169 0.2111
25.6200 8.5236 0.2052
25.6400 8.5303 0.1931
25.6600 8.5369 0.2065
25.6800 8.5436 0.2061
25.7000 8.5502 0.1952
25.7200 8.5568 0.2026
25.7400 8.5636 0.1969
25.7600 8.5703 0.2020
25.7800 8.5770 0.2059
25.8000 8.5837 0.1913
25.8200 8.5904 0.1974
25.8400 8.5970 0.2047
25.8600 8.6036 0.1901
25.8800 8.6102 0.1994
25.9000 8.6169 0.1958
25.9200 8.6236 0.1896
25.9400 8.6303 0.1928
25.9600 8.6370 0.1896
25.9800 8.6437 0.1885
26.0000 8.6503 0.1926
26.0200 8.6570 0.1902
26.0400 8.6636 0.1881
26.0600 8.6702 0.1847
26.0800 8.6769 0.1897
26.1000 8.6836 0.1862
26.1200 8.6903 0.1812
26.1400 8.6969 0.1859
26.1600 8.7036 0.1880
26.1800 8.7103 0.1775
26.2000 8.7170 0.1899
26.2200 8.7236 0.1810
26.2400 8.7302 0.1714
26.2600 8.7368 0.1893
26.2800 8.7435 0.1829
26.3000 8.7502 0.1679
26.3200 8.7569 0.1829
26.3400 8.7636 0.1759
26.3600 8.7703 0.1659
26.3800 8.7769 0.1826
26.4000 8.7836 0.1726
26.4200 8.7902 0.1682
26.4400 8.7968 0.1774
26.4600 8.8036 0.1713
26.4800 8.8103 0.1687
26.5000 8.8170 0.1760
26.5200 8.8237 0.1633
26.5400 8.8303 0.1706
26.5600 8.8370 0.1631
26.5800 8.8436 0.1628
26.6000 8.8502 0.1718
26.6200 8.8569 0.1662
26.6400 8.8636 0.1665
26.6600 8.8703 0.1656
26.6800 8.8770 0.1566
26.7000 8.8836 0.1677
26.7200 8.8903 0.1605
26.7400 8.8970 0.1559
26.7600 8.9036 0.1600
26.7800 8.9102 0.1605
26.8000 8.9168 0.1582
26.8200 8.9235 0.1594
26.8400 8.9303 0.1583
26.8600 8.9370 0.1566
26.8800 8.9436 0.1531
26.9000 8.9503 0.1506
26.9200 8.9570 0.1525
26.9400 8.9636 0.1521
26.9600 8.9702 0.1518
26.9800 8.9768 0.1514
27.0000 8.9835 0.1497
27.0200 8.9902 0.1502
27.0400 8.9969 0.1498
27.0600 9.0036 0.1461
27.0800 9.0103 0.1496
27.1000 9.0169 0.1471
27.1200 9.0236 0.1462
27.1400 9.0302 0.1413
27.1600 9.0368 0.1539
27.1800 9.0435 0.1467
27.2000 9.0502 0.1448
27.2200 9.0569 0.1441
27.2400 9.0636 0.1436
27.2600 9.0703 0.1434
27.2800 9.0770 0.1433
27.3000 9.0836 0.1379
27.3200 9.0902 0.1395
27.3400 9.0969 0.1391
27.3600 9.1036 0.1425
27.3800 9.1103 0.1402
27.4000 9.1170 0.1365
27.4200 9.1237 0.1344
27.4400 9.1303 0.1331
27.4600 9.1370 0.1339
27.4800 9.1436 0.1371
27.5000 9.1502 0.1301
27.5200 9.1569 0.1336
27.5400 9.1636 0.1361
27.5600 9.1703 0.1250
27.5800 9.1770 0.1349
27.6000 9.1836 0.1409
27.6200 9.1903 0.1229
27.6400 9.1970 0.1281
27.6600 9.2036 0.1335
27.6800 9.2102 0.1194
27.7000 9.2168 0.1326
27.7200 9.2235 0.1278
27.7400 9.2302 0.1195
27.7600 9.2369 0.1320
27.7800 9.2436 0.1259
27.8000 9.2503 0.1113
27.8200 9.2570 0.1342
27.8400 9.2636 0.1250
27.8600 9.2702 0.1082
27.8800 9.2769 0.1292
27.9000 9.2836 0.1175
27.9200 9.2903 0.1078
27.9400 9.2970 0.1276
27.9600 9.3037 0.1144
27.9800 9.3103 0.1143
28.0000 9.3170 0.1212
28.0200 9.3236 0.1138
28.0400 9.3302 0.1056
28.0600 9.3369 0.1208
28.0800 9.3436 0.1095
28.1000 9.3503 0.1045
28.1200 9.3570 0.1158
28.1400 9.3636 0.1127
28.1600 9.3703 0.1105
28.1800 9.3770 0.1052
28.2000 9.3836 0.1095
28.2200 9.3902 0.1085
28.2400 9.3968 0.1080
28.2600 9.4035 0.1005
28.2800 9.4102 0.1022
28.3000 9.4169 0.1072
28.3200 9.4236 0.1063
28.3400 9.4303 0.0984
28.3600 9.4370 0.1035
28.3800 9.4436 0.1079
28.4000 9.4502 0.0944
28.4200 9.4568 0.1000
28.4400 9.4635 0.1108
28.4600 9.4702 0.0877
28.4800 9.4769 0.0954
28.5000 9.4836 0.1009
28.5200 9.4903 0.0923
28.5400 9.4970 0.0940
28.5600 9.5036 0.0979
28.5800 9.5102 0.0904
28.6000 9.5169 0.0977
28.6200 9.5236 0.0952
28.6400 9.5303 0.0904
28.6600 9.5370 0.0920
28.6800 9.5436 0.0938
28.7000 9.5503 0.0881
28.7200 9.5570 0.0957
28.7400 9.5637 0.0887
28.7600 9.5703 0.0818
28.7800 9.5769 0.0935
28.8000 9.5836 0.0880
28.8200 9.5903 0.0839
28.8400 9.5970 0.0917
28.8600 9.6037 0.0851
28.8800 9.6103 0.0800
28.9000 9.6170 0.0935
28.9200 9.6237 0.0824
28.9400 9.6302 0.0811
28.9600 9.6368 0.0889
28.9800 9.6435 0.0812
29.0000 9.6502 0.0787
29.0200 9.6569 0.0877
29.0400 9.6636 0.0764
29.0600 9.6703 0.0797
29.0800 9.6770 0.0829
29.1000 9.6836 0.0775
29.1200 9.6902 0.0782
29.1400 9.6968 0.0813
29.1600 9.7035 0.0743
29.1800 9.7102 0.0750
29.2000 9.7169 0.0747
29.2200 9.7236 0.0751
29.2400 9.7302 0.0710
29.2600 9.7369 0.0737
29.2800 9.7436 0.0709
29.3000 9.7503 0.0675
29.3200 9.7569 0.0709
29.3400 9.7636 0.0733
29.3600 9.7703 0.0660
29.3800 9.7769 0.0679
29.4000 9.7836 0.0702
29.4200 9.7903 0.0680
29.4400 9.7970 0.0674
29.4600 9.8037 0.0581
29.4800 9.8102 0.0670
29.5000 9.8168 0.0703
29.5200 9.8235 0.0626
29.5400 9.8302 0.0635
29.5600 9.8370 0.0648
29.5800 9.8436 0.0568
29.6000 9.8503 0.0623
29.6200 9.8570 0.0638
29.6400 9.8636 0.0596
29.6600 9.8702 0.0582
29.6800 9.8769 0.0599
29.7000 9.8835 0.0576
29.7200 9.8902 0.0613
29.7400 9.8969 0.0572
29.7600 9.9036 0.0546
29.7800 9.9103 0.0561
29.8000 9.9170 0.0521
29.8200 9.9236 0.0519
29.8400 9.9302 0.0549
29.8600 9.9368 0.0495
29.8800 9.9435 0.0533
29.9000 9.9502 0.0551
29.9200 9.9569 0.0407
29.9400 9.9636 0.0479
29.9600 9.9703 0.0588
29.9800 9.9769 0.0362
30.0000 9.9836 0.0480
30.0200 9.9902 0.0538
30.0400 9.9968 0.0371
30.0600 10.0035 0.0483
30.0800 10.0102 0.0472
30.1000 10.0170 0.0403
30.1200 10.0237 0.0446
30.1400 10.0303 0.0442
30.1600 10.0370 0.0412
30.1800 10.0437 0.0395
30.2000 10.0503 0.0359
30.2200 10.0569 0.0413
30.2400 10.0636 0.0364
30.2600 10.0703 0.0363
30.2800 10.0770 0.0407
30.3000 10.0836 0.0371
30.3200 10.0903 0.0288
30.3400 10.0970 0.0386
30.3600 10.1037 0.0273
30.3800 10.1103 0.0299
30.4000 10.1168 0.0414
30.4200 10.1235 0.0220
30.4400 10.1302 0.0305
30.4600 10.1369 0.0420
30.4800 10.1436 0.0162
30.5000 10.1503 0.0306
30.5200 10.1570 0.0331
30.5400 10.1636 0.0174
30.5600 10.1702 0.0295
30.5800 10.1768 0.0318
30.6000 10.1835 0.0142
30.6200 10.1902 0.0331
30.6400 10.1969 0.0288
30.6600 10.2036 0.0111
30.6800 10.2103 0.0364
30.7000 10.2170 0.0222
30.7200 10.2236 0.0099
30.7400 10.2303 0.0300
30.7600 10.2369 0.0226
30.7800 10.2436 0.0101
30.8000 10.2502 0.0196
30.8200 10.2569 0.0142
30.8400 10.2636 0.0148
30.8600 10.2703 0.0236
30.8800 10.2770 0.0087
30.9000 10.2837 0.0057
30.9200 10.2903 0.0221
30.9400 10.2969 0.0042
30.9600 10.3035 0.0113
30.9800 10.3102 0.0231
31.0000 10.3170 -0.0003
31.0200 10.3236 0.0081
31.0400 10.3303 0.0184
31.0600 10.3370 -0.0004
31.0800 10.3436 0.0053
31.1000 10.3502 0.0120
31.1200 10.3568 0.0062
31.1400 10.3635 0.0024
31.1600 10.3702 0.0099
31.1800 10.3769 0.0000
31.2000 10.3836 0.0021
31.2200 10.3903 0.0080
31.2400 10.3970 -0.0014
31.2600 10.4036 0.0026
31.2800 10.4103 0.0031
31.3000 10.4169 -0.0032
31.3200 10.4235 0.0010
31.3400 10.4302 0.0030
31.3600 10.4369 -0.0042
31.3800 10.4436 -0.0036
31.4000 10.4503 0.0006
31.4200 10.4570 -0.0050
31.4400 10.4637 -0.0078
31.4600 10.4703 -0.0051
31.4800 10.4769 -0.0049
31.5000 10.4835 -0.0094
31.5200 10.4902 -0.0086
31.5400 10.4969 -0.0051
31.5600 10.5036 -0.0140
31.5800 10.5103 -0.0046
31.6000 10.5170 -0.0096
31.6200 10.5237 -0.0130
31.6400 10.5303 -0.0092
31.6600 10.5369 -0.0130
31.6800 10.5435 -0.0188
31.7000 10.5502 -0.0096
31.7200 10.5569 -0.0176
31.7400 10.5636 -0.0205
31.7600 10.5703 -0.0128
31.7800 10.5770 -0.0137
31.8000 10.5837 -0.0242
31.8200 10.5903 -0.0145
31.8400 10.5969 -0.0174
31.8600 10.6035 -0.0277
31.8800 10.6102 -0.0130
31.9000 10.6169 -0.0234
31.9200 10.6236 -0.0255
31.9400 10.6303 -0.0165
31.9600 10.6370 -0.0247
31.9800 10.6437 -0.0291
32.0000 10.6503 -0.0196
32.0200 10.6568 -0.0250
32.0400 10.6635 -0.0269
32.0600 10.6702 -0.0230
32.0800 10.6769 -0.0339
32.1000 10.6836 -0.0295
32.1200 10.6903 -0.0189
32.1400 10.6970 -0.0356
32.1600 10.7036 -0.0308
32.1800 10.7103 -0.0263
32.2000 10.7169 -0.0315
32.2200 10.7235 -0.0303
32.2400 10.7302 -0.0328
32.2600 10.7369 -0.0334
32.2800 10.7436 -0.0366
32.3000 10.7503 -0.0378
32.3200 10.7570 -0.0329
32.3400 10.7637 -0.0412
32.3600 10.7703 -0.0384
32.3800 10.7769 -0.0367
32.4000 10.7835 -0.0420
32.4200 10.7902 -0.0387
32.4400 10.7969 -0.0370
32.4600 10.8036 -0.0493
32.4800 10.8103 -0.0409
32.5000 10.8170 -0.0363
32.5200 10.8236 -0.0504
32.5400 10.8303 -0.0441
32.5600 10.8368 -0.0405
32.5800 10.8435 -0.0502
32.6000 10.8502 -0.0456
32.6200 10.8569 -0.0471
32.6400 10.8636 -0.0541
32.6600 10.8703 -0.0457
32.6800 10.8770 -0.0513
32.7000 10.8837 -0.0566
32.7200 10.8903 -0.0534
32.7400 10.8969 -0.0487
32.7600 10.9035 -0.0601
32.7800 10.9102 -0.0529
32.8000 10.9169 -0.0542
32.8200 10.9236 -0.0632
32.8400 10.9303 -0.0555
32.8600 10.9369 -0.0602
32.8800 10.9436 -0.0609
32.9000 10.9503 -0.0535
32.9200 10.9569 -0.0666
32.9400 10.9635 -0.0646
32.9600 10.9702 -0.0555
32.9800 10.9769 -0.0661
33.0000 10.9836 -0.0661
33.0200 10.9903 -0.0555
33.0400 10.9970 -0.0656
33.0600 11.0037 -0.0730
33.0800 11.0103 -0.0624
33.1000 11.0169 -0.0713
33.1200 11.0235 -0.0678
33.1400 11.0302 -0.0635
33.1600 11.0369 -0.0756
33.1800 11.0436 -0.0725
33.2000 11.0503 -0.0664
33.2200 11.0570 -0.0726
33.2400 11.0637 -0.0720
33.2600 11.0703 -0.0693
33.2800 11.0769 -0.0757
33.3000 11.0835 -0.0749
33.3200 11.0902 -0.0722
33.3400 11.0969 -0.0805
33.3600 11.1036 -0.0717
33.3800 11.1103 -0.0771
33.4000 11.1169 -0.0788
33.4200 11.1236 -0.0788
33.4400 11.1303 -0.0819
33.4600 11.1369 -0.0754
33.4800 11.1435 -0.0805
33.5000 11.1502 -0.0823
33.5200 11.1569 -0.0787
33.5400 11.1636 -0.0859
33.5600 11.1703 -0.0845
33.5800 11.1769 -0.0815
33.6000 11.1836 -0.0818
33.6200 11.1903 -0.0934
33.6400 11.1969 -0.0814
33.6600 11.2035 -0.0815
33.6800 11.2102 -0.0918
33.7000 11.2169 -0.0807
33.7200 11.2236 -0.0918
33.7400 11.2303 -0.0921
33.7600 11.2370 -0.0799
33.7800 11.2437 -0.0962
33.8000 11.2503 -0.0921
33.8200 11.2569 -0.0835
33.8400 11.2635 -0.1006
33.8600 11.2702 -0.0926
33.8800 11.2769 -0.0889
33.9000 11.2836 -0.0986
33.9200 11.2903 -0.0913
33.9400 11.2970 -0.0943
33.9600 11.3037 -0.1034
33.9800 11.3103 -0.0879
34.0000 11.3169 -0.0953
34.0200 11.3235 -0.1048
34.0400 11.3302 -0.0933
34.0600 11.3369 -0.0965
34.0800 11.3436 -0.1065
34.1000 11.3503 -0.0956
34.1200 11.3570 -0.0980
34.1400 11.3637 -0.1095
34.1600 11.3703 -0.1003
34.1800 11.3769 -0.1012
34.2000 11.3835 -0.1070
34.2200 11.3901 -0.0959
34.2400 11.3969 -0.1083
34.2600 11.4036 -0.1119
34.2800 11.4103 -0.1009
34.3000 11.4169 -0.1089
34.3200 11.4236 -0.1068
34.3400 11.4303 -0.1106
34.3600 11.4369 -0.1112
34.3800 11.4435 -0.1076
34.4000 11.4502 -0.1081
34.4200 11.4569 -0.1179
34.4400 11.4636 -0.1133
34.4600 11.4703 -0.1096
34.4800 11.4770 -0.1184
34.5000 11.4837 -0.1207
34.5200 11.4904 -0.1090
34.5400 11.4970 -0.1184
34.5600 11.5036 -0.1204
34.5800 11.5102 -0.1181
34.6000 11.5169 -0.1214
34.6200 11.5236 -0.1196
34.6400 11.5303 -0.1147
34.6600 11.5370 -0.1261
34.6800 11.5436 -0.1237
34.7000 11.5503 -0.1197
34.7200 11.5569 -0.1238
34.7400 11.5635 -0.1277
34.7600 11.5702 -0.1245
34.7800 11.5769 -0.1242
34.8000 11.5836 -0.1234
34.8200 11.5903 -0.1378
34.8400 11.5969 -0.1289
34.8600 11.6036 -0.1197
34.8800 11.6103 -0.1405
34.9000 11.6169 -0.1356
34.9200 11.6235 -0.1231
34.9400 11.6301 -0.1470
34.9600 11.6368 -0.1320
34.9800 11.6436 -0.1255
35.0000 11.6503 -0.1489
35.0200 11.6570 -0.1253
35.0400 11.6637 -0.1355
35.0600 11.6703 -0.1551
35.0800 11.6770 -0.1219
35.1000 11.6835 -0.1411
35.1200 11.6902 -0.1582
35.1400 11.6969 -0.1186
35.1600 11.7036 -0.1459
35.1800 11.7103 -0.1531
35.2000 11.7170 -0.1211
35.2200 11.7237 -0.1514
35.2400 11.7303 -0.1568
35.2600 11.7369 -0.1232
35.2800 11.7435 -0.1594
35.3000 11.7502 -0.1494
35.3200 11.7569 -0.1316
35.3400 11.7636 -0.1612
35.3600 11.7703 -0.1513
35.3800 11.7770 -0.1374
35.4000 11.7837 -0.1549
35.4200 11.7903 -0.1465
35.4400 11.7970 -0.1497
35.4600 11.8036 -0.1596
35.4800 11.8102 -0.1459
35.5000 11.8169 -0.1473
35.5200 11.8236 -0.1619
35.5400 11.8303 -0.1445
35.5600 11.8370 -0.1555
35.5800 11.8437 -0.1579
35.6000 11.8503 -0.1498
35.6200 11.8569 -0.1625
35.6400 11.8635 -0.1546
35.6600 11.8701 -0.1496
35.6800 11.8768 -0.1608
35.7000 11.8836 -0.1595
35.7200 11.8903 -0.1554
35.7400 11.8969 -0.1651
35.7600 11.9036 -0.1558
35.7800 11.9102 -0.1620
35.8000 11.9169 -0.1674
35.8200 11.9235 -0.1539
35.8400 11.9302 -0.1610
35.8600 11.9369 -0.1706
35.8800 11.9436 -0.1593
35.9000 11.9503 -0.1642
35.9200 11.9570 -0.1685
35.9400 11.9637 -0.1608
35.9600 11.9703 -0.1689
35.9800 11.9770 -0.1697
36.0000 11.9836 -0.1604
36.0200 11.9902 -0.1743
36.0400 11.9969 -0.1706
36.0600 12.0036 -0.1653
36.0800 12.0103 -0.1766
36.1000 12.0170 -0.1704
36.1200 12.0237 -0.1645
36.1400 12.0303 -0.1861
36.1600 12.0369 -0.1708
36.1800 12.0435 -0.1645
36.2000 12.0502 -0.1841
36.2200 12.0569 -0.1727
36.2400 12.0636 -0.1728
36.2600 12.0703 -0.1858
36.2800 12.0770 -0.1766
36.3000 12.0836 -0.1772
36.3200 12.0903 -0.1861
36.3400 12.0969 -0.1780
36.3600 12.1035 -0.1784
36.3800 12.1102 -0.1890
36.4000 12.1169 -0.1792
36.4200 12.1236 -0.1819
36.4400 12.1302 -0.1896
36.4600 12.1369 -0.1837
36.4800 12.1436 -0.1896
36.5000 12.1503 -0.1900
36.5200 12.1569 -0.1912
36.5400 12.1635 -0.1857
36.5600 12.1702 -0.1935
36.5800 12.1769 -0.1902
36.6000 12.1836 -0.1890
36.6200 12.1903 -0.1927
36.6400 12.1970 -0.1906
36.6600 12.2037 -0.1913
36.6800 12.2104 -0.1971
36.7000 12.2170 -0.1976
36.7200 12.2236 -0.1938
36.7400 12.2302 -0.1988
36.7600 12.2369 -0.2004
36.7800 12.2436 -0.1943
36.8000 12.2503 -0.2042
36.8200 12.2570 -0.2029
36.8400 12.2636 -0.1955
36.8600 12.2703 -0.2076
36.8800 12.2769 -0.2066
36.9000 12.2835 -0.1999
36.9200 12.2902 -0.2019
36.9400 12.2969 -0.2071
36.9600 12.3036 -0.1999
36.9800 12.3103 -0.2141
37.0000 12.3169 -0.2065
37.0200 12.3236 -0.1983
37.0400 12.3303 -0.2145
37.0600 12.3369 -0.2117
37.0800 12.3435 -0.2040
37.1000 12.3501 -0.2164
37.1200 12.3568 -0.2089
37.1400 12.3635 -0.2085
37.1600 12.3703 -0.2153
37.1800 12.3770 -0.2110
37.2000 12.3837 -0.2091
37.2200 12.3903 -0.2242
37.2400 12.3970 -0.2127
37.2600 12.4036 -0.2068
37.2800 12.4102 -0.2248
37.3000 12.4169 -0.2159
37.3200 12.4236 -0.2053
37.3400 12.4303 -0.2302
37.3600 12.4369 -0.2225
37.3800 12.4436 -0.2025
37.4000 12.4503 -0.2277
37.4200 12.4570 -0.2243
37.4400 12.4636 -0.2088
37.4600 12.4702 -0.2243
37.4800 12.4769 -0.2192
37.5000 12.4836 -0.2196
37.5200 12.4903 -0.2265
37.5400 12.4970 -0.2177
37.5600 12.5037 -0.2276
37.5800 12.5103 -0.2280
37.6000 12.5170 -0.2169
37.6200 12.5236 -0.2225
37.6400 12.5302 -0.2305
37.6600 12.5368 -0.2185
37.6800 12.5436 -0.2264
37.7000 12.5503 -0.2301
37.7200 12.5570 -0.2264
37.7400 12.5636 -0.2274
37.7600 12.5703 -0.2312
37.7800 12.5769 -0.2318
37.8000 12.5835 -0.2263
37.8200 12.5901 -0.2283
37.8400 12.5968 -0.2370
37.8600 12.6035 -0.2224
37.8800 12.6102 -0.2302
37.9000 12.6169 -0.2376
37.9200 12.6236 -0.2273
37.9400 12.6303 -0.2332
37.9600 12.6369 -0.2406
37.9800 12.6435 -0.2298
38.0000 12.6502 -0.2340
38.0200 12.6569 -0.2373
38.0400 12.6636 -0.2323
38.0600 12.6703 -0.2399
38.0800 12.6770 -0.2387
38.1000 12.6837 -0.2372
38.1200 12.6904 -0.2388
38.1400 12.6970 -0.2411
38.1600 12.7036 -0.2409
38.1800 12.7102 -0.2371
38.2000 12.7168 -0.2393
38.2200 12.7235 -0.2495
38.2400 12.7303 -0.2408
38.2600 12.7370 -0.2373
38.2800 12.7437 -0.2463
38.3000 12.7504 -0.2503
38.3200 12.7570 -0.2428
38.3400 12.7636 -0.2506
38.3600 12.7702 -0.2479
38.3800 12.7769 -0.2486
38.4000 12.7836 -0.2501
38.4200 12.7903 -0.2483
38.4400 12.7969 -0.2474
38.4600 12.8036 -0.2563
38.4800 12.8103 -0.2489
38.5000 12.8170 -0.2516
38.5200 12.8236 -0.2649
38.5400 12.8302 -0.2548
38.5600 12.8369 -0.2453
38.5800 12.8435 -0.2630
38.6000 12.8502 -0.2627
38.6200 12.8569 -0.2528
38.6400 12.8636 -0.2656
38.6600 12.8703 -0.2588
38.6800 12.8769 -0.2549
38.7000 12.8836 -0.2730
38.7200 12.8902 -0.2623
38.7400 12.8969 -0.2579
38.7600 12.9036 -0.2768
38.7800 12.9103 -0.2607
38.8000 12.9170 -0.2585
38.8200 12.9237 -0.2830
38.8400 12.9304 -0.2691
38.8600 12.9370 -0.2647
38.8800 12.9436 -0.2777
38.9000 12.9502 -0.2576
38.9200 12.9569 -0.2731
38.9400 12.9636 -0.2853
38.9600 12.9703 -0.2660
38.9800 12.9770 -0.2709
39.0000 12.9836 -0.2908
39.0200 12.9903 -0.2701
39.0400 12.9970 -0.2768
39.0600 13.0036 -0.2870
39.0800 13.0102 -0.2739
39.1000 13.0169 -0.2772
39.1200 13.0236 -0.2830
39.1400 13.0302 -0.2789
39.1600 13.0369 -0.2873
39.1800 13.0436 -0.2805
39.2000 13.0503 -0.2834
39.2200 13.0570 -0.2875
39.2400 13.0636 -0.2916
39.2600 13.0702 -0.2850
39.2800 13.0768 -0.2844
39.3000 13.0835 -0.2909
39.3200 13.0903 -0.2900
39.3400 13.0970 -0.2892
39.3600 13.1036 -0.2926
39.3800 13.1103 -0.2915
39.4000 13.1170 -0.2927
39.4200 13.1236 -0.2967
39.4400 13.1302 -0.2883
39.4600 13.1369 -0.2965
39.4800 13.1436 -0.2986
39.5000 13.1503 -0.2928
39.5200 13.1570 -0.2943
39.5400 13.1636 -0.2978
39.5600 13.1703 -0.2952
39.5800 13.1770 -0.3038
39.6000 13.1836 -0.2979
39.6200 13.1902 -0.2964
39.6400 13.1969 -0.3001
39.6600 13.2036 -0.3052
39.6800 13.2103 -0.2995
39.7000 13.2170 -0.3040
39.7200 13.2236 -0.3075
39.7400 13.2303 -0.2987
39.7600 13.2370 -0.2998
39.7800 13.2436 -0.3124
39.8000 13.2502 -0.3013
39.8200 13.2568 -0.2977
39.8400 13.2636 -0.3124
39.8600 13.2703 -0.3063
39.8800 13.2770 -0.2998
39.9000 13.2837 -0.3176
39.9200 13.2903 -0.3066
39.9400 13.2970 -0.3012
39.9600 13.3036 -0.3215
39.9800 13.3102 -0.3077
40.0000 13.3168 -0.3052
40.0200 13.3235 -0.3220
40.0400 13.3302 -0.3108
40.0600 13.3369 -0.3040
40.0800 13.3436 -0.3231
40.1000 13.3503 -0.3150
40.1200 13.3569 -0.3101
40.1400 13.3636 -0.3231
40.1600 13.3702 -0.3123
40.1800 13.3768 -0.3046
40.2000 13.3835 -0.3269
40.2200 13.3903 -0.3156
40.2400 13.3970 -0.3168
40.2600 13.4037 -0.3261
40.2800 13.4104 -0.3153
40.3000 13.4170 -0.3174
40.3200 13.4236 -0.3343
40.3400 13.4302 -0.3190
40.3600 13.4369 -0.3169
40.3800 13.4436 -0.3269
40.4000 13.4503 -0.3205
40.4200 13.4570 -0.3192
40.4400 13.4637 -0.3311
40.4600 13.4703 -0.3269
40.4800 13.4770 -0.3238
40.5000 13.4836 -0.3304
40.5200 13.4902 -0.3283
40.5400 13.4968 -0.3203
40.5600 13.5035 -0.3351
40.5800 13.5102 -0.3311
40.6000 13.5169 -0.3245
40.6200 13.5236 -0.3340
40.6400 13.5302 -0.3289
40.6600 13.5370 -0.3299
40.6800 13.5436 -0.3352
40.7000 13.5502 -0.3324
40.7200 13.5568 -0.3251
40.7400 13.5635 -0.3388
40.7600 13.5702 -0.3347
40.7800 13.5769 -0.3334
40.8000 13.5836 -0.3386
40.8200 13.5903 -0.3309
40.8400 13.5970 -0.3385
40.8600 13.6036 -0.3442
40.8800 13.6102 -0.3319
40.9000 13.6168 -0.3406
40.9200 13.6235 -0.3399
40.9400 13.6303 -0.3367
40.9600 13.6370 -0.3369
40.9800 13.6436 -0.3473
41.0000 13.6503 -0.3397
41.0200 13.6570 -0.3434
41.0400 13.6636 -0.3427
41.0600 13.6703 -0.3396
41.0800 13.6769 -0.3512
41.1000 13.6836 -0.3432
41.1200 13.6903 -0.3454
41.1400 13.6969 -0.3524
41.1600 13.7036 -0.3471
41.1800 13.7103 -0.3422
41.2000 13.7170 -0.3543
41.2200 13.7236 -0.3488
41.2400 13.7302 -0.3517
41.2600 13.7368 -0.3575
41.2800 13.7435 -0.3474
41.3000 13.7502 -0.3560
41.3200 13.7569 -0.3577
41.3400 13.7636 -0.3479
41.3600 13.7703 -0.3582
41.3800 13.7770 -0.3611
41.4000 13.7836 -0.3527
41.4200 13.7901 -0.3562
41.4400 13.7967 -0.3617
41.4600 13.8034 -0.3586
41.4800 13.8102 -0.3622
41.5000 13.8169 -0.3619
41.5200 13.8236 -0.3615
41.5400 13.8303 -0.3630
41.5600 13.8370 -0.3598
41.5800 13.8436 -0.3633
41.6000 13.8503 -0.3667
41.6200 13.8569 -0.3658
41.6400 13.8636 -0.3620
41.6600 13.8702 -0.3687
41.6800 13.8769 -0.3679
41.7000 13.8836 -0.3641
41.7200 13.8903 -0.3727
41.7400 13.8970 -0.3702
41.7600 13.9036 -0.3734
41.7800 13.9102 -0.3680
41.8000 13.9169 -0.3733
41.8200 13.9236 -0.3775
41.8400 13.9303 -0.3734
41.8600 13.9370 -0.3793
41.8800 13.9437 -0.3755
41.9000 13.9503 -0.3750
41.9200 13.9570 -0.3793
41.9400 13.9636 -0.3771
41.9600 13.9702 -0.3738
41.9800 13.9769 -0.3842
42.0000 13.9836 -0.3775
42.0200 13.9903 -0.3763
42.0400 13.9970 -0.3901
42.0600 14.0036 -0.3794
42.0800 14.0103 -0.3751
42.1000 14.0170 -0.3966
42.1200 14.0236 -0.3811
42.1400 14.0302 -0.3791
42.1600 14.0368 -0.3958
42.1800 14.0435 -0.3810
42.2000 14.0502 -0.3807
42.2200 14.0568 -0.4000
42.2400 14.0635 -0.3798
42.2600 14.0702 -0.3822
42.2800 14.0770 -0.4026
42.3000 14.0836 -0.3827
42.3200 14.0903 -0.3919
42.3400 14.0969 -0.4027
42.3600 14.1035 -0.3795
42.3800 14.1103 -0.3971
42.4000 14.1170 -0.4036
42.4200 14.1237 -0.3836
42.4400 14.1304 -0.4005
42.4600 14.1370 -0.4016
42.4800 14.1437 -0.3857
42.5000 14.1503 -0.4062
42.5200 14.1569 -0.4006
42.5400 14.1636 -0.3860
42.5600 14.1703 -0.4137
42.5800 14.1770 -0.3985
42.6000 14.1836 -0.3903
42.6200 14.1903 -0.4164
42.6400 14.1970 -0.4059
42.6600 14.2036 -0.3948
42.6800 14.2102 -0.4102
42.7000 14.2168 -0.4029
42.7200 14.2235 -0.4007
42.7400 14.2302 -0.4102
42.7600 14.2369 -0.4073
42.7800 14.2436 -0.4060
42.8000 14.2503 -0.4150
42.8200 14.2570 -0.4106
42.8400 14.2636 -0.4088
42.8600 14.2702 -0.4109
42.8800 14.2768 -0.4129
42.9000 14.2835 -0.4115
42.9200 14.2902 -0.4133
42.9400 14.2969 -0.4162
42.9600 14.3036 -0.4165
42.9800 14.3103 -0.4136
43.0000 14.3170 -0.4166
43.0200 14.3236 -0.4164
43.0400 14.3302 -0.4137
43.0600 14.3368 -0.4263
43.0800 14.3435 -0.4150
43.1000 14.3503 -0.4131
43.1200 14.3570 -0.4283
43.1400 14.3636 -0.4156
43.1600 14.3703 -0.4201
43.1800 14.3770 -0.4353
43.2000 14.3837 -0.4131
43.2200 14.3903 -0.4272
43.2400 14.3969 -0.4348
43.2600 14.4035 -0.4133
43.2800 14.4102 -0.4301
43.3000 14.4170 -0.4373
43.3200 14.4237 -0.4094
43.3400 14.4304 -0.4376
43.3600 14.4370 -0.4363
43.3800 14.4437 -0.4145
43.4000 14.4503 -0.4392
43.4200 14.4569 -0.4378
43.4400 14.4635 -0.4188
43.4600 14.4702 -0.4424
43.4800 14.4769 -0.4375
43.5000 14.4836 -0.4236
43.5200 14.4903 -0.4448
43.5400 14.4970 -0.4346
43.5600 14.5036 -0.4243
43.5800 14.5102 -0.4499
43.6000 14.5169 -0.4317
43.6200 14.5235 -0.4272
43.6400 14.5302 -0.4489
43.6600 14.5369 -0.4380
43.6800 14.5436 -0.4370
43.7000 14.5502 -0.4482
43.7200 14.5569 -0.4372
43.7400 14.5636 -0.4405
43.7600 14.5703 -0.4520
43.7800 14.5769 -0.4448
43.8000 14.5835 -0.4391
43.8200 14.5902 -0.4482
43.8400 14.5969 -0.4487
43.8600 14.6036 -0.4407
43.8800 14.6103 -0.4518
43.9000 14.6170 -0.4498
43.9200 14.6237 -0.4471
43.9400 14.6303 -0.4480
43.9600 14.6369 -0.4527
43.9800 14.6435 -0.4466
44.0000 14.6503 -0.4510
44.0200 14.6570 -0.4582
44.0400 14.6636 -0.4515
44.0600 14.6703 -0.4582
44.0800 14.6770 -0.4615
44.1000 14.6836 -0.4478
44.1200 14.6903 -0.4613
44.1400 14.6969 -0.4645
44.1600 14.7035 -0.4460
44.1800 14.7102 -0.4600
44.2000 14.7169 -0.4701
44.2200 14.7236 -0.4530
44.2400 14.7303 -0.4645
44.2600 14.7370 -0.4649
44.2800 14.7437 -0.4566
44.3000 14.7503 -0.4699
44.3200 14.7568 -0.4652
44.3400 14.7635 -0.4561
44.3600 14.7702 -0.4726
44.3800 14.7769 -0.4714
44.4000 14.7836 -0.4592
44.4200 14.7903 -0.4732
44.4400 14.7969 -0.4735
44.4600 14.8036 -0.4677
44.4800 14.8102 -0.4690
44.5000 14.8168 -0.4749
44.5200 14.8235 -0.4714
44.5400 14.8302 -0.4717
44.5600 14.8369 -0.4751
44.5800 14.8436 -0.4784
44.6000 14.8503 -0.4714
44.6200 14.8570 -0.4785
44.6400 14.8636 -0.4761
44.6600 14.8703 -0.4766
44.6800 14.8769 -0.4802
44.7000 14.8836 -0.4800
44.7200 14.8903 -0.4731
44.7400 14.8970 -0.4857
44.7600 14.9037 -0.4807
44.7800 14.9103 -0.4731
44.8000 14.9170 -0.4913
44.8200 14.9237 -0.4841
44.8400 14.9303 -0.4750
44.8600 14.9369 -0.4922
44.8800 14.9435 -0.4904
44.9000 14.9502 -0.4781
44.9200 14.9569 -0.4969
44.9400 14.9636 -0.4900
44.9600 14.9703 -0.4783
44.9800 14.9769 -0.5007
45.0000 14.9836 -0.4891
45.0200 14.9902 -0.4835
45.0400 14.9968 -0.5016
45.0600 15.0035 -0.4889
45.0800 15.0102 -0.4886
45.1000 15.0169 -0.5019
45.1200 15.0236 -0.4916
45.1400 15.0303 -0.4872
45.1600 15.0370 -0.5050
45.1800 15.0436 -0.4943
45.2000 15.0503 -0.4960
45.2200 15.0569 -0.5018
45.2400 15.0636 -0.4934
45.2600 15.0702 -0.4993
45.2800 15.0769 -0.5050
45.3000 15.0836 -0.4937
45.3200 15.0903 -0.5070
45.3400 15.0970 -0.5024
45.3600 15.1037 -0.5031
45.3800 15.1103 -0.5082
45.4000 15.1169 -0.5042
45.4200 15.1235 -0.5085
45.4400 15.1302 -0.5028
45.4600 15.1369 -0.5071
45.4800 15.1436 -0.5119
45.5000 15.1503 -0.5087
45.5200 15.1570 -0.5076
45.5400 15.1637 -0.5163
45.5600 15.1703 -0.5138
45.5800 15.1769 -0.5085
45.6000 15.1835 -0.5191
45.6200 15.1902 -0.5139
45.6400 15.1970 -0.5138
45.6600 15.2036 -0.5202
45.6800 15.2103 -0.5099
45.7000 15.2169 -0.5152
45.7200 15.2236 -0.5242
45.7400 15.2303 -0.5168
45.7600 15.2369 -0.5139
45.7800 15.2435 -0.5254
45.8000 15.2502 -0.5129
45.8200 15.2569 -0.5200
45.8400 15.2636 -0.5291
45.8600 15.2702 -0.5196
45.8800 15.2769 -0.5217
45.9000 15.2836 -0.5313
45.9200 15.2903 -0.5206
45.9400 15.2969 -0.5254
45.9600 15.3035 -0.5286
45.9800 15.3102 -0.5212
46.0000 15.3169 -0.5284
46.0200 15.3236 -0.5320
46.0400 15.3303 -0.5206
46.0600 15.3370 -0.5304
46.0800 15.3436 -0.5306
46.1000 15.3503 -0.5315
46.1200 15.3569 -0.5356
46.1400 15.3635 -0.5289
46.1600 15.3702 -0.5294
46.1800 15.3770 -0.5447
46.2000 15.3837 -0.5283
46.2200 15.3903 -0.5339
46.2400 15.3970 -0.5397
46.2600 15.4037 -0.5326
46.2800 15.4103 -0.5392
46.3000 15.4169 -0.5341
46.3200 15.4235 -0.5369
46.3400 15.4302 -0.5422
46.3600 15.4369 -0.5350
46.3800 15.4436 -0.5403
46.4000 15.4503 -0.5490
46.4200 15.4570 -0.5370
46.4400 15.4636 -0.5475
46.4600 15.4703 -0.5484
46.4800 15.4769 -0.5369
46.5000 15.4835 -0.5518
46.5200 15.4901 -0.5473
46.5400 15.4969 -0.5353
46.5600 15.5036 -0.5596
46.5800 15.5103 -0.5494
46.6000 15.5169 -0.5401
46.6200 15.5236 -0.5603
46.6400 15.5303 -0.5484
46.6600 15.5369 -0.5382
46.6800 15.5435 -0.5639
46.7000 15.5502 -0.5516
46.7200 15.5569 -0.5470
46.7400 15.5636 -0.5618
46.7600 15.5703 -0.5472
46.7800 15.5770 -0.5448
46.8000 15.5837 -0.5680
46.8200 15.5904 -0.5540
46.8400 15.5970 -0.5481
46.8600 15.6036 -0.5632
46.8800 15.6102 -0.5540
46.9000 15.6169 -0.5559
46.9200 15.6236 -0.5713
46.9400 15.6303 -0.5586
46.9600 15.6370 -0.5519
46.9800 15.6437 -0.5684
47.0000 15.6503 -0.5618
47.0200 15.6569 -0.5594
47.0400 15.6635 -0.5733
47.0600 15.6702 -0.5589
47.0800 15.6769 -0.5549
47.1000 15.6836 -0.5749
47.1200 15.6903 -0.5670
47.1400 15.6970 -0.5647
47.1600 15.7037 -0.5717
47.1800 15.7103 -0.5674
47.2000 15.7169 -0.5698
47.2200 15.7235 -0.5787
47.2400 15.7302 -0.5658
47.2600 15.7369 -0.5676
47.2800 15.7436 -0.5797
47.3000 15.7503 -0.5717
47.3200 15.7569 -0.5673
47.3400 15.7636 -0.5804
47.3600 15.7703 -0.5747
47.3800 15.7769 -0.5698
47.4000 15.7835 -0.5850
47.4200 15.7902 -0.5760
47.4400 15.7969 -0.5694
47.4600 15.8036 -0.5880
47.4800 15.8103 -0.5792
47.5000 15.8170 -0.5701
47.5200 15.8237 -0.5949
47.5400 15.8303 -0.5824
47.5600 15.8369 -0.5727
47.5800 15.8435 -0.5895
47.6000 15.8502 -0.5819
47.6200 15.8569 -0.5790
47.6400 15.8636 -0.5952
47.6600 15.8703 -0.5826
47.6800 15.8770 -0.5825
47.7000 15.8837 -0.5925
47.7200 15.8903 -0.5884
47.7400 15.8969 -0.5859
47.7600 15.9035 -0.5962
47.7800 15.9102 -0.5889
47.8000 15.9169 -0.5889
47.8200 15.9236 -0.5946
47.8400 15.9303 -0.5951
47.8600 15.9369 -0.5891
47.8800 15.9436 -0.5953
47.9000 15.9503 -0.6026
47.9200 15.9569 -0.5976
47.9400 15.9635 -0.5936
47.9600 15.9702 -0.6024
47.9800 15.9769 -0.5980
48.0000 15.9836 -0.5955
48.0200 15.9903 -0.6014
48.0400 15.9970 -0.5958
48.0600 16.0036 -0.6020
48.0800 16.0103 -0.6063
48.1000 16.0169 -0.5947
48.1200 16.0235 -0.5995
48.1400 16.0302 -0.6089
48.1600 16.0369 -0.6028
48.1800 16.0437 -0.6020
48.2000 16.0503 -0.6102
48.2200 16.0570 -0.6027
48.2400 16.0637 -0.6058
48.2600 16.0703 -0.6152
48.2800 16.0769 -0.6026
48.3000 16.0835 -0.6130
48.3200 16.0902 -0.6125
48.3400 16.0969 -0.6038
48.3600 16.1036 -0.6154
48.3800 16.1103 -0.6216
48.4000 16.1170 -0.6044
48.4200 16.1237 -0.6125
48.4400 16.1303 -0.6230
48.4600 16.1369 -0.6130
48.4800 16.1435 -0.6162
48.5000 16.1502 -0.6229
48.5200 16.1569 -0.6087
48.5400 16.1636 -0.6251
48.5600 16.1703 -0.6247
48.5800 16.1770 -0.6136
48.6000 16.1837 -0.6254
48.6200 16.1903 -0.6297
48.6400 16.1969 -0.6160
48.6600 16.2035 -0.6245
48.6800 16.2101 -0.6331
48.7000 16.2169 -0.6226
48.7200 16.2236 -0.6300
48.7400 16.2303 -0.6355
48.7600 16.2369 -0.6254
48.7800 16.2436 -0.6283
48.8000 16.2503 -0.6352
48.8200 16.2569 -0.6270
48.8400 16.2635 -0.6323
48.8600 16.2702 -0.6388
48.8800 16.2769 -0.6299
48.9000 16.2836 -0.6282
48.9200 16.2903 -0.6445
48.9400 16.2970 -0.6369
48.9600 16.3037 -0.6340
48.9800 16.3104 -0.6439
49.0000 16.3170 -0.6382
49.0200 16.3236 -0.6354
49.0400 16.3302 -0.6479
49.0600 16.3369 -0.6394
49.0800 16.3436 -0.6404
49.1000 16.3503 -0.6469
49.1200 16.3570 -0.6443
49.1400 16.3637 -0.6417
49.1600 16.3703 -0.6507
49.1800 16.3769 -0.6412
49.2000 16.3835 -0.6461
49.2200 16.3902 -0.6518
49.2400 16.3969 -0.6435
49.2600 16.4036 -0.6471
49.2800 16.4102 -0.6575
49.3000 16.4169 -0.6472
49.3200 16.4236 -0.6459
49.3400 16.4303 -0.6608
49.3600 16.4369 -0.6542
49.3800 16.4435 -0.6460
49.4000 16.4502 -0.6622
49.4200 16.4568 -0.6542
49.4400 16.4636 -0.6489
49.4600 16.4703 -0.6674
49.4800 16.4770 -0.6553
49.5000 16.4837 -0.6529
49.5200 16.4903 -0.6657
49.5400 16.4970 -0.6563
49.5600 16.5035 -0.6567
49.5800 16.5102 -0.6761
49.6000 16.5169 -0.6551
49.6200 16.5236 -0.6608
49.6400 16.5303 -0.6772
49.6600 16.5370 -0.6569
49.6800 16.5437 -0.6677
49.7000 16.5503 -0.6815
49.7200 16.5569 -0.6607
49.7400 16.5635 -0.6683
49.7600 16.5702 -0.6781
49.7800 16.5769 -0.6649
49.8000 16.5836 -0.6751
49.8200 16.5903 -0.6820
49.8400 16.5970 -0.6671
49.8600 16.6037 -0.6754
49.8800 16.6103 -0.6809
49.9000 16.6170 -0.6769
49.9200 16.6236 -0.6827
49.9400 16.6302 -0.6785
49.9600 16.6369 -0.6751
49.9800 16.6436 -0.6869
50.0000 16.6503 -0.6811
50.0200 16.6570 -0.6822
50.0400 16.6637 -0.6838
50.0600 16.6703 -0.6834
50.0800 16.6770 -0.6897
50.1000 16.6835 -0.6826
50.1200 16.6901 -0.6871
50.1400 16.6968 -0.6939
50.1600 16.7036 -0.6846
50.1800 16.7103 -0.6862
50.2000 16.7170 -0.7010
50.2200 16.7236 -0.6867
50.2400 16.7303 -0.6956
50.2600 16.7369 -0.6986
50.2800 16.7435 -0.6888
50.3000 16.7502 -0.6936
50.3200 16.7569 -0.7025
50.3400 16.7636 -0.6925
50.3600 16.7703 -0.6975
50.3800 16.7770 -0.7042
50.4000 16.7837 -0.6969
50.4200 16.7903 -0.6966
50.4400 16.7970 -0.7074
50.4600 16.8036 -0.6948
50.4800 16.8102 -0.7022
50.5000 16.8169 -0.7071
50.5200 16.8236 -0.7044
50.5400 16.8303 -0.7053
50.5600 16.8370 -0.7032
50.5800 16.8437 -0.7046
50.6000 16.8503 -0.7095
50.6200 16.8570 -0.7109
50.6400 16.8636 -0.7049
50.6600 16.8702 -0.7090
50.6800 16.8769 -0.7092
50.7000 16.8836 -0.7109
50.7200 16.8903 -0.7130
50.7400 16.8970 -0.7144
50.7600 16.9036 -0.7135
50.7800 16.9103 -0.7101
50.8000 16.9169 -0.7145
50.8200 16.9235 -0.7226
50.8400 16.9302 -0.7106
50.8600 16.9369 -0.7197
50.8800 16.9436 -0.7183
50.9000 16.9502 -0.7119
50.9200 16.9569 -0.7228
50.9400 16.9636 -0.7284
50.9600 16.9703 -0.7101
50.9800 16.9769 -0.7253
51.0000 16.9835 -0.7288
51.0200 16.9902 -0.7165
51.0400 16.9969 -0.7258
51.0600 17.0036 -0.7254
51.0800 17.0103 -0.7201
51.1000 17.0170 -0.7346
51.1200 17.0237 -0.7305
51.1400 17.0304 -0.7206
51.1600 17.0370 -0.7326
51.1800 17.0436 -0.7300
51.2000 17.0502 -0.7212
51.2200 17.0569 -0.7347
51.2400 17.0636 -0.7372
51.2600 17.0703 -0.7210
51.2800 17.0770 -0.7324
51.3000 17.0836 -0.7444
51.3200 17.0903 -0.7278
51.3400 17.0969 -0.7385
51.3600 17.1035 -0.7416
51.3800 17.1102 -0.7276
51.4000 17.1169 -0.7449
51.4200 17.1236 -0.7407
51.4400 17.1303 -0.7324
51.4600 17.1369 -0.7416
51.4800 17.1436 -0.7422
51.5000 17.1503 -0.7329
51.5200 17.1570 -0.7541
51.5400 17.1636 -0.7472
51.5600 17.1702 -0.7312
51.5800 17.1768 -0.7508
51.6000 17.1836 -0.7534
51.6200 17.1903 -0.7370
51.6400 17.1970 -0.7540
51.6600 17.2036 -0.7467
51.6800 17.2103 -0.7427
51.7000 17.2170 -0.7582
51.7200 17.2236 -0.7454
51.7400 17.2302 -0.7427
51.7600 17.2369 -0.7705
51.7800 17.2436 -0.7491
51.8000 17.2503 -0.7469
51.8200 17.2569 -0.7751
51.8400 17.2636 -0.7502
51.8600 17.2703 -0.7462
51.8800 17.2770 -0.7780
51.9000 17.2836 -0.7557
51.9200 17.2902 -0.7512
51.9400 17.2969 -0.7771
51.9600 17.3036 -0.7501
51.9800 17.3103 -0.7641
52.0000 17.3170 -0.7740
52.0200 17.3237 -0.7476
52.0400 17.3303 -0.7764
52.0600 17.3370 -0.7720
52.0800 17.3435 -0.7464
52.1000 17.3501 -0.7862
52.1200 17.3568 -0.7674
52.1400 17.3636 -0.7477
52.1600 17.3703 -0.7901
52.1800 17.3770 -0.7690
52.2000 17.3836 -0.7507
52.2200 17.3903 -0.7972
52.2400 17.3969 -0.7617
52.2600 17.4035 -0.7645
52.2800 17.4101 -0.7893
52.3000 17.4168 -0.7604
52.3200 17.4235 -0.7707
52.3400 17.4302 -0.7897
52.3600 17.4369 -0.7610
52.3800 17.4436 -0.7825
52.4000 17.4503 -0.7834
52.4200 17.4569 -0.7632
52.4400 17.4636 -0.7953
52.4600 17.4702 -0.7832
52.4800 17.4769 -0.7634
52.5000 17.4836 -0.7996
52.5200 17.4903 -0.7816
52.5400 17.4970 -0.7685
52.5600 17.5037 -0.7989
52.5800 17.5104 -0.7799
52.6000 17.5170 -0.7787
52.6200 17.5236 -0.7968
52.6400 17.5302 -0.7756
52.6600 17.5369 -0.7863
52.6800 17.5436 -0.7982
52.7000 17.5503 -0.7759
52.7200 17.5570 -0.7948
52.7400 17.5637 -0.8003
52.7600 17.5703 -0.7769
52.7800 17.5770 -0.7949
52.8000 17.5836 -0.8039
52.8200 17.5902 -0.7775
52.8400 17.5968 -0.7982
52.8600 17.6036 -0.7996
52.8800 17.6103 -0.7871
52.9000 17.6169 -0.8007
52.9200 17.6236 -0.8001
52.9400 17.6303 -0.7881
52.9600 17.6370 -0.8016
52.9800 17.6436 -0.8048
53.0000 17.6502 -0.7929
53.0200 17.6568 -0.8049
53.0400 17.6635 -0.8004
53.0600 17.6702 -0.7955
53.0800 17.6769 -0.8098
53.1000 17.6836 -0.8059
53.1200 17.6903 -0.8022
53.1400 17.6969 -0.8141
53.1600 17.7036 -0.8095
53.1800 17.7102 -0.7994
53.2000 17.7169 -0.8153
53.2200 17.7236 -0.8187
53.2400 17.7303 -0.8008
53.2600 17.7370 -0.8133
53.2800 17.7437 -0.8176
53.3000 17.7504 -0.8048
53.3200 17.7570 -0.8171
53.3400 17.7636 -0.8235
53.3600 17.7702 -0.8053
53.3800 17.7769 -0.8236
53.4000 17.7836 -0.8187
53.4200 17.7903 -0.8114
53.4400 17.7970 -0.8280
53.4600 17.8037 -0.8229
53.4800 17.8103 -0.8113
53.5000 17.8170 -0.8292
53.5200 17.8236 -0.8297
53.5400 17.8302 -0.8135
53.5600 17.8368 -0.8274
53.5800 17.8435 -0.8311
53.6000 17.8502 -0.8218
53.6200 17.8569 -0.8285
53.6400 17.8636 -0.8318
53.6600 17.8703 -0.8355
53.6800 17.8770 -0.8323
53.7000 17.8836 -0.8337
53.7200 17.8902 -0.8314
53.7400 17.8968 -0.8348
53.7600 17.9035 -0.8373
53.7800 17.9102 -0.8321
53.8000 17.9169 -0.8384
53.8200 17.9236 -0.8385
53.8400 17.9303 -0.8416
53.8600 17.9370 -0.8405
53.8800 17.9436 -0.8368
53.9000 17.9502 -0.8473
53.9200 17.9569 -0.8435
53.9400 17.9635 -0.8383
53.9600 17.9703 -0.8523
53.9800 17.9769 -0.8446
54.0000 17.9836 -0.8471
54.0200 17.9903 -0.8491
54.0400 17.9970 -0.8497
54.0600 18.0036 -0.8489
54.0800 18.0102 -0.8576
54.1000 18.0169 -0.8515
54.1200 18.0235 -0.8518
54.1400 18.0302 -0.8544
54.1600 18.0369 -0.8549
54.1800 18.0436 -0.8592
54.2000 18.0503 -0.8608
54.2200 18.0570 -0.8571
54.2400 18.0636 -0.8639
54.2600 18.0702 -0.8624
54.2800 18.0769 -0.8569
54.3000 18.0836 -0.8637
54.3200 18.0903 -0.8717
54.3400 18.0970 -0.8631
54.3600 18.1036 -0.8625
54.3800 18.1103 -0.8675
54.4000 18.1170 -0.8690
54.4200 18.1236 -0.8674
54.4400 18.1302 -0.8753
54.4600 18.1368 -0.8723
54.4800 18.1435 -0.8671
54.5000 18.1502 -0.8809
54.5200 18.1569 -0.8696
54.5400 18.1636 -0.8756
54.5600 18.1703 -0.8853
54.5800 18.1769 -0.8723
54.6000 18.1836 -0.8721
54.6200 18.1902 -0.8913
54.6400 18.1968 -0.8725
54.6600 18.2035 -0.8772
54.6800 18.2103 -0.8871
54.7000 18.2170 -0.8774
54.7200 18.2237 -0.8839
54.7400 18.2304 -0.8947
54.7600 18.2370 -0.8758
54.7800 18.2437 -0.8931
54.8000 18.2502 -0.8951
54.8200 18.2569 -0.8762
54.8400 18.2636 -0.8903
54.8600 18.2703 -0.8979
54.8800 18.2770 -0.8890
54.9000 18.2837 -0.8938
54.9200 18.2903 -0.8941
54.9400 18.2970 -0.8910
54.9600 18.3036 -0.9040
54.9800 18.3102 -0.9003
55.0000 18.3169 -0.8847
55.0200 18.3235 -0.9063
55.0400 18.3302 -0.9071
55.0600 18.3369 -0.8879
55.0800 18.3436 -0.9019
55.1000 18.3503 -0.9172
55.1200 18.3570 -0.8987
55.1400 18.3636 -0.8979
55.1600 18.3702 -0.9166
55.1800 18.3768 -0.9013
55.2000 18.3835 -0.9042
55.2200 18.3902 -0.9192
55.2400 18.3969 -0.9055
55.2600 18.4036 -0.9044
55.2800 18.4103 -0.9235
55.3000 18.4170 -0.9123
55.3200 18.4236 -0.9130
55.3400 18.4302 -0.9203
55.3600 18.4368 -0.9093
55.3800 18.4436 -0.9135
55.4000 18.4503 -0.9296
55.4200 18.4570 -0.9144
55.4400 18.4636 -0.9149
55.4600 18.4703 -0.9290
55.4800 18.4770 -0.9179
55.5000 18.4837 -0.9208
55.5200 18.4903 -0.9376
55.5400 18.4969 -0.9177
55.5600 18.5036 -0.9215
55.5800 18.5103 -0.9366
55.6000 18.5169 -0.9257
55.6200 18.5236 -0.9304
55.6400 18.5303 -0.9394
55.6600 18.5370 -0.9257
55.6800 18.5437 -0.9339
55.7000 18.5502 -0.9366
55.7200 18.5569 -0.9276
55.7400 18.5635 -0.9406
55.7600 18.5702 -0.9388
55.7800 18.5769 -0.9327
55.8000 18.5836 -0.9404
55.8200 18.5903 -0.9439
55.8400 18.5970 -0.9342
55.8600 18.6036 -0.9472
55.8800 18.6102 -0.9469
55.9000 18.6168 -0.9367
55.9200 18.6235 -0.9490
55.9400 18.6302 -0.9483
55.9600 18.6369 -0.9390
55.9800 18.6436 -0.9550
56.0000 18.6503 -0.9524
56.0200 18.6570 -0.9434
56.0400 18.6636 -0.9530
56.0600 18.6702 -0.9601
56.0800 18.6769 -0.9405
56.1000 18.6835 -0.9552
56.1200 18.6902 -0.9652
56.1400 18.6969 -0.9440
56.1600 18.7036 -0.9536
56.1800 18.7103 -0.9670
56.2000 18.7170 -0.9503
56.2200 18.7237 -0.9564
56.2400 18.7303 -0.9702
56.2600 18.7369 -0.9529
56.2800 18.7435 -0.9565
56.3000 18.7502 -0.9703
56.3200 18.7570 -0.9623
56.3400 18.7637 -0.9627
56.3600 18.7703 -0.9716
56.3800 18.7770 -0.9635
56.4000 18.7836 -0.9625
56.4200 18.7902 -0.9748
56.4400 18.7969 -0.9682
56.4600 18.8035 -0.9686
56.4800 18.8103 -0.9792
56.5000 18.8170 -0.9710
56.5200 18.8236 -0.9711
56.5400 18.8303 -0.9798
56.5600 18.8369 -0.9783
56.5800 18.8436 -0.9676
56.6000 18.8502 -0.9865
56.6200 18.8568 -0.9817
56.6400 18.8635 -0.9718
56.6600 18.8702 -0.9856
56.6800 18.8769 -0.9902
56.7000 18.8836 -0.9728
56.7200 18.8903 -0.9920
56.7400 18.8970 -0.9913
56.7600 18.9036 -0.9773
56.7800 18.9102 -0.9957
56.8000 18.9169 -0.9904
56.8200 18.9235 -0.9800
56.8400 18.9303 -1.0011
56.8600 18.9370 -0.9872
56.8800 18.9437 -0.9872
56.9000 18.9503 -0.9992
56.9200 18.9570 -0.9928
56.9400 18.9637 -0.9959
56.9600 18.9702 -1.0036
56.9800 18.9769 -0.9903
57.0000 18.9836 -0.9964
57.0200 18.9903 -1.0062
57.0400 18.9970 -0.9955
57.0600 19.0036 -1.0033
57.0800 19.0103 -1.0035
57.1000 19.0170 -1.0041
57.1200 19.0236 -1.0092
57.1400 19.0302 -1.0030
57.1600 19.0368 -1.0074
57.1800 19.0435 -1.0116
57.2000 19.0502 -1.0064
57.2200 19.0569 -1.0111
57.2400 19.0636 -1.0168
57.2600 19.0703 -1.0155
57.2800 19.0770 -1.0122
57.3000 19.0836 -1.0187
57.3200 19.0902 -1.0198
57.3400 19.0968 -1.0227
57.3600 19.1035 -1.0186
57.3800 19.1102 -1.0219
57.4000 19.1169 -1.0271
57.4200 19.1236 -1.0250
57.4400 19.1303 -1.0237
57.4600 19.1369 -1.0336
57.4800 19.1436 -1.0322
57.5000 19.1502 -1.0288
57.5200 19.1569 -1.0336
57.5400 19.1635 -1.0380
57.5600 19.1702 -1.0351
57.5800 19.1770 -1.0343
57.6000 19.1836 -1.0355
57.6200 19.1903 -1.0430
57.6400 19.1970 -1.0442
57.6600 19.2037 -1.0363
57.6800 19.2103 -1.0445
57.7000 19.2169 -1.0508
57.7200 19.2235 -1.0409
57.7400 19.2303 -1.0464
57.7600 19.2370 -1.0537
57.7800 19.2437 -1.0413
57.8000 19.2504 -1.0516
57.8200 19.2570 -1.0575
57.8400 19.2637 -1.0485
57.8600 19.2703 -1.0569
57.8800 19.2769 -1.0621
57.9000 19.2835 -1.0553
57.9200 19.2902 -1.0544
57.9400 19.2969 -1.0546
57.9600 19.3036 -1.0731
57.9800 19.3103 -1.0576
58.0000 19.3170 -1.0538
58.0200 19.3236 -1.0803
58.0400 19.3302 -1.0694
58.0600 19.3368 -1.0465
58.0800 19.3435 -1.0839
58.1000 19.3502 -1.0742
58.1200 19.3569 -1.0530
58.1400 19.3636 -1.0838
58.1600 19.3702 -1.0724
58.1800 19.3769 -1.0625
58.2000 19.3836 -1.0930
58.2200 19.3903 -1.0731
58.2400 19.3969 -1.0708
58.2600 19.4035 -1.0961
58.2800 19.4102 -1.0672
58.3000 19.4169 -1.0810
58.3200 19.4236 -1.1029
58.3400 19.4303 -1.0677
58.3600 19.4370 -1.0896
58.3800 19.4437 -1.0980
58.4000 19.4503 -1.0709
58.4200 19.4569 -1.1012
58.4400 19.4635 -1.0934
58.4600 19.4702 -1.0783
58.4800 19.4769 -1.1084
58.5000 19.4836 -1.0910
58.5200 19.4903 -1.0829
58.5400 19.4970 -1.1151
58.5600 19.5037 -1.0920
58.5800 19.5103 -1.0939
58.6000 19.5169 -1.1149
58.6200 19.5235 -1.0891
58.6400 19.5302 -1.1016
58.6600 19.5369 -1.1247
58.6800 19.5436 -1.0918
58.7000 19.5503 -1.1027
58.7200 19.5570 -1.1257
58.7400 19.5636 -1.0992
58.7600 19.5703 -1.1100
58.7800 19.5769 -1.1256
58.8000 19.5835 -1.1036
58.8200 19.5902 -1.1114
58.8400 19.5969 -1.1215
58.8600 19.6036 -1.1223
58.8800 19.6102 -1.1169
58.9000 19.6169 -1.1191
58.9200 19.6236 -1.1296
58.9400 19.6302 -1.1229
58.9600 19.6368 -1.1175
58.9800 19.6435 -1.1319
59.0000 19.6502 -1.1280
59.0200 19.6569 -1.1235
59.0400 19.6637 -1.1374
59.0600 19.6703 -1.1302
59.0800 19.6770 -1.1306
59.1000 19.6837 -1.1422
59.1200 19.6903 -1.1336
59.1400 19.6969 -1.1373
59.1600 19.7036 -1.1549
59.1800 19.7103 -1.1316
59.2000 19.7169 -1.1406
59.2200 19.7236 -1.1609
59.2400 19.7303 -1.1369
59.2600 19.7370 -1.1446
59.2800 19.7437 -1.1673
59.3000 19.7502 -1.1545
