Raw Data
Time Displacement Force
(s) (mm) (N)
0.0000 0.0001 0.2997
0.0200 0.0001 0.2909
0.0400 0.0009 0.3372
0.0600 0.0041 0.3752
0.0800 0.0096 0.3648
0.1000 0.0153 0.3898
0.1200 0.0212 0.4575
0.1400 0.0279 0.4750
0.1600 0.0352 0.4757
0.1800 0.0427 0.4932
0.2000 0.0498 0.4760
0.2200 0.0567 0.4791
0.2400 0.0634 0.4939
0.2600 0.0701 0.4791
0.2800 0.0767 0.4823
0.3000 0.0834 0.4985
0.3200 0.0901 0.4783
0.3400 0.0969 0.4873
0.3600 0.1035 0.4960
0.3800 0.1102 0.4761
0.4000 0.1168 0.4896
0.4200 0.1235 0.4981
0.4400 0.1302 0.4846
0.4600 0.1369 0.4972
0.4800 0.1436 0.4965
0.5000 0.1503 0.4914
0.5200 0.1570 0.4959
0.5400 0.1636 0.4970
0.5600 0.1702 0.4969
0.5800 0.1768 0.5029
0.6000 0.1835 0.4935
0.6200 0.1902 0.5000
0.6400 0.1969 0.5027
0.6600 0.2036 0.5009
0.6800 0.2103 0.5145
0.7000 0.2169 0.5030
0.7200 0.2236 0.4930
0.7400 0.2302 0.5211
0.7600 0.2368 0.5099
0.7800 0.2435 0.5078
0.8000 0.2502 0.5170
0.8200 0.2569 0.5053
0.8400 0.2635 0.5074
0.8600 0.2702 0.5226
0.8800 0.2769 0.5069
0.9000 0.2835 0.5127
0.9200 0.2901 0.5252
0.9400 0.2967 0.5080
0.9600 0.3034 0.5192
0.9800 0.3102 0.5227
1.0000 0.3168 0.5108
1.0200 0.3235 0.5195
1.0400 0.3302 0.5167
1.0600 0.3369 0.5179
1.0800 0.3435 0.5240
1.1000 0.3501 0.5156
1.1200 0.3568 0.5179
1.1400 0.3635 0.5237
1.1600 0.3702 0.5208
1.1800 0.3769 0.5167
1.2000 0.3836 0.5245
1.2200 0.3903 0.5142
1.2400 0.3970 0.5215
1.2600 0.4036 0.5194
1.2800 0.4102 0.5177
1.3000 0.4169 0.5253
1.3200 0.4235 0.5107
1.3400 0.4302 0.5130
1.3600 0.4369 0.5218
1.3800 0.4436 0.5124
1.4000 0.4503 0.5168
1.4200 0.4569 0.5195
1.4400 0.4636 0.5073
1.4600 0.4702 0.5122
1.4800 0.4768 0.5213
1.5000 0.4834 0.5034
1.5200 0.4902 0.5115
1.5400 0.4969 0.5172
1.5600 0.5035 0.4946
1.5800 0.5102 0.5151
1.6000 0.5169 0.5107
1.6200 0.5235 0.4968
1.6400 0.5301 0.5102
1.6600 0.5367 0.5047
1.6800 0.5434 0.4980
1.7000 0.5502 0.5121
1.7200 0.5569 0.4935
1.7400 0.5636 0.4943
1.7600 0.5702 0.5118
1.7800 0.5769 0.4938
1.8000 0.5836 0.4922
1.8200 0.5902 0.5040
1.8400 0.5968 0.4903
1.8600 0.6035 0.4960
1.8800 0.6102 0.4946
1.9000 0.6169 0.4931
1.9200 0.6236 0.4917
1.9400 0.6303 0.4956
1.9600 0.6370 0.4884
1.9800 0.6436 0.4893
2.0000 0.6502 0.4952
2.0200 0.6568 0.4909
2.0400 0.6635 0.4868
2.0600 0.6702 0.4953
2.0800 0.6769 0.4890
2.1000 0.6836 0.4848
2.1200 0.6903 0.4924
2.1400 0.6969 0.4911
2.1600 0.7036 0.4820
2.1800 0.7102 0.4906
2.2000 0.7168 0.4891
2.2200 0.7235 0.4826
2.2400 0.7302 0.4831
2.2600 0.7369 0.4854
2.2800 0.7436 0.4802
2.3000 0.7502 0.4884
2.3200 0.7569 0.4853
2.3400 0.7636 0.4779
2.3600 0.7702 0.4812
2.3800 0.7768 0.4816
2.4000 0.7835 0.4818
2.4200 0.7901 0.4806
2.4400 0.7968 0.4803
2.4600 0.8035 0.4734
2.4800 0.8102 0.4824
2.5000 0.8169 0.4763
2.5200 0.8236 0.4733
2.5400 0.8302 0.4811
2.5600 0.8368 0.4792
2.5800 0.8435 0.4655
2.6000 0.8502 0.4812
2.6200 0.8569 0.4776
2.6400 0.8636 0.4630
2.6600 0.8703 0.4816
2.6800 0.8769 0.4783
2.7000 0.8836 0.4626
2.7200 0.8902 0.4790
2.7400 0.8969 0.4713
2.7600 0.9035 0.4696
2.7800 0.9102 0.4788
2.8000 0.9169 0.4704
2.8200 0.9236 0.4668
2.8400 0.9303 0.4741
2.8600 0.9370 0.4706
2.8800 0.9436 0.4668
2.9000 0.9502 0.4726
2.9200 0.9568 0.4679
2.9400 0.9635 0.4716
2.9600 0.9702 0.4718
2.9800 0.9769 0.4660
3.0000 0.9836 0.4721
3.0200 0.9903 0.4687
3.0400 0.9969 0.4650
3.0600 1.0036 0.4681
3.0800 1.0102 0.4683
3.1000 1.0168 0.4674
3.1200 1.0234 0.4656
3.1400 1.0301 0.4703
3.1600 1.0369 0.4644
3.1800 1.0436 0.4672
3.2000 1.0502 0.4651
3.2200 1.0569 0.4654
3.2400 1.0636 0.4623
3.2600 1.0702 0.4673
3.2800 1.0768 0.4693
3.3000 1.0835 0.4589
3.3200 1.0902 0.4635
3.3400 1.0969 0.4687
3.3600 1.1036 0.4552
3.3800 1.1103 0.4661
3.4000 1.1170 0.4618
3.4200 1.1236 0.4527
3.4400 1.1303 0.4649
3.4600 1.1369 0.4626
3.4800 1.1435 0.4499
3.5000 1.1502 0.4644
3.5200 1.1569 0.4653
3.5400 1.1636 0.4538
3.5600 1.1703 0.4597
3.5800 1.1770 0.4551
3.6000 1.1836 0.4508
3.6200 1.1902 0.4606
3.6400 1.1968 0.4562
3.6600 1.2035 0.4561
3.6800 1.2102 0.4573
3.7000 1.2169 0.4462
3.7200 1.2236 0.4531
3.7400 1.2302 0.4633
3.7600 1.2369 0.4528
3.7800 1.2436 0.4501
3.8000 1.2502 0.4564
3.8200 1.2568 0.4458
3.8400 1.2635 0.4573
3.8600 1.2702 0.4538
3.8800 1.2769 0.4490
3.9000 1.2835 0.4545
3.9200 1.2902 0.4490
3.9400 1.2969 0.4488
3.9600 1.3036 0.4542
3.9800 1.3102 0.4468
4.0000 1.3168 0.4503
4.0200 1.3235 0.4560
4.0400 1.3301 0.4468
4.0600 1.3369 0.4491
4.0800 1.3436 0.4490
4.1000 1.3502 0.4409
4.1200 1.3569 0.4549
4.1400 1.3636 0.4444
4.1600 1.3702 0.4416
4.1800 1.3768 0.4497
4.2000 1.3835 0.4406
4.2200 1.3902 0.4476
4.2400 1.3969 0.4512
4.2600 1.4036 0.4344
4.2800 1.4103 0.4438
4.3000 1.4170 0.4517
4.3200 1.4236 0.4327
4.3400 1.4302 0.4432
4.3600 1.4368 0.4497
4.3800 1.4435 0.4376
4.4000 1.4502 0.4418
4.4200 1.4569 0.4437
4.4400 1.4636 0.4376
4.4600 1.4702 0.4478
4.4800 1.4769 0.4402
4.5000 1.4836 0.4374
4.5200 1.4902 0.4446
4.5400 1.4968 0.4406
4.5600 1.5034 0.4391
4.5800 1.5101 0.4475
4.6000 1.5168 0.4351
4.6200 1.5235 0.4422
4.6400 1.5302 0.4414
4.6600 1.5369 0.4330
4.6800 1.5436 0.4417
4.7000 1.5502 0.4341
4.7200 1.5568 0.4333
4.7400 1.5635 0.4455
4.7600 1.5702 0.4303
4.7800 1.5769 0.4341
4.8000 1.5836 0.4442
4.8200 1.5903 0.4308
4.8400 1.5970 0.4344
4.8600 1.6036 0.4444
4.8800 1.6102 0.4227
4.9000 1.6168 0.4369
4.9200 1.6235 0.4443
4.9400 1.6302 0.4227
4.9600 1.6369 0.4375
4.9800 1.6436 0.4371
5.0000 1.6503 0.4297
5.0200 1.6569 0.4332
5.0400 1.6636 0.4311
5.0600 1.6702 0.4238
5.0800 1.6768 0.4381
5.1000 1.6834 0.4378
5.1200 1.6901 0.4226
5.1400 1.6969 0.4294
5.1600 1.7036 0.4319
5.1800 1.7103 0.4306
5.2000 1.7169 0.4299
5.2200 1.7236 0.4237
5.2400 1.7302 0.4287
5.2600 1.7368 0.4265
5.2800 1.7434 0.4298
5.3000 1.7501 0.4284
5.3200 1.7568 0.4281
5.3400 1.7635 0.4288
5.3600 1.7702 0.4219
5.3800 1.7769 0.4221
5.4000 1.7836 0.4337
5.4200 1.7902 0.4236
5.4400 1.7968 0.4169
5.4600 1.8035 0.4308
5.4800 1.8102 0.4228
5.5000 1.8169 0.4166
5.5200 1.8236 0.4266
5.5400 1.8303 0.4175
5.5600 1.8370 0.4225
5.5800 1.8436 0.4204
5.6000 1.8503 0.4122
5.6200 1.8569 0.4221
5.6400 1.8635 0.4263
5.6600 1.8702 0.4146
5.6800 1.8769 0.4145
5.7000 1.8836 0.4238
5.7200 1.8903 0.4078
5.7400 1.8969 0.4198
5.7600 1.9036 0.4230
5.7800 1.9102 0.4094
5.8000 1.9168 0.4184
5.8200 1.9234 0.4203
5.8400 1.9301 0.4091
5.8600 1.9368 0.4153
5.8800 1.9435 0.4211
5.9000 1.9502 0.4070
5.9200 1.9569 0.4075
5.9400 1.9636 0.4203
5.9600 1.9702 0.4048
5.9800 1.9768 0.4084
6.0000 1.9835 0.4137
6.0200 1.9901 0.4063
6.0400 1.9968 0.4100
6.0600 2.0035 0.4148
6.0800 2.0102 0.3983
6.1000 2.0169 0.4079
6.1200 2.0236 0.4122
6.1400 2.0303 0.4007
6.1600 2.0369 0.4070
6.1800 2.0435 0.4112
6.2000 2.0502 0.3964
6.2200 2.0569 0.4052
6.2400 2.0636 0.4138
6.2600 2.0703 0.3962
6.2800 2.0769 0.4084
6.3000 2.0836 0.4066
6.3200 2.0902 0.3937
6.3400 2.0968 0.4006
6.3600 2.1035 0.4096
6.3800 2.1101 0.4032
6.4000 2.1169 0.3962
6.4200 2.1236 0.3998
6.4400 2.1303 0.4083
6.4600 2.1369 0.4053
6.4800 2.1436 0.4015
6.5000 2.1503 0.3961
6.5200 2.1569 0.4046
6.5400 2.1635 0.3964
6.5600 2.1702 0.3973
6.5800 2.1769 0.4019
6.6000 2.1835 0.3971
6.6200 2.1902 0.3994
6.6400 2.1969 0.3997
6.6600 2.2036 0.3927
6.6800 2.2103 0.4014
6.7000 2.2168 0.4003
6.7200 2.2234 0.3938
6.7400 2.2301 0.3981
6.7600 2.2368 0.3943
6.7800 2.2435 0.3934
6.8000 2.2502 0.3987
6.8200 2.2569 0.3943
6.8400 2.2636 0.4005
6.8600 2.2702 0.3951
6.8800 2.2769 0.3916
6.9000 2.2835 0.4018
6.9200 2.2902 0.3949
6.9400 2.2969 0.3875
6.9600 2.3036 0.3917
6.9800 2.3102 0.3934
7.0000 2.3169 0.3893
7.0200 2.3236 0.3982
7.0400 2.3302 0.3904
7.0600 2.3369 0.3857
7.0800 2.3435 0.3946
7.1000 2.3501 0.3892
7.1200 2.3568 0.3860
7.1400 2.3636 0.3973
7.1600 2.3702 0.3874
7.1800 2.3769 0.3841
7.2000 2.3836 0.3905
7.2200 2.3903 0.3944
7.2400 2.3969 0.3854
7.2600 2.4035 0.3938
7.2800 2.4101 0.3925
7.3000 2.4168 0.3836
7.3200 2.4236 0.3908
7.3400 2.4303 0.3877
7.3600 2.4369 0.3798
7.3800 2.4436 0.3897
7.4000 2.4502 0.3851
7.4200 2.4569 0.3833
7.4400 2.4634 0.3897
7.4600 2.4701 0.3863
7.4800 2.4768 0.3811
7.5000 2.4835 0.3860
7.5200 2.4902 0.3857
7.5400 2.4969 0.3813
7.5600 2.5036 0.3863
7.5800 2.5103 0.3841
7.6000 2.5169 0.3834
7.6200 2.5235 0.3892
7.6400 2.5302 0.3825
7.6600 2.5369 0.3789
7.6800 2.5436 0.3859
7.7000 2.5503 0.3794
7.7200 2.5569 0.3851
7.7400 2.5636 0.3847
7.7600 2.5703 0.3748
7.7800 2.5769 0.3771
7.8000 2.5835 0.3918
7.8200 2.5902 0.3826
7.8400 2.5969 0.3774
7.8600 2.6036 0.3800
7.8800 2.6103 0.3752
7.9000 2.6169 0.3748
7.9200 2.6236 0.3813
7.9400 2.6302 0.3690
7.9600 2.6369 0.3729
7.9800 2.6435 0.3820
8.0000 2.6501 0.3754
8.0200 2.6568 0.3708
8.0400 2.6635 0.3835
8.0600 2.6702 0.3742
8.0800 2.6769 0.3671
8.1000 2.6836 0.3788
8.1200 2.6903 0.3701
8.1400 2.6969 0.3713
8.1600 2.7035 0.3755
8.1800 2.7101 0.3765
8.2000 2.7168 0.3781
8.2200 2.7235 0.3652
8.2400 2.7302 0.3672
8.2600 2.7369 0.3800
8.2800 2.7436 0.3676
8.3000 2.7502 0.3650
8.3200 2.7569 0.3747
8.3400 2.7635 0.3645
8.3600 2.7702 0.3636
8.3800 2.7769 0.3739
8.4000 2.7836 0.3619
8.4200 2.7902 0.3718
8.4400 2.7969 0.3633
8.4600 2.8036 0.3602
8.4800 2.8103 0.3742
8.5000 2.8169 0.3629
8.5200 2.8235 0.3556
8.5400 2.8301 0.3692
8.5600 2.8368 0.3632
8.5800 2.8436 0.3627
8.6000 2.8503 0.3637
8.6200 2.8569 0.3608
8.6400 2.8636 0.3627
8.6600 2.8703 0.3682
8.6800 2.8769 0.3550
8.7000 2.8835 0.3643
8.7200 2.8901 0.3622
8.7400 2.8968 0.3510
8.7600 2.9035 0.3697
8.7800 2.9102 0.3649
8.8000 2.9169 0.3510
8.8200 2.9236 0.3666
8.8400 2.9302 0.3574
8.8600 2.9368 0.3510
8.8800 2.9434 0.3734
8.9000 2.9501 0.3587
8.9200 2.9568 0.3481
8.9400 2.9635 0.3638
8.9600 2.9702 0.3558
8.9800 2.9768 0.3615
9.0000 2.9835 0.3689
9.0200 2.9902 0.3419
9.0400 2.9969 0.3620
9.0600 3.0035 0.3674
9.0800 3.0101 0.3417
9.1000 3.0168 0.3624
9.1200 3.0236 0.3654
9.1400 3.0303 0.3379
9.1600 3.0370 0.3676
9.1800 3.0436 0.3612
9.2000 3.0503 0.3448
9.2200 3.0569 0.3640
9.2400 3.0635 0.3500
9.2600 3.0701 0.3484
9.2800 3.0768 0.3688
9.3000 3.0836 0.3410
9.3200 3.0903 0.3507
9.3400 3.0969 0.3629
9.3600 3.1036 0.3414
9.3800 3.1103 0.3557
9.4000 3.1169 0.3618
9.4200 3.1235 0.3395
9.4400 3.1301 0.3539
9.4600 3.1368 0.3601
9.4800 3.1435 0.3383
9.5000 3.1502 0.3582
9.5200 3.1569 0.3530
9.5400 3.1636 0.3418
9.5600 3.1703 0.3613
9.5800 3.1769 0.3497
9.6000 3.1835 0.3384
9.6200 3.1902 0.3628
9.6400 3.1968 0.3458
9.6600 3.2035 0.3378
9.6800 3.2102 0.3556
9.7000 3.2169 0.3472
9.7200 3.2235 0.3395
9.7400 3.2302 0.3600
9.7600 3.2369 0.3407
9.7800 3.2435 0.3364
9.8000 3.2501 0.3590
9.8200 3.2568 0.3480
9.8400 3.2635 0.3346
9.8600 3.2703 0.3512
9.8800 3.2769 0.3459
9.9000 3.2836 0.3340
9.9200 3.2903 0.3516
9.9400 3.2969 0.3509
9.9600 3.3035 0.3284
9.9800 3.3102 0.3568
10.0000 3.3169 0.3433
10.0200 3.3236 0.3245
10.0400 3.3303 0.3567
10.0600 3.3370 0.3554
10.0800 3.3436 0.3209
10.1000 3.3503 0.3407
10.1200 3.3569 0.3641
10.1400 3.3635 0.3236
10.1600 3.3701 0.3318
10.1800 3.3768 0.3594
10.2000 3.3835 0.3278
10.2200 3.3902 0.3332
10.2400 3.3969 0.3570
10.2600 3.4035 0.3157
10.2800 3.4102 0.3389
10.3000 3.4169 0.3640
10.3200 3.4235 0.3132
10.3400 3.4301 0.3324
10.3600 3.4368 0.3685
10.3800 3.4435 0.3065
10.4000 3.4502 0.3320
10.4200 3.4569 0.3693
10.4400 3.4636 0.3072
10.4600 3.4702 0.3202
10.4800 3.4769 0.3663
10.5000 3.4835 0.3160
10.5200 3.4902 0.3272
10.5400 3.4968 0.3532
10.5600 3.5035 0.3062
10.5800 3.5102 0.3276
10.6000 3.5169 0.3654
10.6200 3.5236 0.3086
10.6400 3.5303 0.3078
10.6600 3.5369 0.3486
10.6800 3.5435 0.3275
10.7000 3.5501 0.3299
10.7200 3.5568 0.3414
10.7400 3.5635 0.3189
10.7600 3.5702 0.3109
10.7800 3.5769 0.3463
10.8000 3.5836 0.3326
10.8200 3.5903 0.3083
10.8400 3.5969 0.3336
10.8600 3.6035 0.3254
10.8800 3.6101 0.3119
10.9000 3.6168 0.3510
10.9200 3.6235 0.3256
10.9400 3.6302 0.2933
10.9600 3.6369 0.3417
10.9800 3.6436 0.3367
11.0000 3.6503 0.2985
11.0200 3.6569 0.3383
11.0400 3.6635 0.3215
11.0600 3.6701 0.3110
11.0800 3.6768 0.3453
11.1000 3.6835 0.3111
11.1200 3.6902 0.3043
11.1400 3.6969 0.3393
11.1600 3.7035 0.3114
11.1800 3.7102 0.3135
11.2000 3.7169 0.3370
11.2200 3.7235 0.3022
11.2400 3.7301 0.3192
11.2600 3.7368 0.3366
11.2800 3.7435 0.3010
11.3000 3.7502 0.3249
11.3200 3.7569 0.3232
11.3400 3.7637 0.2989
11.3600 3.7703 0.3262
11.3800 3.7770 0.3163
11.4000 3.7835 0.3094
11.4200 3.7902 0.3243
11.4400 3.7968 0.3133
11.4600 3.8036 0.3131
11.4800 3.8103 0.3248
11.5000 3.8169 0.3068
11.5200 3.8236 0.3079
11.5400 3.8302 0.3216
11.5600 3.8369 0.3100
11.5800 3.8435 0.3087
11.6000 3.8502 0.3189
11.6200 3.8569 0.3077
11.6400 3.8635 0.3159
11.6600 3.8702 0.3158
11.6800 3.8769 0.3122
11.7000 3.8836 0.3097
11.7200 3.8902 0.3076
11.7400 3.8969 0.3102
11.7600 3.9035 0.3113
11.7800 3.9101 0.3111
11.8000 3.9168 0.3147
11.8200 3.9235 0.3101
11.8400 3.9302 0.3065
11.8600 3.9369 0.3156
11.8800 3.9436 0.3127
11.9000 3.9503 0.3026
11.9200 3.9569 0.3084
11.9400 3.9635 0.3085
11.9600 3.9701 0.3072
11.9800 3.9768 0.3096
12.0000 3.9835 0.3057
12.0200 3.9903 0.3017
12.0400 3.9969 0.3070
12.0600 4.0036 0.3096
12.0800 4.0103 0.2980
12.1000 4.0169 0.3061
12.1200 4.0236 0.3124
12.1400 4.0302 0.2978
12.1600 4.0368 0.3004
12.1800 4.0435 0.3110
12.2000 4.0502 0.3023
12.2200 4.0569 0.3038
12.2400 4.0636 0.3075
12.2600 4.0703 0.3000
12.2800 4.0770 0.2963
12.3000 4.0835 0.3070
12.3200 4.0901 0.2981
12.3400 4.0967 0.3042
12.3600 4.1034 0.3070
12.3800 4.1102 0.2934
12.4000 4.1169 0.2969
12.4200 4.1236 0.3102
12.4400 4.1303 0.2969
12.4600 4.1369 0.2962
12.4800 4.1435 0.3026
12.5000 4.1501 0.2944
12.5200 4.1568 0.2935
12.5400 4.1635 0.3058
12.5600 4.1702 0.2951
12.5800 4.1769 0.3023
12.6000 4.1835 0.2988
12.6200 4.1902 0.2905
12.6400 4.1969 0.2959
12.6600 4.2036 0.2954
12.6800 4.2102 0.3020
12.7000 4.2168 0.2936
12.7200 4.2235 0.2925
12.7400 4.2302 0.2942
12.7600 4.2369 0.2991
12.7800 4.2436 0.2965
12.8000 4.2503 0.2969
12.8200 4.2570 0.2866
12.8400 4.2636 0.2916
12.8600 4.2702 0.2956
12.8800 4.2768 0.2908
12.9000 4.2835 0.2985
12.9200 4.2902 0.2977
12.9400 4.2969 0.2771
12.9600 4.3036 0.3029
12.9800 4.3103 0.2982
13.0000 4.3169 0.2803
13.0200 4.3235 0.2956
13.0400 4.3302 0.2962
13.0600 4.3368 0.2835
13.0800 4.3435 0.2994
13.1000 4.3502 0.2894
13.1200 4.3569 0.2783
13.1400 4.3635 0.2972
13.1600 4.3702 0.2908
13.1800 4.3769 0.2844
13.2000 4.3836 0.2978
13.2200 4.3901 0.2816
13.2400 4.3968 0.2868
13.2600 4.4035 0.2971
13.2800 4.4102 0.2807
13.3000 4.4169 0.2886
13.3200 4.4236 0.2935
13.3400 4.4303 0.2759
13.3600 4.4370 0.2869
13.3800 4.4436 0.2949
13.4000 4.4502 0.2758
13.4200 4.4568 0.2896
13.4400 4.4635 0.2872
13.4600 4.4702 0.2764
13.4800 4.4770 0.2924
13.5000 4.4836 0.2858
13.5200 4.4903 0.2759
13.5400 4.4970 0.2903
13.5600 4.5036 0.2842
13.5800 4.5102 0.2823
13.6000 4.5168 0.2872
13.6200 4.5235 0.2796
13.6400 4.5302 0.2804
13.6600 4.5369 0.2831
13.6800 4.5436 0.2777
13.7000 4.5503 0.2885
13.7200 4.5569 0.2761
13.7400 4.5635 0.2720
13.7600 4.5701 0.2853
13.7800 4.5768 0.2788
13.8000 4.5835 0.2749
13.8200 4.5902 0.2846
13.8400 4.5969 0.2739
13.8600 4.6036 0.2773
13.8800 4.6102 0.2864
13.9000 4.6169 0.2718
13.9200 4.6235 0.2727
13.9400 4.6301 0.2889
13.9600 4.6368 0.2691
13.9800 4.6435 0.2704
14.0000 4.6502 0.2814
14.0200 4.6569 0.2662
14.0400 4.6636 0.2681
14.0600 4.6703 0.2844
14.0800 4.6769 0.2691
14.1000 4.6835 0.2714
14.1200 4.6902 0.2824
14.1400 4.6968 0.2647
14.1600 4.7035 0.2733
14.1800 4.7102 0.2821
14.2000 4.7169 0.2654
14.2200 4.7236 0.2655
14.2400 4.7303 0.2786
14.2600 4.7370 0.2705
14.2800 4.7436 0.2757
14.3000 4.7502 0.2741
14.3200 4.7568 0.2609
14.3400 4.7635 0.2756
14.3600 4.7702 0.2695
14.3800 4.7769 0.2613
14.4000 4.7836 0.2740
14.4200 4.7903 0.2689
14.4400 4.7970 0.2627
14.4600 4.8036 0.2712
14.4800 4.8102 0.2686
14.5000 4.8168 0.2683
14.5200 4.8235 0.2719
14.5400 4.8302 0.2651
14.5600 4.8369 0.2627
14.5800 4.8436 0.2704
14.6000 4.8502 0.2674
14.6200 4.8569 0.2577
14.6400 4.8635 0.2624
14.6600 4.8701 0.2743
14.6800 4.8768 0.2674
14.7000 4.8834 0.2583
14.7200 4.8901 0.2657
14.7400 4.8968 0.2715
14.7600 4.9035 0.2539
14.7800 4.9102 0.2699
14.8000 4.9169 0.2670
14.8200 4.9236 0.2519
14.8400 4.9302 0.2666
14.8600 4.9369 0.2686
14.8800 4.9435 0.2575
14.9000 4.9502 0.2707
14.9200 4.9569 0.2602
14.9400 4.9636 0.2520
14.9600 4.9703 0.2720
14.9800 4.9770 0.2533
15.0000 4.9836 0.2501
15.0200 4.9902 0.2769
15.0400 4.9968 0.2543
15.0600 5.0035 0.2527
15.0800 5.0102 0.2721
15.1000 5.0169 0.2488
15.1200 5.0236 0.2522
15.1400 5.0303 0.2696
15.1600 5.0369 0.2498
15.1800 5.0436 0.2557
15.2000 5.0502 0.2652
15.2200 5.0568 0.2502
15.2400 5.0635 0.2593
15.2600 5.0702 0.2607
15.2800 5.0769 0.2513
15.3000 5.0836 0.2563
15.3200 5.0903 0.2524
15.3400 5.0970 0.2524
15.3600 5.1036 0.2563
15.3800 5.1102 0.2520
15.4000 5.1168 0.2641
15.4200 5.1234 0.2492
15.4400 5.1301 0.2469
15.4600 5.1368 0.2565
15.4800 5.1435 0.2514
15.5000 5.1502 0.2478
15.5200 5.1569 0.2631
15.5400 5.1635 0.2427
15.5600 5.1701 0.2450
15.5800 5.1767 0.2644
15.6000 5.1835 0.2439
15.6200 5.1902 0.2555
15.6400 5.1969 0.2528
15.6600 5.2036 0.2308
15.6800 5.2103 0.2579
15.7000 5.2170 0.2568
15.7200 5.2236 0.2351
15.7400 5.2302 0.2616
15.7600 5.2369 0.2529
15.7800 5.2436 0.2332
15.8000 5.2503 0.2576
15.8200 5.2569 0.2502
15.8400 5.2636 0.2342
15.8600 5.2703 0.2578
15.8800 5.2770 0.2414
15.9000 5.2836 0.2344
15.9200 5.2902 0.2590
15.9400 5.2968 0.2446
15.9600 5.3034 0.2399
15.9800 5.3102 0.2529
16.0000 5.3169 0.2418
16.0200 5.3236 0.2412
16.0400 5.3303 0.2479
16.0600 5.3369 0.2387
16.0800 5.3436 0.2423
16.1000 5.3502 0.2501
16.1200 5.3568 0.2368
16.1400 5.3635 0.2474
16.1600 5.3702 0.2459
16.1800 5.3769 0.2360
16.2000 5.3836 0.2433
16.2200 5.3902 0.2393
16.2400 5.3969 0.2395
16.2600 5.4036 0.2420
16.2800 5.4102 0.2376
16.3000 5.4168 0.2428
16.3200 5.4235 0.2421
16.3400 5.4301 0.2398
16.3600 5.4368 0.2423
16.3800 5.4435 0.2405
16.4000 5.4503 0.2406
16.4200 5.4570 0.2389
16.4400 5.4637 0.2331
16.4600 5.4703 0.2423
16.4800 5.4768 0.2410
16.5000 5.4835 0.2273
16.5200 5.4902 0.2473
16.5400 5.4969 0.2379
16.5600 5.5036 0.2302
16.5800 5.5103 0.2441
16.6000 5.5169 0.2341
16.6200 5.5236 0.2283
16.6400 5.5302 0.2409
16.6600 5.5368 0.2349
16.6800 5.5435 0.2303
16.7000 5.5502 0.2422
16.7200 5.5569 0.2328
16.7400 5.5636 0.2306
16.7600 5.5702 0.2460
16.7800 5.5769 0.2279
16.8000 5.5836 0.2323
16.8200 5.5902 0.2365
16.8400 5.5968 0.2303
16.8600 5.6035 0.2323
16.8800 5.6101 0.2338
16.9000 5.6168 0.2289
16.9200 5.6235 0.2350
16.9400 5.6302 0.2392
16.9600 5.6369 0.2222
16.9800 5.6436 0.2264
17.0000 5.6502 0.2361
17.0200 5.6568 0.2296
17.0400 5.6635 0.2325
17.0600 5.6702 0.2259
17.0800 5.6769 0.2271
17.1000 5.6836 0.2335
17.1200 5.6902 0.2229
17.1400 5.6969 0.2276
17.1600 5.7035 0.2291
17.1800 5.7101 0.2205
17.2000 5.7168 0.2339
17.2200 5.7235 0.2330
17.2400 5.7303 0.2153
17.2600 5.7370 0.2329
17.2800 5.7436 0.2272
17.3000 5.7503 0.2204
17.3200 5.7570 0.2346
17.3400 5.7636 0.2223
17.3600 5.7703 0.2151
17.3800 5.7768 0.2351
17.4000 5.7835 0.2254
17.4200 5.7901 0.2270
17.4400 5.7968 0.2258
17.4600 5.8036 0.2136
17.4800 5.8103 0.2226
17.5000 5.8170 0.2291
17.5200 5.8236 0.2159
17.5400 5.8302 0.2243
17.5600 5.8368 0.2212
17.5800 5.8434 0.2160
17.6000 5.8501 0.2270
17.6200 5.8569 0.2245
17.6400 5.8636 0.2164
17.6600 5.8702 0.2214
17.6800 5.8769 0.2187
17.7000 5.8836 0.2167
17.7200 5.8902 0.2220
17.7400 5.8968 0.2198
17.7600 5.9035 0.2232
17.7800 5.9102 0.2155
17.8000 5.9169 0.2160
17.8200 5.9236 0.2216
17.8400 5.9303 0.2192
17.8600 5.9370 0.2152
17.8800 5.9437 0.2174
17.9000 5.9503 0.2120
17.9200 5.9569 0.2146
17.9400 5.9635 0.2135
17.9600 5.9701 0.2168
17.9800 5.9769 0.2187
18.0000 5.9836 0.2151
18.0200 5.9903 0.2101
18.0400 5.9970 0.2144
18.0600 6.0037 0.2152
18.0800 6.0102 0.2132
18.1000 6.0168 0.2160
18.1200 6.0234 0.2123
18.1400 6.0302 0.2059
18.1600 6.0369 0.2153
18.1800 6.0436 0.2135
18.2000 6.0502 0.2094
18.2200 6.0569 0.2110
18.2400 6.0636 0.2099
18.2600 6.0702 0.2055
18.2800 6.0768 0.2123
18.3000 6.0835 0.2114
18.3200 6.0902 0.2014
18.3400 6.0969 0.2061
18.3600 6.1035 0.2103
18.3800 6.1102 0.2069
18.4000 6.1169 0.2124
18.4200 6.1236 0.2103
18.4400 6.1302 0.2031
18.4600 6.1368 0.2042
18.4800 6.1435 0.2088
18.5000 6.1502 0.2062
18.5200 6.1569 0.2036
18.5400 6.1636 0.2091
18.5600 6.1703 0.1996
18.5800 6.1770 0.2052
18.6000 6.1836 0.2092
18.6200 6.1902 0.2006
18.6400 6.1968 0.1987
18.6600 6.2035 0.2132
18.6800 6.2102 0.1997
18.7000 6.2169 0.1959
18.7200 6.2236 0.2154
18.7400 6.2302 0.1927
18.7600 6.2369 0.2000
18.7800 6.2436 0.2171
18.8000 6.2502 0.1828
18.8200 6.2569 0.2033
18.8400 6.2635 0.2119
18.8600 6.2702 0.1838
18.8800 6.2769 0.2021
18.9000 6.2835 0.2124
18.9200 6.2902 0.1809
18.9400 6.2969 0.2078
18.9600 6.3036 0.2085
18.9800 6.3102 0.1819
19.0000 6.3168 0.2108
19.0200 6.3234 0.2026
19.0400 6.3301 0.1796
19.0600 6.3368 0.2106
19.0800 6.3435 0.2003
19.1000 6.3502 0.1796
19.1200 6.3569 0.2093
19.1400 6.3636 0.1995
19.1600 6.3702 0.1821
19.1800 6.3768 0.2083
19.2000 6.3835 0.1955
19.2200 6.3902 0.1805
19.2400 6.3969 0.2082
19.2600 6.4036 0.1904
19.2800 6.4103 0.1840
19.3000 6.4170 0.2069
19.3200 6.4236 0.1899
19.3400 6.4303 0.1844
19.3600 6.4368 0.2036
19.3800 6.4435 0.1913
19.4000 6.4502 0.1876
19.4200 6.4569 0.1955
19.4400 6.4636 0.1967
19.4600 6.4703 0.1897
19.4800 6.4769 0.1911
19.5000 6.4836 0.1909
19.5200 6.4903 0.1955
19.5400 6.4968 0.1924
19.5600 6.5034 0.1914
19.5800 6.5101 0.1909
19.6000 6.5168 0.1839
19.6200 6.5236 0.1958
19.6400 6.5302 0.1860
19.6600 6.5369 0.1863
19.6800 6.5436 0.1941
19.7000 6.5502 0.1852
19.7200 6.5568 0.1886
19.7400 6.5634 0.1977
19.7600 6.5701 0.1893
19.7800 6.5768 0.1831
19.8000 6.5835 0.1929
19.8200 6.5902 0.1874
19.8400 6.5969 0.1828
19.8600 6.6035 0.1944
19.8800 6.6102 0.1847
19.9000 6.6168 0.1857
19.9200 6.6235 0.1935
19.9400 6.6301 0.1898
19.9600 6.6368 0.1784
19.9800 6.6435 0.1896
20.0000 6.6502 0.1865
20.0200 6.6570 0.1800
20.0400 6.6637 0.1871
20.0600 6.6703 0.1852
20.0800 6.6769 0.1772
20.1000 6.6835 0.1935
20.1200 6.6902 0.1822
20.1400 6.6969 0.1755
20.1600 6.7036 0.1933
20.1800 6.7103 0.1780
20.2000 6.7170 0.1763
20.2200 6.7236 0.1895
20.2400 6.7303 0.1797
20.2600 6.7368 0.1786
20.2800 6.7435 0.1910
20.3000 6.7501 0.1768
20.3200 6.7568 0.1779
20.3400 6.7635 0.1915
20.3600 6.7702 0.1760
20.3800 6.7769 0.1726
20.4000 6.7836 0.1883
20.4200 6.7902 0.1724
20.4400 6.7968 0.1759
20.4600 6.8035 0.1845
20.4800 6.8101 0.1820
20.5000 6.8168 0.1678
20.5200 6.8235 0.1840
20.5400 6.8302 0.1745
20.5600 6.8369 0.1756
20.5800 6.8436 0.1855
20.6000 6.8503 0.1692
20.6200 6.8569 0.1703
20.6400 6.8635 0.1840
20.6600 6.8701 0.1725
20.6800 6.8769 0.1745
20.7000 6.8836 0.1767
20.7200 6.8903 0.1738
20.7400 6.8970 0.1738
20.7600 6.9036 0.1754
20.7800 6.9103 0.1685
20.8000 6.9169 0.1734
20.8200 6.9235 0.1782
20.8400 6.9301 0.1635
20.8600 6.9369 0.1714
20.8800 6.9436 0.1764
20.9000 6.9503 0.1714
20.9200 6.9569 0.1676
20.9400 6.9636 0.1717
20.9600 6.9703 0.1709
20.9800 6.9769 0.1624
21.0000 6.9835 0.1738
21.0200 6.9902 0.1716
21.0400 6.9969 0.1640
21.0600 7.0035 0.1720
21.0800 7.0102 0.1694
21.1000 7.0169 0.1678
21.1200 7.0236 0.1684
21.1400 7.0303 0.1710
21.1600 7.0369 0.1569
21.1800 7.0434 0.1693
21.2000 7.0501 0.1668
21.2200 7.0568 0.1601
21.2400 7.0635 0.1722
21.2600 7.0702 0.1654
21.2800 7.0769 0.1583
21.3000 7.0836 0.1644
21.3200 7.0902 0.1690
21.3400 7.0968 0.1591
21.3600 7.1035 0.1662
21.3800 7.1101 0.1696
21.4000 7.1168 0.1536
21.4200 7.1235 0.1696
21.4400 7.1302 0.1662
21.4600 7.1369 0.1545
21.4800 7.1436 0.1649
21.5000 7.1503 0.1611
21.5200 7.1569 0.1547
21.5400 7.1635 0.1621
21.5600 7.1702 0.1676
21.5800 7.1769 0.1481
21.6000 7.1836 0.1604
21.6200 7.1902 0.1652
21.6400 7.1969 0.1543
21.6600 7.2036 0.1607
21.6800 7.2103 0.1624
21.7000 7.2169 0.1459
21.7200 7.2235 0.1596
21.7400 7.2301 0.1617
21.7600 7.2368 0.1506
21.7800 7.2436 0.1535
21.8000 7.2503 0.1625
21.8200 7.2569 0.1513
21.8400 7.2636 0.1613
21.8600 7.2702 0.1563
21.8800 7.2769 0.1467
21.9000 7.2835 0.1595
21.9200 7.2901 0.1545
21.9400 7.2968 0.1462
21.9600 7.3035 0.1602
21.9800 7.3102 0.1524
22.0000 7.3169 0.1501
22.0200 7.3236 0.1584
22.0400 7.3302 0.1510
22.0600 7.3369 0.1492
22.0800 7.3435 0.1568
22.1000 7.3501 0.1519
22.1200 7.3568 0.1458
22.1400 7.3635 0.1576
22.1600 7.3702 0.1496
22.1800 7.3769 0.1505
22.2000 7.3836 0.1497
22.2200 7.3903 0.1511
22.2400 7.3969 0.1475
22.2600 7.4035 0.1493
22.2800 7.4101 0.1516
22.3000 7.4169 0.1489
22.3200 7.4236 0.1467
22.3400 7.4303 0.1501
22.3600 7.4369 0.1502
22.3800 7.4436 0.1482
22.4000 7.4503 0.1456
22.4200 7.4569 0.1503
22.4400 7.4635 0.1401
22.4600 7.4701 0.1548
22.4800 7.4768 0.1514
22.5000 7.4835 0.1400
22.5200 7.4902 0.1516
22.5400 7.4969 0.1510
22.5600 7.5036 0.1377
22.5800 7.5103 0.1546
22.6000 7.5169 0.1456
22.6200 7.5235 0.1353
22.6400 7.5301 0.1548
22.6600 7.5368 0.1455
22.6800 7.5435 0.1330
22.7000 7.5502 0.1566
22.7200 7.5569 0.1415
22.7400 7.5636 0.1324
22.7600 7.5703 0.1564
22.7800 7.5769 0.1410
22.8000 7.5835 0.1397
22.8200 7.5901 0.1466
22.8400 7.5968 0.1411
22.8600 7.6035 0.1357
22.8800 7.6102 0.1460
22.9000 7.6169 0.1421
22.9200 7.6236 0.1367
22.9400 7.6303 0.1422
22.9600 7.6369 0.1401
22.9800 7.6435 0.1349
23.0000 7.6502 0.1445
23.0200 7.6568 0.1396
23.0400 7.6636 0.1351
23.0600 7.6703 0.1426
23.0800 7.6769 0.1370
23.1000 7.6836 0.1377
23.1200 7.6903 0.1425
23.1400 7.6969 0.1377
23.1600 7.7035 0.1339
23.1800 7.7101 0.1409
23.2000 7.7168 0.1400
23.2200 7.7235 0.1346
23.2400 7.7302 0.1376
23.2600 7.7369 0.1332
23.2800 7.7436 0.1345
23.3000 7.7502 0.1373
23.3200 7.7569 0.1374
23.3400 7.7635 0.1350
23.3600 7.7701 0.1316
23.3800 7.7768 0.1378
23.4000 7.7835 0.1306
23.4200 7.7902 0.1347
23.4400 7.7968 0.1383
23.4600 7.8035 0.1326
23.4800 7.8102 0.1310
23.5000 7.8169 0.1400
23.5200 7.8235 0.1305
23.5400 7.8301 0.1300
23.5600 7.8368 0.1418
23.5800 7.8435 0.1246
23.6000 7.8502 0.1248
23.6200 7.8569 0.1423
23.6400 7.8636 0.1243
23.6600 7.8703 0.1270
23.6800 7.8769 0.1400
23.7000 7.8835 0.1203
23.7200 7.8901 0.1295
23.7400 7.8968 0.1428
23.7600 7.9035 0.1188
23.7800 7.9103 0.1285
23.8000 7.9169 0.1344
23.8200 7.9236 0.1185
23.8400 7.9303 0.1278
23.8600 7.9369 0.1370
23.8800 7.9435 0.1175
23.9000 7.9501 0.1297
23.9200 7.9568 0.1326
23.9400 7.9635 0.1169
23.9600 7.9702 0.1301
23.9800 7.9769 0.1305
24.0000 7.9836 0.1165
24.0200 7.9903 0.1265
24.0400 7.9969 0.1260
24.0600 8.0035 0.1185
24.0800 8.0102 0.1362
24.1000 8.0168 0.1242
24.1200 8.0235 0.1156
24.1400 8.0302 0.1271
24.1600 8.0369 0.1261
24.1800 8.0436 0.1164
24.2000 8.0502 0.1262
24.2200 8.0569 0.1268
24.2400 8.0635 0.1121
24.2600 8.0701 0.1271
24.2800 8.0768 0.1330
24.3000 8.0835 0.1134
24.3200 8.0903 0.1228
24.3400 8.0970 0.1222
24.3600 8.1037 0.1144
24.3800 8.1103 0.1216
24.4000 8.1169 0.1242
24.4200 8.1235 0.1134
24.4400 8.1301 0.1266
24.4600 8.1368 0.1182
24.4800 8.1436 0.1104
24.5000 8.1503 0.1273
24.5200 8.1570 0.1176
24.5400 8.1636 0.1087
24.5600 8.1703 0.1274
24.5800 8.1769 0.1148
24.6000 8.1835 0.1073
24.6200 8.1901 0.1287
24.6400 8.1968 0.1100
24.6600 8.2035 0.1125
24.6800 8.2102 0.1251
24.7000 8.2169 0.1085
24.7200 8.2236 0.1120
24.7400 8.2302 0.1224
24.7600 8.2369 0.1039
24.7800 8.2435 0.1124
24.8000 8.2501 0.1170
24.8200 8.2568 0.1118
24.8400 8.2635 0.1151
24.8600 8.2702 0.1125
24.8800 8.2769 0.1114
24.9000 8.2836 0.1183
24.9200 8.2903 0.1069
24.9400 8.2969 0.1074
24.9600 8.3035 0.1113
24.9800 8.3101 0.1057
25.0000 8.3168 0.1108
25.0200 8.3235 0.1130
25.0400 8.3302 0.0994
25.0600 8.3369 0.1121
25.0800 8.3436 0.1111
25.1000 8.3503 0.0936
25.1200 8.3569 0.1162
25.1400 8.3635 0.1100
25.1600 8.3701 0.1008
25.1800 8.3768 0.1178
25.2000 8.3835 0.1053
25.2200 8.3902 0.1005
25.2400 8.3969 0.1166
25.2600 8.4036 0.0975
25.2800 8.4103 0.0992
25.3000 8.4170 0.1201
25.3200 8.4235 0.1029
25.3400 8.4301 0.1029
25.3600 8.4368 0.1182
25.3800 8.4435 0.0974
25.4000 8.4502 0.1068
25.4200 8.4569 0.1101
25.4400 8.4636 0.1023
25.4600 8.4703 0.1042
25.4800 8.4769 0.1062
25.5000 8.4835 0.1005
25.5200 8.4901 0.1057
25.5400 8.4968 0.1079
25.5600 8.5035 0.1030
25.5800 8.5102 0.0990
25.6000 8.5168 0.1028
25.6200 8.5235 0.1071
25.6400 8.5302 0.1010
25.6600 8.5369 0.0987
25.6800 8.5435 0.1064
25.7000 8.5501 0.1006
25.7200 8.5568 0.1007
25.7400 8.5635 0.1066
25.7600 8.5702 0.0985
25.7800 8.5769 0.1046
25.8000 8.5836 0.1024
25.8200 8.5903 0.0962
25.8400 8.5970 0.1010
25.8600 8.6036 0.1036
25.8800 8.6102 0.0930
25.9000 8.6168 0.1019
25.9200 8.6235 0.1031
25.9400 8.6303 0.0955
25.9600 8.6370 0.0989
25.9800 8.6436 0.0983
26.0000 8.6503 0.0913
26.0200 8.6569 0.1033
26.0400 8.6635 0.0966
26.0600 8.6702 0.0920
26.0800 8.6768 0.0971
26.1000 8.6835 0.0980
26.1200 8.6902 0.0906
26.1400 8.6969 0.0981
26.1600 8.7036 0.0969
26.1800 8.7102 0.0877
26.2000 8.7169 0.0964
26.2200 8.7235 0.0944
26.2400 8.7301 0.0897
26.2600 8.7368 0.0977
26.2800 8.7435 0.0964
26.3000 8.7502 0.0907
26.3200 8.7569 0.0928
26.3400 8.7635 0.0963
26.3600 8.7702 0.0861
26.3800 8.7769 0.0922
26.4000 8.7835 0.0968
26.4200 8.7901 0.0897
26.4400 8.7968 0.0933
26.4600 8.8035 0.0873
26.4800 8.8103 0.0876
26.5000 8.8169 0.0873
26.5200 8.8236 0.0940
26.5400 8.8303 0.0865
26.5600 8.8370 0.0894
26.5800 8.8436 0.0895
26.6000 8.8502 0.0876
26.6200 8.8569 0.0889
26.6400 8.8635 0.0878
26.6600 8.8702 0.0886
26.6800 8.8769 0.0878
26.7000 8.8836 0.0843
26.7200 8.8903 0.0919
26.7400 8.8970 0.0792
26.7600 8.9036 0.0838
26.7800 8.9101 0.0893
26.8000 8.9168 0.0851
26.8200 8.9235 0.0865
26.8400 8.9302 0.0859
26.8600 8.9369 0.0783
26.8800 8.9436 0.0906
26.9000 8.9503 0.0850
26.9200 8.9569 0.0720
26.9400 8.9635 0.0887
26.9600 8.9701 0.0843
26.9800 8.9768 0.0795
27.0000 8.9835 0.0890
27.0200 8.9902 0.0850
27.0400 8.9969 0.0807
27.0600 9.0036 0.0805
27.0800 9.0102 0.0841
27.1000 9.0169 0.0748
27.1200 9.0236 0.0809
27.1400 9.0302 0.0839
27.1600 9.0368 0.0779
27.1800 9.0435 0.0845
27.2000 9.0502 0.0779
27.2200 9.0569 0.0780
27.2400 9.0636 0.0815
27.2600 9.0703 0.0835
27.2800 9.0770 0.0730
27.3000 9.0836 0.0802
27.3200 9.0902 0.0805
27.3400 9.0968 0.0709
27.3600 9.1035 0.0807
27.3800 9.1102 0.0833
27.4000 9.1169 0.0719
27.4200 9.1236 0.0776
27.4400 9.1303 0.0782
27.4600 9.1369 0.0719
27.4800 9.1436 0.0755
27.5000 9.1502 0.0784
27.5200 9.1568 0.0747
27.5400 9.1635 0.0731
27.5600 9.1702 0.0775
27.5800 9.1769 0.0711
27.6000 9.1836 0.0746
27.6200 9.1902 0.0779
27.6400 9.1969 0.0726
27.6600 9.2036 0.0711
27.6800 9.2102 0.0752
27.7000 9.2168 0.0667
27.7200 9.2234 0.0727
27.7400 9.2302 0.0739
27.7600 9.2369 0.0678
27.7800 9.2435 0.0734
27.8000 9.2502 0.0757
27.8200 9.2569 0.0591
27.8400 9.2635 0.0746
27.8600 9.2701 0.0755
27.8800 9.2768 0.0633
27.9000 9.2835 0.0724
27.9200 9.2902 0.0764
27.9400 9.2969 0.0577
27.9600 9.3036 0.0728
27.9800 9.3103 0.0774
28.0000 9.3170 0.0556
28.0200 9.3236 0.0675
28.0400 9.3302 0.0730
28.0600 9.3368 0.0581
28.0800 9.3435 0.0714
28.1000 9.3502 0.0718
28.1200 9.3569 0.0600
28.1400 9.3636 0.0719
28.1600 9.3703 0.0699
28.1800 9.3769 0.0581
28.2000 9.3836 0.0706
28.2200 9.3902 0.0736
28.2400 9.3968 0.0571
28.2600 9.4035 0.0710
28.2800 9.4102 0.0701
28.3000 9.4169 0.0599
28.3200 9.4236 0.0698
28.3400 9.4302 0.0684
28.3600 9.4369 0.0548
28.3800 9.4436 0.0690
28.4000 9.4502 0.0694
28.4200 9.4568 0.0614
28.4400 9.4635 0.0659
28.4600 9.4702 0.0663
28.4800 9.4769 0.0591
28.5000 9.4836 0.0647
28.5200 9.4902 0.0700
28.5400 9.4969 0.0573
28.5600 9.5036 0.0620
28.5800 9.5102 0.0716
28.6000 9.5168 0.0552
28.6200 9.5235 0.0602
28.6400 9.5302 0.0695
28.6600 9.5369 0.0568
28.6800 9.5436 0.0614
28.7000 9.5503 0.0737
28.7200 9.5570 0.0579
28.7400 9.5636 0.0592
28.7600 9.5702 0.0652
28.7800 9.5768 0.0580
28.8000 9.5835 0.0595
28.8200 9.5902 0.0613
28.8400 9.5969 0.0609
28.8600 9.6036 0.0569
28.8800 9.6103 0.0658
28.9000 9.6170 0.0556
28.9200 9.6236 0.0595
28.9400 9.6302 0.0631
28.9600 9.6368 0.0571
28.9800 9.6435 0.0557
29.0000 9.6502 0.0618
29.0200 9.6569 0.0572
29.0400 9.6635 0.0563
29.0600 9.6702 0.0590
29.0800 9.6769 0.0615
29.1000 9.6836 0.0541
29.1200 9.6902 0.0588
29.1400 9.6968 0.0566
29.1600 9.7035 0.0573
29.1800 9.7102 0.0572
29.2000 9.7169 0.0545
29.2200 9.7235 0.0523
29.2400 9.7302 0.0615
29.2600 9.7369 0.0559
29.2800 9.7436 0.0480
29.3000 9.7502 0.0617
29.3200 9.7568 0.0539
29.3400 9.7635 0.0497
29.3600 9.7702 0.0578
29.3800 9.7769 0.0518
29.4000 9.7836 0.0501
29.4200 9.7903 0.0580
29.4400 9.7970 0.0534
29.4600 9.8036 0.0481
29.4800 9.8102 0.0553
29.5000 9.8168 0.0550
29.5200 9.8235 0.0490
29.5400 9.8302 0.0592
29.5600 9.8369 0.0450
29.5800 9.8436 0.0493
29.6000 9.8503 0.0511
29.6200 9.8569 0.0531
29.6400 9.8636 0.0450
29.6600 9.8702 0.0540
29.6800 9.8768 0.0506
29.7000 9.8835 0.0457
29.7200 9.8902 0.0530
29.7400 9.8969 0.0481
29.7600 9.9036 0.0422
29.7800 9.9102 0.0534
29.8000 9.9169 0.0461
29.8200 9.9236 0.0473
29.8400 9.9302 0.0464
29.8600 9.9368 0.0465
29.8800 9.9434 0.0467
29.9000 9.9501 0.0482
29.9200 9.9568 0.0423
29.9400 9.9635 0.0455
29.9600 9.9702 0.0486
29.9800 9.9769 0.0399
30.0000 9.9835 0.0402
30.0200 9.9902 0.0454
30.0400 9.9968 0.0459
30.0600 10.0035 0.0408
30.0800 10.0102 0.0450
30.1000 10.0169 0.0472
30.1200 10.0236 0.0396
30.1400 10.0303 0.0410
30.1600 10.0370 0.0446
30.1800 10.0436 0.0357
30.2000 10.0502 0.0448
30.2200 10.0569 0.0443
30.2400 10.0635 0.0356
30.2600 10.0702 0.0429
30.2800 10.0769 0.0476
30.3000 10.0836 0.0329
30.3200 10.0903 0.0462
30.3400 10.0970 0.0419
30.3600 10.1036 0.0333
30.3800 10.1102 0.0397
30.4000 10.1168 0.0409
30.4200 10.1234 0.0321
30.4400 10.1301 0.0442
30.4600 10.1369 0.0378
30.4800 10.1435 0.0316
30.5000 10.1502 0.0449
30.5200 10.1569 0.0387
30.5400 10.1636 0.0294
30.5600 10.1702 0.0370
30.5800 10.1768 0.0384
30.6000 10.1835 0.0320
30.6200 10.1902 0.0416
30.6400 10.1969 0.0296
30.6600 10.2036 0.0353
30.6800 10.2102 0.0415
30.7000 10.2169 0.0293
30.7200 10.2236 0.0286
30.7400 10.2302 0.0416
30.7600 10.2368 0.0307
30.7800 10.2435 0.0309
30.8000 10.2502 0.0329
30.8200 10.2569 0.0318
30.8400 10.2636 0.0331
30.8600 10.2703 0.0352
30.8800 10.2770 0.0275
30.9000 10.2836 0.0355
30.9200 10.2902 0.0254
30.9400 10.2968 0.0313
30.9600 10.3035 0.0346
30.9800 10.3102 0.0269
31.0000 10.3169 0.0372
31.0200 10.3236 0.0281
31.0400 10.3303 0.0238
31.0600 10.3369 0.0407
31.0800 10.3436 0.0255
31.1000 10.3502 0.0251
31.1200 10.3568 0.0384
31.1400 10.3634 0.0271
31.1600 10.3702 0.0226
31.1800 10.3769 0.0340
31.2000 10.3836 0.0256
31.2200 10.3902 0.0259
31.2400 10.3969 0.0402
31.2600 10.4036 0.0234
31.2800 10.4102 0.0212
31.3000 10.4168 0.0350
31.3200 10.4235 0.0260
31.3400 10.4301 0.0185
31.3600 10.4368 0.0373
31.3800 10.4435 0.0251
31.4000 10.4502 0.0199
31.4200 10.4569 0.0333
31.4400 10.4636 0.0215
31.4600 10.4702 0.0164
31.4800 10.4768 0.0326
31.5000 10.4835 0.0223
31.5200 10.4902 0.0197
31.5400 10.4969 0.0301
31.5600 10.5036 0.0225
31.5800 10.5103 0.0173
31.6000 10.5170 0.0306
31.6200 10.5236 0.0210
31.6400 10.5302 0.0142
31.6600 10.5368 0.0287
31.6800 10.5435 0.0213
31.7000 10.5502 0.0154
31.7200 10.5569 0.0298
31.7400 10.5636 0.0194
31.7600 10.5703 0.0139
31.7800 10.5770 0.0325
31.8000 10.5836 0.0170
31.8200 10.5902 0.0129
31.8400 10.5968 0.0295
31.8600 10.6035 0.0144
31.8800 10.6102 0.0141
31.9000 10.6169 0.0274
31.9200 10.6236 0.0118
31.9400 10.6303 0.0207
31.9600 10.6369 0.0263
31.9800 10.6436 0.0154
32.0000 10.6502 0.0123
32.0200 10.6568 0.0222
32.0400 10.6634 0.0127
32.0600 10.6701 0.0171
32.0800 10.6769 0.0194
32.1000 10.6836 0.0116
32.1200 10.6902 0.0143
32.1400 10.6969 0.0189
32.1600 10.7036 0.0121
32.1800 10.7102 0.0170
32.2000 10.7168 0.0124
32.2200 10.7235 0.0139
32.2400 10.7302 0.0154
32.2600 10.7369 0.0069
32.2800 10.7436 0.0188
32.3000 10.7503 0.0178
32.3200 10.7570 0.0073
32.3400 10.7636 0.0181
32.3600 10.7703 0.0056
32.3800 10.7769 0.0058
32.4000 10.7835 0.0217
32.4200 10.7902 0.0039
32.4400 10.7969 0.0081
32.4600 10.8036 0.0196
32.4800 10.8103 0.0053
32.5000 10.8169 0.0093
32.5200 10.8236 0.0179
32.5400 10.8302 0.0004
32.5600 10.8368 0.0122
32.5800 10.8434 0.0162
32.6000 10.8501 0.0020
32.6200 10.8569 0.0114
32.6400 10.8636 0.0153
32.6600 10.8702 -0.0024
32.6800 10.8769 0.0129
32.7000 10.8836 0.0098
32.7200 10.8902 0.0015
32.7400 10.8968 0.0128
32.7600 10.9035 0.0083
32.7800 10.9102 0.0014
32.8000 10.9169 0.0087
32.8200 10.9235 0.0060
32.8400 10.9302 0.0045
32.8600 10.9369 0.0096
32.8800 10.9436 0.0058
32.9000 10.9502 0.0016
32.9200 10.9569 0.0028
32.9400 10.9635 0.0069
32.9600 10.9701 0.0017
32.9800 10.9769 -0.0013
33.0000 10.9836 0.0078
33.0200 10.9902 0.0032
33.0400 10.9969 0.0032
33.0600 11.0036 0.0079
33.0800 11.0102 -0.0038
33.1000 11.0168 0.0030
33.1200 11.0235 0.0068
33.1400 11.0302 0.0006
33.1600 11.0369 -0.0013
33.1800 11.0436 0.0057
33.2000 11.0503 -0.0024
33.2200 11.0570 0.0050
33.2400 11.0636 0.0029
33.2600 11.0703 -0.0036
33.2800 11.0768 -0.0043
33.3000 11.0835 0.0044
33.3200 11.0901 -0.0055
33.3400 11.0968 -0.0045
33.3600 11.1035 0.0058
33.3800 11.1102 -0.0075
33.4000 11.1169 -0.0060
33.4200 11.1236 0.0013
33.4400 11.1302 -0.0064
33.4600 11.1368 -0.0007
33.4800 11.1434 -0.0034
33.5000 11.1501 -0.0092
33.5200 11.1568 -0.0073
33.5400 11.1635 -0.0034
33.5600 11.1702 -0.0113
33.5800 11.1769 0.0005
33.6000 11.1836 -0.0033
33.6200 11.1902 -0.0203
33.6400 11.1969 0.0017
33.6600 11.2035 -0.0094
33.6800 11.2102 -0.0142
33.7000 11.2169 -0.0004
33.7200 11.2236 -0.0116
33.7400 11.2303 -0.0157
33.7600 11.2370 0.0045
33.7800 11.2436 -0.0161
33.8000 11.2503 -0.0161
33.8200 11.2569 -0.0018
33.8400 11.2635 -0.0118
33.8600 11.2702 -0.0132
33.8800 11.2769 -0.0023
33.9000 11.2836 -0.0242
33.9200 11.2903 -0.0093
33.9400 11.2969 -0.0057
33.9600 11.3036 -0.0196
33.9800 11.3103 -0.0122
34.0000 11.3169 -0.0094
34.0200 11.3235 -0.0165
34.0400 11.3301 -0.0111
34.0600 11.3368 -0.0134
34.0800 11.3435 -0.0215
34.1000 11.3502 -0.0070
34.1200 11.3569 -0.0147
34.1400 11.3636 -0.0174
34.1600 11.3703 -0.0131
34.1800 11.3768 -0.0231
34.2000 11.3834 -0.0109
34.2200 11.3901 -0.0105
34.2400 11.3968 -0.0232
34.2600 11.4035 -0.0101
34.2800 11.4102 -0.0178
34.3000 11.4169 -0.0225
34.3200 11.4236 -0.0138
34.3400 11.4302 -0.0156
34.3600 11.4368 -0.0205
34.3800 11.4435 -0.0098
34.4000 11.4501 -0.0221
34.4200 11.4569 -0.0245
34.4400 11.4636 -0.0076
34.4600 11.4703 -0.0176
34.4800 11.4770 -0.0248
34.5000 11.4836 -0.0139
34.5200 11.4903 -0.0243
34.5400 11.4969 -0.0179
34.5600 11.5035 -0.0192
34.5800 11.5102 -0.0218
34.6000 11.5169 -0.0191
34.6200 11.5236 -0.0205
34.6400 11.5303 -0.0227
34.6600 11.5370 -0.0197
34.6800 11.5436 -0.0168
34.7000 11.5503 -0.0249
34.7200 11.5568 -0.0224
34.7400 11.5634 -0.0236
34.7600 11.5701 -0.0184
34.7800 11.5768 -0.0233
34.8000 11.5835 -0.0280
34.8200 11.5902 -0.0235
34.8400 11.5969 -0.0195
34.8600 11.6035 -0.0268
34.8800 11.6102 -0.0209
34.9000 11.6168 -0.0276
34.9200 11.6235 -0.0300
34.9400 11.6301 -0.0192
34.9600 11.6368 -0.0266
34.9800 11.6435 -0.0322
35.0000 11.6502 -0.0181
35.0200 11.6569 -0.0307
35.0400 11.6636 -0.0292
35.0600 11.6703 -0.0187
35.0800 11.6769 -0.0269
35.1000 11.6835 -0.0313
35.1200 11.6901 -0.0180
35.1400 11.6969 -0.0317
35.1600 11.7036 -0.0299
35.1800 11.7102 -0.0201
35.2000 11.7169 -0.0362
35.2200 11.7236 -0.0294
35.2400 11.7303 -0.0250
35.2600 11.7369 -0.0336
35.2800 11.7435 -0.0258
35.3000 11.7501 -0.0210
35.3200 11.7569 -0.0326
35.3400 11.7636 -0.0309
35.3600 11.7703 -0.0247
35.3800 11.7769 -0.0318
35.4000 11.7836 -0.0284
35.4200 11.7903 -0.0271
35.4400 11.7969 -0.0335
35.4600 11.8035 -0.0267
35.4800 11.8102 -0.0289
35.5000 11.8168 -0.0306
35.5200 11.8235 -0.0301
35.5400 11.8302 -0.0287
35.5600 11.8369 -0.0295
35.5800 11.8436 -0.0290
35.6000 11.8503 -0.0339
35.6200 11.8569 -0.0290
35.6400 11.8635 -0.0280
35.6600 11.8701 -0.0282
35.6800 11.8768 -0.0299
35.7000 11.8835 -0.0328
35.7200 11.8902 -0.0334
35.7400 11.8969 -0.0257
35.7600 11.9036 -0.0342
35.7800 11.9102 -0.0313
35.8000 11.9169 -0.0394
35.8200 11.9235 -0.0346
35.8400 11.9301 -0.0268
35.8600 11.9368 -0.0427
35.8800 11.9435 -0.0306
35.9000 11.9502 -0.0266
35.9200 11.9569 -0.0441
35.9400 11.9636 -0.0372
35.9600 11.9703 -0.0260
35.9800 11.9769 -0.0419
36.0000 11.9835 -0.0366
36.0200 11.9902 -0.0304
36.0400 11.9968 -0.0383
36.0600 12.0035 -0.0370
36.0800 12.0103 -0.0306
36.1000 12.0169 -0.0462
36.1200 12.0236 -0.0378
36.1400 12.0303 -0.0355
36.1600 12.0369 -0.0412
36.1800 12.0435 -0.0369
36.2000 12.0501 -0.0343
36.2200 12.0568 -0.0407
36.2400 12.0636 -0.0397
36.2600 12.0703 -0.0388
36.2800 12.0769 -0.0383
36.3000 12.0836 -0.0379
36.3200 12.0903 -0.0394
36.3400 12.0969 -0.0462
36.3600 12.1035 -0.0362
36.3800 12.1101 -0.0449
36.4000 12.1168 -0.0415
36.4200 12.1235 -0.0373
36.4400 12.1302 -0.0441
36.4600 12.1369 -0.0457
36.4800 12.1436 -0.0417
36.5000 12.1502 -0.0403
36.5200 12.1569 -0.0462
36.5400 12.1635 -0.0421
36.5600 12.1701 -0.0458
36.5800 12.1768 -0.0414
36.6000 12.1836 -0.0464
36.6200 12.1903 -0.0515
36.6400 12.1970 -0.0466
36.6600 12.2036 -0.0444
36.6800 12.2103 -0.0529
36.7000 12.2169 -0.0471
36.7200 12.2235 -0.0506
36.7400 12.2302 -0.0429
36.7600 12.2369 -0.0501
36.7800 12.2436 -0.0584
36.8000 12.2503 -0.0451
36.8200 12.2569 -0.0497
36.8400 12.2636 -0.0538
36.8600 12.2703 -0.0463
36.8800 12.2769 -0.0526
36.9000 12.2835 -0.0535
36.9200 12.2901 -0.0486
36.9400 12.2968 -0.0528
36.9600 12.3035 -0.0543
36.9800 12.3102 -0.0488
37.0000 12.3169 -0.0551
37.0200 12.3236 -0.0577
37.0400 12.3303 -0.0494
37.0600 12.3369 -0.0599
37.0800 12.3435 -0.0533
37.1000 12.3501 -0.0530
37.1200 12.3568 -0.0618
37.1400 12.3635 -0.0543
37.1600 12.3702 -0.0489
37.1800 12.3769 -0.0653
37.2000 12.3836 -0.0558
37.2200 12.3903 -0.0518
37.2400 12.3969 -0.0662
37.2600 12.4035 -0.0527
37.2800 12.4101 -0.0558
37.3000 12.4168 -0.0671
37.3200 12.4235 -0.0515
37.3400 12.4302 -0.0592
37.3600 12.4369 -0.0633
37.3800 12.4436 -0.0521
37.4000 12.4503 -0.0609
37.4200 12.4570 -0.0670
37.4400 12.4636 -0.0516
37.4600 12.4702 -0.0621
37.4800 12.4768 -0.0598
37.5000 12.4835 -0.0566
37.5200 12.4902 -0.0647
37.5400 12.4969 -0.0611
37.5600 12.5036 -0.0551
37.5800 12.5103 -0.0688
37.6000 12.5169 -0.0591
37.6200 12.5235 -0.0596
37.6400 12.5301 -0.0663
37.6600 12.5368 -0.0574
37.6800 12.5435 -0.0628
37.7000 12.5502 -0.0605
37.7200 12.5569 -0.0565
37.7400 12.5636 -0.0664
37.7600 12.5702 -0.0667
37.7800 12.5769 -0.0530
37.8000 12.5835 -0.0694
37.8200 12.5901 -0.0630
37.8400 12.5968 -0.0546
37.8600 12.6035 -0.0732
37.8800 12.6102 -0.0612
37.9000 12.6168 -0.0567
37.9200 12.6235 -0.0747
37.9400 12.6302 -0.0594
37.9600 12.6369 -0.0592
37.9800 12.6435 -0.0703
38.0000 12.6501 -0.0622
38.0200 12.6568 -0.0628
38.0400 12.6635 -0.0753
38.0600 12.6702 -0.0582
38.0800 12.6769 -0.0654
38.1000 12.6836 -0.0718
38.1200 12.6903 -0.0608
38.1400 12.6970 -0.0708
38.1600 12.7035 -0.0650
38.1800 12.7102 -0.0582
38.2000 12.7168 -0.0711
38.2200 12.7236 -0.0658
38.2400 12.7303 -0.0674
38.2600 12.7370 -0.0739
38.2800 12.7436 -0.0632
38.3000 12.7503 -0.0695
38.3200 12.7569 -0.0730
38.3400 12.7635 -0.0623
38.3600 12.7701 -0.0708
38.3800 12.7768 -0.0710
38.4000 12.7835 -0.0618
38.4200 12.7902 -0.0719
38.4400 12.7969 -0.0724
38.4600 12.8036 -0.0666
38.4800 12.8103 -0.0738
38.5000 12.8169 -0.0747
38.5200 12.8235 -0.0668
38.5400 12.8301 -0.0747
38.5600 12.8368 -0.0703
38.5800 12.8435 -0.0701
38.6000 12.8502 -0.0789
38.6200 12.8569 -0.0688
38.6400 12.8635 -0.0676
38.6600 12.8702 -0.0766
38.6800 12.8769 -0.0735
38.7000 12.8835 -0.0760
38.7200 12.8901 -0.0737
38.7400 12.8968 -0.0690
38.7600 12.9035 -0.0772
38.7800 12.9102 -0.0796
38.8000 12.9169 -0.0672
38.8200 12.9236 -0.0746
38.8400 12.9303 -0.0779
38.8600 12.9369 -0.0727
38.8800 12.9435 -0.0793
38.9000 12.9501 -0.0772
38.9200 12.9568 -0.0756
38.9400 12.9635 -0.0739
38.9600 12.9703 -0.0783
38.9800 12.9770 -0.0772
39.0000 12.9836 -0.0792
39.0200 12.9903 -0.0718
39.0400 12.9970 -0.0817
39.0600 13.0036 -0.0771
39.0800 13.0102 -0.0734
39.1000 13.0168 -0.0836
39.1200 13.0235 -0.0759
39.1400 13.0302 -0.0746
39.1600 13.0369 -0.0890
39.1800 13.0435 -0.0710
39.2000 13.0503 -0.0813
39.2200 13.0569 -0.0838
39.2400 13.0635 -0.0713
39.2600 13.0701 -0.0833
39.2800 13.0768 -0.0839
39.3000 13.0835 -0.0756
39.3200 13.0902 -0.0871
39.3400 13.0969 -0.0817
39.3600 13.1036 -0.0741
39.3800 13.1103 -0.0909
39.4000 13.1169 -0.0826
39.4200 13.1236 -0.0764
39.4400 13.1302 -0.0871
39.4600 13.1368 -0.0774
39.4800 13.1435 -0.0785
39.5000 13.1502 -0.0910
39.5200 13.1569 -0.0744
39.5400 13.1636 -0.0836
39.5600 13.1702 -0.0925
39.5800 13.1769 -0.0756
39.6000 13.1836 -0.0870
39.6200 13.1902 -0.0909
39.6400 13.1968 -0.0715
39.6600 13.2035 -0.0926
39.6800 13.2102 -0.0902
39.7000 13.2169 -0.0776
39.7200 13.2236 -0.0925
39.7400 13.2303 -0.0872
39.7600 13.2369 -0.0772
39.7800 13.2435 -0.0948
39.8000 13.2502 -0.0831
39.8200 13.2568 -0.0800
39.8400 13.2635 -0.0952
39.8600 13.2703 -0.0829
39.8800 13.2769 -0.0889
39.9000 13.2836 -0.0924
39.9200 13.2903 -0.0807
39.9400 13.2969 -0.0958
39.9600 13.3035 -0.0919
39.9800 13.3101 -0.0790
40.0000 13.3168 -0.0946
40.0200 13.3235 -0.0929
40.0400 13.3302 -0.0831
40.0600 13.3369 -0.0922
40.0800 13.3435 -0.0947
40.1000 13.3502 -0.0900
40.1200 13.3569 -0.0969
40.1400 13.3635 -0.0898
40.1600 13.3701 -0.0927
40.1800 13.3768 -0.0975
40.2000 13.3835 -0.0910
40.2200 13.3902 -0.0924
40.2400 13.3969 -0.0992
40.2600 13.4036 -0.0875
40.2800 13.4103 -0.0923
40.3000 13.4170 -0.1022
40.3200 13.4236 -0.0925
40.3400 13.4302 -0.0921
40.3600 13.4368 -0.1027
40.3800 13.4435 -0.0882
40.4000 13.4503 -0.1002
40.4200 13.4570 -0.1003
40.4400 13.4636 -0.0957
40.4600 13.4703 -0.1000
40.4800 13.4769 -0.1013
40.5000 13.4835 -0.0965
40.5200 13.4901 -0.0982
40.5400 13.4968 -0.1008
40.5600 13.5035 -0.0959
40.5800 13.5102 -0.1058
40.6000 13.5169 -0.1005
40.6200 13.5236 -0.0975
40.6400 13.5302 -0.1037
40.6600 13.5369 -0.1085
40.6800 13.5435 -0.0978
40.7000 13.5501 -0.1007
40.7200 13.5567 -0.1015
40.7400 13.5634 -0.1029
40.7600 13.5702 -0.1005
40.7800 13.5769 -0.1052
40.8000 13.5836 -0.1093
40.8200 13.5902 -0.1011
40.8400 13.5969 -0.1002
40.8600 13.6035 -0.1178
40.8800 13.6101 -0.1016
40.9000 13.6168 -0.0941
40.9200 13.6235 -0.1100
40.9400 13.6302 -0.1115
40.9600 13.6369 -0.1026
40.9800 13.6436 -0.1129
41.0000 13.6503 -0.1068
41.0200 13.6569 -0.0955
41.0400 13.6636 -0.1305
41.0600 13.6702 -0.1045
41.0800 13.6769 -0.0841
41.1000 13.6835 -0.1290
41.1200 13.6902 -0.1146
41.1400 13.6969 -0.0801
41.1600 13.7036 -0.1217
41.1800 13.7103 -0.1246
41.2000 13.7170 -0.0920
41.2200 13.7236 -0.1211
41.2400 13.7302 -0.1148
41.2600 13.7368 -0.0838
41.2800 13.7435 -0.1310
41.3000 13.7502 -0.1225
41.3200 13.7569 -0.0842
41.3400 13.7636 -0.1246
41.3600 13.7702 -0.1258
41.3800 13.7769 -0.0846
41.4000 13.7835 -0.1216
41.4200 13.7901 -0.1203
41.4400 13.7968 -0.1009
41.4600 13.8035 -0.1187
41.4800 13.8102 -0.1113
41.5000 13.8169 -0.1036
41.5200 13.8235 -0.1253
41.5400 13.8302 -0.1063
41.5600 13.8369 -0.1065
41.5800 13.8436 -0.1248
41.6000 13.8502 -0.1080
41.6200 13.8568 -0.1028
41.6400 13.8635 -0.1257
41.6600 13.8702 -0.1169
41.6800 13.8769 -0.1077
41.7000 13.8836 -0.1139
41.7200 13.8903 -0.1102
41.7400 13.8970 -0.1203
41.7600 13.9036 -0.1149
41.7800 13.9102 -0.1132
41.8000 13.9168 -0.1173
41.8200 13.9235 -0.1132
41.8400 13.9302 -0.1113
41.8600 13.9369 -0.1160
41.8800 13.9436 -0.1158
41.9000 13.9503 -0.1152
41.9200 13.9570 -0.1194
41.9400 13.9636 -0.1189
41.9600 13.9702 -0.1126
41.9800 13.9768 -0.1215
42.0000 13.9835 -0.1120
42.0200 13.9902 -0.1176
42.0400 13.9969 -0.1203
42.0600 14.0036 -0.1099
42.0800 14.0102 -0.1090
42.1000 14.0169 -0.1246
42.1200 14.0236 -0.1184
42.1400 14.0302 -0.1163
42.1600 14.0368 -0.1239
42.1800 14.0434 -0.1125
42.2000 14.0501 -0.1188
42.2200 14.0568 -0.1274
42.2400 14.0635 -0.1125
42.2600 14.0702 -0.1168
42.2800 14.0769 -0.1211
42.3000 14.0836 -0.1089
42.3200 14.0902 -0.1234
42.3400 14.0968 -0.1276
42.3600 14.1034 -0.1151
42.3800 14.1102 -0.1173
42.4000 14.1169 -0.1246
42.4200 14.1236 -0.1192
42.4400 14.1303 -0.1233
42.4600 14.1370 -0.1234
42.4800 14.1436 -0.1223
42.5000 14.1502 -0.1235
42.5200 14.1568 -0.1265
42.5400 14.1635 -0.1188
42.5600 14.1702 -0.1221
42.5800 14.1769 -0.1260
42.6000 14.1836 -0.1218
42.6200 14.1903 -0.1178
42.6400 14.1969 -0.1262
42.6600 14.2036 -0.1234
42.6800 14.2102 -0.1225
42.7000 14.2168 -0.1263
42.7200 14.2235 -0.1283
42.7400 14.2302 -0.1214
42.7600 14.2369 -0.1274
42.7800 14.2436 -0.1271
42.8000 14.2503 -0.1235
42.8200 14.2570 -0.1317
42.8400 14.2636 -0.1293
42.8600 14.2702 -0.1226
42.8800 14.2768 -0.1311
42.9000 14.2834 -0.1293
42.9200 14.2902 -0.1248
42.9400 14.2969 -0.1369
42.9600 14.3036 -0.1236
42.9800 14.3102 -0.1248
43.0000 14.3169 -0.1343
43.0200 14.3236 -0.1315
43.0400 14.3302 -0.1254
43.0600 14.3368 -0.1407
43.0800 14.3435 -0.1294
43.1000 14.3502 -0.1253
43.1200 14.3569 -0.1381
43.1400 14.3636 -0.1295
43.1600 14.3702 -0.1268
43.1800 14.3769 -0.1382
43.2000 14.3836 -0.1309
43.2200 14.3902 -0.1338
43.2400 14.3968 -0.1350
43.2600 14.4035 -0.1326
43.2800 14.4102 -0.1359
43.3000 14.4169 -0.1353
43.3200 14.4236 -0.1342
43.3400 14.4303 -0.1396
43.3600 14.4370 -0.1332
43.3800 14.4436 -0.1369
43.4000 14.4502 -0.1416
43.4200 14.4568 -0.1333
43.4400 14.4635 -0.1351
43.4600 14.4702 -0.1417
43.4800 14.4769 -0.1345
43.5000 14.4835 -0.1363
43.5200 14.4902 -0.1408
43.5400 14.4969 -0.1348
43.5600 14.5036 -0.1431
43.5800 14.5102 -0.1408
43.6000 14.5168 -0.1405
43.6200 14.5235 -0.1366
43.6400 14.5302 -0.1411
43.6600 14.5369 -0.1386
43.6800 14.5435 -0.1441
43.7000 14.5502 -0.1409
43.7200 14.5569 -0.1359
43.7400 14.5636 -0.1440
43.7600 14.5702 -0.1448
43.7800 14.5768 -0.1383
43.8000 14.5835 -0.1484
43.8200 14.5902 -0.1435
43.8400 14.5969 -0.1414
43.8600 14.6036 -0.1437
43.8800 14.6103 -0.1444
43.9000 14.6170 -0.1404
43.9200 14.6236 -0.1435
43.9400 14.6302 -0.1464
43.9600 14.6368 -0.1465
43.9800 14.6435 -0.1456
44.0000 14.6502 -0.1438
44.0200 14.6569 -0.1473
44.0400 14.6636 -0.1468
44.0600 14.6703 -0.1432
44.0800 14.6769 -0.1431
44.1000 14.6836 -0.1445
44.1200 14.6902 -0.1518
44.1400 14.6968 -0.1461
44.1600 14.7035 -0.1431
44.1800 14.7102 -0.1490
44.2000 14.7169 -0.1451
44.2200 14.7235 -0.1481
44.2400 14.7302 -0.1450
44.2600 14.7369 -0.1497
44.2800 14.7436 -0.1475
44.3000 14.7502 -0.1491
44.3200 14.7568 -0.1418
44.3400 14.7634 -0.1531
44.3600 14.7701 -0.1468
44.3800 14.7768 -0.1503
44.4000 14.7835 -0.1580
44.4200 14.7902 -0.1376
44.4400 14.7969 -0.1501
44.4600 14.8035 -0.1576
44.4800 14.8102 -0.1336
44.5000 14.8168 -0.1569
44.5200 14.8235 -0.1592
44.5400 14.8302 -0.1394
44.5600 14.8369 -0.1517
44.5800 14.8436 -0.1582
44.6000 14.8503 -0.1441
44.6200 14.8570 -0.1548
44.6400 14.8636 -0.1526
44.6600 14.8703 -0.1406
44.6800 14.8769 -0.1619
44.7000 14.8835 -0.1485
44.7200 14.8902 -0.1483
44.7400 14.8969 -0.1639
44.7600 14.9036 -0.1478
44.7800 14.9103 -0.1480
44.8000 14.9170 -0.1593
44.8200 14.9236 -0.1451
44.8400 14.9303 -0.1592
44.8600 14.9368 -0.1589
44.8800 14.9434 -0.1439
44.9000 14.9501 -0.1606
44.9200 14.9568 -0.1610
44.9400 14.9635 -0.1460
44.9600 14.9702 -0.1644
44.9800 14.9769 -0.1536
45.0000 14.9836 -0.1556
45.0200 14.9902 -0.1662
45.0400 14.9968 -0.1508
45.0600 15.0035 -0.1535
45.0800 15.0102 -0.1727
45.1000 15.0169 -0.1541
45.1200 15.0236 -0.1458
45.1400 15.0302 -0.1697
45.1600 15.0369 -0.1619
45.1800 15.0436 -0.1528
45.2000 15.0502 -0.1555
45.2200 15.0569 -0.1650
45.2400 15.0635 -0.1651
45.2600 15.0702 -0.1507
45.2800 15.0769 -0.1633
45.3000 15.0836 -0.1696
45.3200 15.0903 -0.1503
45.3400 15.0970 -0.1576
45.3600 15.1036 -0.1736
45.3800 15.1103 -0.1523
45.4000 15.1168 -0.1584
45.4200 15.1235 -0.1703
45.4400 15.1302 -0.1509
45.4600 15.1369 -0.1749
45.4800 15.1436 -0.1618
45.5000 15.1503 -0.1492
45.5200 15.1570 -0.1730
45.5400 15.1636 -0.1678
45.5600 15.1702 -0.1523
45.5800 15.1768 -0.1733
45.6000 15.1834 -0.1562
45.6200 15.1902 -0.1550
45.6400 15.1969 -0.1784
45.6600 15.2036 -0.1697
45.6800 15.2103 -0.1566
45.7000 15.2169 -0.1756
45.7200 15.2236 -0.1603
45.7400 15.2302 -0.1525
45.7600 15.2368 -0.1846
45.7800 15.2435 -0.1659
45.8000 15.2501 -0.1557
45.8200 15.2568 -0.1811
45.8400 15.2635 -0.1591
45.8600 15.2702 -0.1683
45.8800 15.2769 -0.1786
45.9000 15.2836 -0.1550
45.9200 15.2902 -0.1716
45.9400 15.2968 -0.1803
45.9600 15.3035 -0.1568
45.9800 15.3102 -0.1729
46.0000 15.3169 -0.1796
46.0200 15.3236 -0.1579
46.0400 15.3303 -0.1829
46.0600 15.3369 -0.1679
46.0800 15.3436 -0.1605
46.1000 15.3502 -0.1809
46.1200 15.3569 -0.1732
46.1400 15.3635 -0.1645
46.1600 15.3702 -0.1800
46.1800 15.3769 -0.1667
46.2000 15.3836 -0.1724
46.2200 15.3903 -0.1850
46.2400 15.3970 -0.1661
46.2600 15.4036 -0.1788
46.2800 15.4103 -0.1804
46.3000 15.4168 -0.1605
46.3200 15.4235 -0.1868
46.3400 15.4301 -0.1747
46.3600 15.4368 -0.1655
46.3800 15.4435 -0.1891
46.4000 15.4502 -0.1707
46.4200 15.4569 -0.1702
46.4400 15.4636 -0.1867
46.4600 15.4702 -0.1725
46.4800 15.4768 -0.1722
46.5000 15.4834 -0.1890
46.5200 15.4901 -0.1689
46.5400 15.4968 -0.1799
46.5600 15.5035 -0.1904
46.5800 15.5102 -0.1704
46.6000 15.5169 -0.1802
46.6200 15.5236 -0.1839
46.6400 15.5302 -0.1689
46.6600 15.5368 -0.1889
46.6800 15.5435 -0.1815
46.7000 15.5501 -0.1720
46.7200 15.5569 -0.1897
46.7400 15.5635 -0.1813
46.7600 15.5702 -0.1759
46.7800 15.5769 -0.1888
46.8000 15.5836 -0.1816
46.8200 15.5903 -0.1791
46.8400 15.5969 -0.1934
46.8600 15.6035 -0.1826
46.8800 15.6102 -0.1799
46.9000 15.6169 -0.1873
46.9200 15.6236 -0.1868
46.9400 15.6303 -0.1842
46.9600 15.6370 -0.1848
46.9800 15.6436 -0.1904
47.0000 15.6502 -0.1861
47.0200 15.6568 -0.1783
47.0400 15.6634 -0.1870
47.0600 15.6701 -0.1888
47.0800 15.6769 -0.1901
47.1000 15.6836 -0.1835
47.1200 15.6902 -0.1891
47.1400 15.6969 -0.1905
47.1600 15.7036 -0.1878
47.1800 15.7102 -0.1876
47.2000 15.7168 -0.1905
47.2200 15.7235 -0.1883
47.2400 15.7301 -0.1890
47.2600 15.7369 -0.1927
47.2800 15.7436 -0.1877
47.3000 15.7502 -0.1936
47.3200 15.7569 -0.1922
47.3400 15.7636 -0.1791
47.3600 15.7703 -0.1952
47.3800 15.7769 -0.1950
47.4000 15.7835 -0.1841
47.4200 15.7901 -0.1982
47.4400 15.7969 -0.1951
47.4600 15.8036 -0.1898
47.4800 15.8103 -0.1970
47.5000 15.8169 -0.1943
47.5200 15.8236 -0.1912
47.5400 15.8302 -0.1983
47.5600 15.8368 -0.1903
47.5800 15.8435 -0.1894
47.6000 15.8501 -0.1953
47.6200 15.8569 -0.1895
47.6400 15.8636 -0.1916
47.6600 15.8703 -0.2000
47.6800 15.8770 -0.1940
47.7000 15.8836 -0.1922
47.7200 15.8903 -0.1941
47.7400 15.8969 -0.1981
47.7600 15.9035 -0.1940
47.7800 15.9102 -0.1968
47.8000 15.9169 -0.1974
47.8200 15.9236 -0.1942
47.8400 15.9302 -0.1966
47.8600 15.9369 -0.1997
47.8800 15.9436 -0.1978
47.9000 15.9503 -0.2010
47.9200 15.9569 -0.1905
47.9400 15.9634 -0.1956
47.9600 15.9701 -0.2065
47.9800 15.9768 -0.1975
48.0000 15.9835 -0.1908
48.0200 15.9902 -0.2030
48.0400 15.9969 -0.2007
48.0600 16.0036 -0.1988
48.0800 16.0103 -0.2027
48.1000 16.0169 -0.1952
48.1200 16.0235 -0.2051
48.1400 16.0302 -0.2007
48.1600 16.0369 -0.2004
48.1800 16.0436 -0.2103
48.2000 16.0503 -0.2025
48.2200 16.0570 -0.1993
48.2400 16.0636 -0.2050
48.2600 16.0703 -0.2051
48.2800 16.0769 -0.2081
48.3000 16.0835 -0.2021
48.3200 16.0901 -0.1980
48.3400 16.0969 -0.2111
48.3600 16.1036 -0.2122
48.3800 16.1103 -0.1991
48.4000 16.1170 -0.2092
48.4200 16.1236 -0.2078
48.4400 16.1303 -0.2064
48.4600 16.1369 -0.2075
48.4800 16.1435 -0.2056
48.5000 16.1501 -0.2072
48.5200 16.1568 -0.2125
48.5400 16.1635 -0.2002
48.5600 16.1702 -0.2115
48.5800 16.1769 -0.2193
48.6000 16.1836 -0.2002
48.6200 16.1903 -0.2113
48.6400 16.1969 -0.2177
48.6600 16.2034 -0.2026
48.6800 16.2101 -0.2034
48.7000 16.2168 -0.2174
48.7200 16.2235 -0.2081
48.7400 16.2302 -0.2051
48.7600 16.2369 -0.2164
48.7800 16.2436 -0.2111
48.8000 16.2502 -0.2058
48.8200 16.2569 -0.2154
48.8400 16.2635 -0.2103
48.8600 16.2701 -0.2090
48.8800 16.2768 -0.2102
48.9000 16.2835 -0.2160
48.9200 16.2902 -0.2127
48.9400 16.2969 -0.2130
48.9600 16.3036 -0.2170
48.9800 16.3103 -0.2118
49.0000 16.3169 -0.2107
49.0200 16.3235 -0.2225
49.0400 16.3301 -0.2103
49.0600 16.3369 -0.2112
49.0800 16.3436 -0.2182
49.1000 16.3503 -0.2141
49.1200 16.3570 -0.2142
49.1400 16.3636 -0.2214
49.1600 16.3703 -0.2135
49.1800 16.3769 -0.2139
49.2000 16.3835 -0.2190
49.2200 16.3901 -0.2170
49.2400 16.3968 -0.2239
49.2600 16.4035 -0.2174
49.2800 16.4102 -0.2140
49.3000 16.4168 -0.2267
49.3200 16.4235 -0.2171
49.3400 16.4302 -0.2120
49.3600 16.4369 -0.2341
49.3800 16.4435 -0.2139
49.4000 16.4501 -0.2089
49.4200 16.4568 -0.2309
49.4400 16.4635 -0.2217
49.4600 16.4702 -0.2149
49.4800 16.4769 -0.2287
49.5000 16.4836 -0.2153
49.5200 16.4903 -0.2220
49.5400 16.4969 -0.2336
49.5600 16.5035 -0.2134
49.5800 16.5101 -0.2187
49.6000 16.5168 -0.2339
49.6200 16.5236 -0.2140
49.6400 16.5303 -0.2269
49.6600 16.5369 -0.2362
49.6800 16.5436 -0.2153
49.7000 16.5503 -0.2283
49.7200 16.5569 -0.2329
49.7400 16.5635 -0.2116
49.7600 16.5701 -0.2276
49.7800 16.5769 -0.2318
49.8000 16.5836 -0.2157
49.8200 16.5903 -0.2353
49.8400 16.5969 -0.2351
49.8600 16.6036 -0.2155
49.8800 16.6103 -0.2320
49.9000 16.6169 -0.2374
49.9200 16.6235 -0.2169
49.9400 16.6302 -0.2292
49.9600 16.6369 -0.2317
49.9800 16.6436 -0.2209
50.0000 16.6502 -0.2333
50.0200 16.6569 -0.2318
50.0400 16.6636 -0.2258
50.0600 16.6703 -0.2382
50.0800 16.6769 -0.2297
50.1000 16.6835 -0.2238
50.1200 16.6901 -0.2332
50.1400 16.6968 -0.2398
50.1600 16.7035 -0.2283
50.1800 16.7102 -0.2374
50.2000 16.7169 -0.2345
50.2200 16.7236 -0.2332
50.2400 16.7302 -0.2410
50.2600 16.7369 -0.2355
50.2800 16.7435 -0.2324
50.3000 16.7501 -0.2350
50.3200 16.7568 -0.2345
50.3400 16.7635 -0.2383
50.3600 16.7702 -0.2359
50.3800 16.7769 -0.2416
50.4000 16.7836 -0.2348
50.4200 16.7903 -0.2363
50.4400 16.7969 -0.2436
50.4600 16.8035 -0.2327
50.4800 16.8102 -0.2354
50.5000 16.8168 -0.2414
50.5200 16.8235 -0.2315
50.5400 16.8303 -0.2418
50.5600 16.8369 -0.2481
50.5800 16.8436 -0.2308
50.6000 16.8503 -0.2463
50.6200 16.8569 -0.2415
50.6400 16.8635 -0.2329
50.6600 16.8701 -0.2441
50.6800 16.8768 -0.2395
50.7000 16.8836 -0.2336
50.7200 16.8903 -0.2496
50.7400 16.8969 -0.2443
50.7600 16.9036 -0.2337
50.7800 16.9103 -0.2551
50.8000 16.9169 -0.2440
50.8200 16.9235 -0.2305
50.8400 16.9301 -0.2521
50.8600 16.9368 -0.2400
50.8800 16.9435 -0.2390
50.9000 16.9502 -0.2536
50.9200 16.9569 -0.2409
50.9400 16.9635 -0.2402
50.9600 16.9702 -0.2548
50.9800 16.9769 -0.2403
51.0000 16.9835 -0.2392
51.0200 16.9901 -0.2542
51.0400 16.9968 -0.2409
51.0600 17.0035 -0.2438
51.0800 17.0102 -0.2550
51.1000 17.0169 -0.2426
51.1200 17.0236 -0.2413
51.1400 17.0303 -0.2563
51.1600 17.0369 -0.2429
51.1800 17.0435 -0.2448
51.2000 17.0501 -0.2447
51.2200 17.0568 -0.2494
51.2400 17.0636 -0.2465
51.2600 17.0703 -0.2526
51.2800 17.0769 -0.2512
51.3000 17.0836 -0.2478
51.3200 17.0903 -0.2513
51.3400 17.0969 -0.2498
51.3600 17.1035 -0.2466
51.3800 17.1101 -0.2521
51.4000 17.1168 -0.2517
51.4200 17.1235 -0.2466
51.4400 17.1302 -0.2502
51.4600 17.1369 -0.2601
51.4800 17.1436 -0.2433
51.5000 17.1503 -0.2516
51.5200 17.1569 -0.2589
51.5400 17.1635 -0.2400
51.5600 17.1701 -0.2561
51.5800 17.1768 -0.2603
51.6000 17.1835 -0.2432
51.6200 17.1902 -0.2562
51.6400 17.1969 -0.2628
51.6600 17.2036 -0.2450
51.6800 17.2103 -0.2634
51.7000 17.2169 -0.2597
51.7200 17.2235 -0.2396
51.7400 17.2301 -0.2655
51.7600 17.2368 -0.2670
51.7800 17.2435 -0.2358
51.8000 17.2502 -0.2692
51.8200 17.2569 -0.2625
51.8400 17.2636 -0.2418
51.8600 17.2703 -0.2696
51.8800 17.2769 -0.2649
51.9000 17.2836 -0.2394
51.9200 17.2902 -0.2660
51.9400 17.2968 -0.2601
51.9600 17.3035 -0.2507
51.9800 17.3102 -0.2726
52.0000 17.3168 -0.2577
52.0200 17.3235 -0.2455
52.0400 17.3303 -0.2736
52.0600 17.3370 -0.2636
52.0800 17.3436 -0.2503
52.1000 17.3502 -0.2679
52.1200 17.3568 -0.2628
52.1400 17.3635 -0.2530
52.1600 17.3703 -0.2653
52.1800 17.3769 -0.2634
52.2000 17.3836 -0.2639
52.2200 17.3903 -0.2647
52.2400 17.3969 -0.2501
52.2600 17.4035 -0.2699
52.2800 17.4101 -0.2674
52.3000 17.4168 -0.2537
52.3200 17.4235 -0.2662
52.3400 17.4302 -0.2709
52.3600 17.4368 -0.2577
52.3800 17.4435 -0.2644
52.4000 17.4502 -0.2664
52.4200 17.4569 -0.2662
52.4400 17.4635 -0.2581
52.4600 17.4701 -0.2589
52.4800 17.4768 -0.2660
52.5000 17.4835 -0.2687
52.5200 17.4902 -0.2636
52.5400 17.4969 -0.2682
52.5600 17.5036 -0.2622
52.5800 17.5103 -0.2686
52.6000 17.5170 -0.2717
52.6200 17.5236 -0.2631
52.6400 17.5302 -0.2655
52.6600 17.5368 -0.2702
52.6800 17.5435 -0.2605
52.7000 17.5503 -0.2678
52.7200 17.5569 -0.2717
52.7400 17.5636 -0.2646
52.7600 17.5703 -0.2760
52.7800 17.5769 -0.2631
52.8000 17.5835 -0.2632
52.8200 17.5901 -0.2776
52.8400 17.5968 -0.2608
52.8600 17.6035 -0.2630
52.8800 17.6102 -0.2832
52.9000 17.6169 -0.2552
52.9200 17.6236 -0.2644
52.9400 17.6302 -0.2814
52.9600 17.6369 -0.2599
52.9800 17.6435 -0.2669
53.0000 17.6501 -0.2797
53.0200 17.6568 -0.2576
53.0400 17.6635 -0.2805
53.0600 17.6702 -0.2738
53.0800 17.6769 -0.2647
53.1000 17.6836 -0.2775
53.1200 17.6902 -0.2720
53.1400 17.6969 -0.2646
53.1600 17.7035 -0.2808
53.1800 17.7102 -0.2739
53.2000 17.7168 -0.2663
53.2200 17.7235 -0.2819
53.2400 17.7302 -0.2748
53.2600 17.7369 -0.2666
53.2800 17.7436 -0.2826
53.3000 17.7503 -0.2741
53.3200 17.7569 -0.2635
53.3400 17.7635 -0.2805
53.3600 17.7702 -0.2745
53.3800 17.7768 -0.2736
53.4000 17.7835 -0.2797
53.4200 17.7903 -0.2736
53.4400 17.7970 -0.2784
53.4600 17.8036 -0.2857
53.4800 17.8103 -0.2747
53.5000 17.8169 -0.2805
53.5200 17.8235 -0.2759
53.5400 17.8301 -0.2765
53.5600 17.8368 -0.2811
53.5800 17.8435 -0.2822
53.6000 17.8502 -0.2760
53.6200 17.8569 -0.2833
53.6400 17.8635 -0.2783
53.6600 17.8702 -0.2812
53.6800 17.8769 -0.2844
53.7000 17.8835 -0.2779
53.7200 17.8901 -0.2808
53.7400 17.8968 -0.2844
53.7600 17.9035 -0.2782
53.7800 17.9102 -0.2862
53.8000 17.9169 -0.2840
53.8200 17.9236 -0.2846
53.8400 17.9302 -0.2879
53.8600 17.9369 -0.2835
53.8800 17.9435 -0.2823
53.9000 17.9501 -0.2902
53.9200 17.9568 -0.2876
53.9400 17.9635 -0.2858
53.9600 17.9702 -0.2891
53.9800 17.9769 -0.2868
54.0000 17.9836 -0.2888
54.0200 17.9903 -0.2901
54.0400 17.9970 -0.2912
54.0600 18.0036 -0.2875
54.0800 18.0102 -0.2890
54.1000 18.0168 -0.2844
54.1200 18.0235 -0.2985
54.1400 18.0302 -0.2878
54.1600 18.0369 -0.2906
54.1800 18.0436 -0.2950
54.2000 18.0503 -0.2903
54.2200 18.0570 -0.2899
54.2400 18.0636 -0.2947
54.2600 18.0702 -0.2943
54.2800 18.0768 -0.2901
54.3000 18.0835 -0.2945
54.3200 18.0902 -0.2991
54.3400 18.0969 -0.2959
54.3600 18.1036 -0.3000
54.3800 18.1102 -0.2936
54.4000 18.1169 -0.2963
54.4200 18.1235 -0.2969
54.4400 18.1301 -0.2939
54.4600 18.1368 -0.2971
54.4800 18.1435 -0.2995
54.5000 18.1502 -0.2989
54.5200 18.1569 -0.2960
54.5400 18.1635 -0.3003
54.5600 18.1702 -0.3040
54.5800 18.1769 -0.3031
54.6000 18.1835 -0.2948
54.6200 18.1901 -0.3019
54.6400 18.1968 -0.3003
54.6600 18.2035 -0.3007
54.6800 18.2102 -0.3033
54.7000 18.2169 -0.3034
54.7200 18.2236 -0.3031
54.7400 18.2303 -0.3101
54.7600 18.2370 -0.2963
54.7800 18.2436 -0.3080
54.8000 18.2502 -0.3076
54.8200 18.2568 -0.2949
54.8400 18.2635 -0.3042
54.8600 18.2702 -0.3160
54.8800 18.2770 -0.2965
54.9000 18.2836 -0.3052
54.9200 18.2903 -0.3148
54.9400 18.2969 -0.3013
54.9600 18.3036 -0.3078
54.9800 18.3102 -0.3155
55.0000 18.3168 -0.2956
55.0200 18.3235 -0.3112
55.0400 18.3302 -0.3122
55.0600 18.3369 -0.2983
55.0800 18.3435 -0.3138
55.1000 18.3502 -0.3086
55.1200 18.3569 -0.3043
55.1400 18.3635 -0.3115
55.1600 18.3701 -0.3089
55.1800 18.3767 -0.3028
55.2000 18.3834 -0.3175
55.2200 18.3901 -0.3082
55.2400 18.3968 -0.3085
55.2600 18.4035 -0.3204
55.2800 18.4102 -0.3134
55.3000 18.4169 -0.3080
55.3200 18.4235 -0.3200
55.3400 18.4301 -0.3127
55.3600 18.4368 -0.3086
55.3800 18.4435 -0.3114
55.4000 18.4502 -0.3210
55.4200 18.4569 -0.3157
55.4400 18.4636 -0.3155
55.4600 18.4703 -0.3202
55.4800 18.4770 -0.3185
55.5000 18.4836 -0.3151
55.5200 18.4902 -0.3193
55.5400 18.4969 -0.3162
55.5600 18.5035 -0.3231
55.5800 18.5102 -0.3246
55.6000 18.5169 -0.3135
55.6200 18.5236 -0.3283
55.6400 18.5303 -0.3270
55.6600 18.5370 -0.3081
55.6800 18.5436 -0.3284
55.7000 18.5502 -0.3293
55.7200 18.5568 -0.3033
55.7400 18.5635 -0.3302
55.7600 18.5702 -0.3354
55.7800 18.5769 -0.3101
55.8000 18.5836 -0.3273
55.8200 18.5902 -0.3360
55.8400 18.5969 -0.3153
55.8600 18.6036 -0.3321
55.8800 18.6102 -0.3259
55.9000 18.6168 -0.3186
55.9200 18.6234 -0.3355
55.9400 18.6302 -0.3271
55.9600 18.6369 -0.3153
55.9800 18.6435 -0.3458
56.0000 18.6502 -0.3226
56.0200 18.6569 -0.3170
56.0400 18.6636 -0.3490
56.0600 18.6702 -0.3223
56.0800 18.6768 -0.3119
56.1000 18.6835 -0.3410
56.1200 18.6902 -0.3269
56.1400 18.6969 -0.3244
56.1600 18.7036 -0.3459
56.1800 18.7103 -0.3253
56.2000 18.7170 -0.3231
56.2200 18.7236 -0.3491
56.2400 18.7302 -0.3284
56.2600 18.7368 -0.3231
56.2800 18.7435 -0.3404
56.3000 18.7502 -0.3252
56.3200 18.7569 -0.3325
56.3400 18.7636 -0.3375
56.3600 18.7703 -0.3273
56.3800 18.7770 -0.3352
56.4000 18.7836 -0.3393
56.4200 18.7902 -0.3291
56.4400 18.7968 -0.3360
56.4600 18.8035 -0.3347
56.4800 18.8102 -0.3316
56.5000 18.8169 -0.3345
56.5200 18.8235 -0.3364
56.5400 18.8302 -0.3405
56.5600 18.8369 -0.3326
56.5800 18.8436 -0.3350
56.6000 18.8502 -0.3457
56.6200 18.8568 -0.3297
56.6400 18.8634 -0.3317
56.6600 18.8701 -0.3419
56.6800 18.8768 -0.3344
56.7000 18.8836 -0.3305
56.7200 18.8902 -0.3426
56.7400 18.8969 -0.3359
56.7600 18.9036 -0.3380
56.7800 18.9102 -0.3441
56.8000 18.9168 -0.3300
56.8200 18.9235 -0.3350
56.8400 18.9302 -0.3428
56.8600 18.9369 -0.3349
56.8800 18.9436 -0.3415
56.9000 18.9503 -0.3439
56.9200 18.9570 -0.3339
56.9400 18.9636 -0.3456
56.9600 18.9702 -0.3425
56.9800 18.9768 -0.3320
57.0000 18.9835 -0.3411
57.0200 18.9902 -0.3450
57.0400 18.9969 -0.3377
57.0600 19.0036 -0.3466
57.0800 19.0103 -0.3414
57.1000 19.0169 -0.3361
57.1200 19.0236 -0.3443
57.1400 19.0302 -0.3482
57.1600 19.0368 -0.3344
57.1800 19.0434 -0.3411
57.2000 19.0501 -0.3468
57.2200 19.0568 -0.3387
57.2400 19.0635 -0.3435
57.2600 19.0702 -0.3490
57.2800 19.0769 -0.3387
57.3000 19.0836 -0.3535
57.3200 19.0902 -0.3480
57.3400 19.0968 -0.3365
57.3600 19.1034 -0.3541
57.3800 19.1101 -0.3468
57.4000 19.1169 -0.3415
57.4200 19.1235 -0.3526
57.4400 19.1302 -0.3517
57.4600 19.1369 -0.3499
57.4800 19.1436 -0.3567
57.5000 19.1502 -0.3497
57.5200 19.1568 -0.3477
57.5400 19.1635 -0.3552
57.5600 19.1702 -0.3532
57.5800 19.1769 -0.3515
57.6000 19.1836 -0.3544
57.6200 19.1903 -0.3547
57.6400 19.1969 -0.3589
57.6600 19.2036 -0.3582
57.6800 19.2102 -0.3558
57.7000 19.2168 -0.3576
57.7200 19.2235 -0.3553
57.7400 19.2302 -0.3535
57.7600 19.2369 -0.3680
57.7800 19.2436 -0.3634
57.8000 19.2503 -0.3549
57.8200 19.2570 -0.3672
57.8400 19.2636 -0.3638
57.8600 19.2702 -0.3604
57.8800 19.2768 -0.3671
57.9000 19.2835 -0.3568
57.9200 19.2901 -0.3599
57.9400 19.2969 -0.3690
57.9600 19.3035 -0.3635
57.9800 19.3102 -0.3623
58.0000 19.3169 -0.3729
58.0200 19.3236 -0.3625
58.0400 19.3302 -0.3651
58.0600 19.3368 -0.3740
58.0800 19.3434 -0.3626
58.1000 19.3501 -0.3718
58.1200 19.3569 -0.3717
58.1400 19.3635 -0.3696
58.1600 19.3702 -0.3703
58.1800 19.3769 -0.3742
58.2000 19.3836 -0.3674
58.2200 19.3902 -0.3755
58.2400 19.3968 -0.3741
58.2600 19.4035 -0.3673
58.2800 19.4102 -0.3747
58.3000 19.4169 -0.3827
58.3200 19.4236 -0.3667
58.3400 19.4303 -0.3761
58.3600 19.4370 -0.3796
58.3800 19.4436 -0.3686
58.4000 19.4502 -0.3796
58.4200 19.4568 -0.3851
58.4400 19.4635 -0.3693
58.4600 19.4702 -0.3729
58.4800 19.4769 -0.3861
58.5000 19.4836 -0.3746
58.5200 19.4903 -0.3782
58.5400 19.4969 -0.3845
58.5600 19.5036 -0.3822
58.5800 19.5102 -0.3810
58.6000 19.5168 -0.3846
58.6200 19.5235 -0.3792
58.6400 19.5302 -0.3815
58.6600 19.5369 -0.3838
58.6800 19.5436 -0.3856
58.7000 19.5502 -0.3864
58.7200 19.5569 -0.3895
58.7400 19.5636 -0.3799
58.7600 19.5702 -0.3907
58.7800 19.5768 -0.3907
58.8000 19.5834 -0.3840
58.8200 19.5901 -0.3890
58.8400 19.5968 -0.3909
58.8600 19.6035 -0.3857
58.8800 19.6102 -0.3895
58.9000 19.6169 -0.3955
58.9200 19.6236 -0.3976
58.9400 19.6302 -0.3938
58.9600 19.6368 -0.3840
58.9800 19.6435 -0.3880
59.0000 19.6502 -0.4002
59.0200 19.6569 -0.3885
59.0400 19.6636 -0.3959
59.0600 19.6703 -0.4036
59.0800 19.6770 -0.3869
59.1000 19.6836 -0.3925
59.1200 19.6903 -0.4011
59.1400 19.6969 -0.3959
59.1600 19.7035 -0.3942
59.1800 19.7102 -0.3981
59.2000 19.7169 -0.3948
59.2200 19.7236 -0.4021
59.2400 19.7303 -0.3942
59.2600 19.7370 -0.4055
59.2800 19.7436 -0.4063
59.3000 19.7502 -0.4007
