Raw Data
Time Displacement Force
(s) (mm) (N)
0.0000 0.0000 -0.0074
0.0200 0.0001 0.0147
0.0400 0.0022 0.0727
0.0600 0.0101 0.0698
0.0800 0.0220 -0.0125
0.1000 0.0346 -0.0051
0.1200 0.0473 0.0300
0.1400 0.0607 -0.0040
0.1600 0.0747 0.0065
0.1800 0.0889 0.0119
0.2000 0.1028 -0.0143
0.2200 0.1164 0.0032
0.2400 0.1297 0.0211
0.2600 0.1430 -0.0066
0.2800 0.1563 0.0114
0.3000 0.1697 0.0194
0.3200 0.1831 -0.0114
0.3400 0.1964 0.0168
0.3600 0.2098 0.0144
0.3800 0.2231 -0.0055
0.4000 0.2365 0.0193
0.4200 0.2498 0.0102
0.4400 0.2631 -0.0004
0.4600 0.2764 0.0139
0.4800 0.2898 0.0111
0.5000 0.3031 -0.0015
0.5200 0.3164 0.0146
0.5400 0.3297 0.0008
0.5600 0.3431 0.0020
0.5800 0.3564 0.0166
0.6000 0.3698 -0.0025
0.6200 0.3831 0.0035
0.6400 0.3965 0.0101
0.6600 0.4098 0.0017
0.6800 0.4232 0.0076
0.7000 0.4365 0.0034
0.7200 0.4498 0.0060
0.7400 0.4631 0.0061
0.7600 0.4765 0.0004
0.7800 0.4898 0.0078
0.8000 0.5031 0.0058
0.8200 0.5164 0.0070
0.8400 0.5298 0.0009
0.8600 0.5431 0.0034
0.8800 0.5564 0.0021
0.9000 0.5697 0.0085
0.9200 0.5830 0.0054
0.9400 0.5964 0.0067
0.9600 0.6097 0.0078
0.9800 0.6231 0.0040
1.0000 0.6364 0.0065
1.0200 0.6498 0.0073
1.0400 0.6632 0.0031
1.0600 0.6765 0.0098
1.0800 0.6898 0.0072
1.1000 0.7031 0.0044
1.1200 0.7165 0.0104
1.1400 0.7298 0.0058
1.1600 0.7431 0.0057
1.1800 0.7564 0.0041
1.2000 0.7698 0.0073
1.2200 0.7831 0.0049
1.2400 0.7964 0.0085
1.2600 0.8098 0.0152
1.2800 0.8231 0.0042
1.3000 0.8364 0.0007
1.3200 0.8498 0.0119
1.3400 0.8631 0.0069
1.3600 0.8764 0.0076
1.3800 0.8898 0.0115
1.4000 0.9031 0.0025
1.4200 0.9165 0.0017
1.4400 0.9298 0.0157
1.4600 0.9431 0.0002
1.4800 0.9565 0.0064
1.5000 0.9698 0.0136
1.5200 0.9832 0.0002
1.5400 0.9965 0.0101
1.5600 1.0098 0.0099
1.5800 1.0231 0.0053
1.6000 1.0364 0.0108
1.6200 1.0497 0.0120
1.6400 1.0630 -0.0008
1.6600 1.0764 0.0141
1.6800 1.0898 0.0134
1.7000 1.1031 -0.0002
1.7200 1.1164 0.0152
1.7400 1.1298 0.0157
1.7600 1.1432 0.0008
1.7800 1.1565 0.0134
1.8000 1.1698 0.0144
1.8200 1.1832 0.0092
1.8400 1.1965 0.0185
1.8600 1.2099 0.0149
1.8800 1.2231 -0.0014
1.9000 1.2364 0.0225
1.9200 1.2498 0.0207
1.9400 1.2631 0.0054
1.9600 1.2765 0.0174
1.9800 1.2897 0.0078
2.0000 1.3031 0.0030
2.0200 1.3164 0.0196
2.0400 1.3298 0.0190
2.0600 1.3431 0.0073
2.0800 1.3564 0.0088
2.1000 1.3698 0.0098
2.1200 1.3832 0.0153
2.1400 1.3965 0.0124
2.1600 1.4098 0.0134
2.1800 1.4232 0.0046
2.2000 1.4365 0.0134
2.2200 1.4498 0.0123
2.2400 1.4631 0.0115
2.2600 1.4764 0.0136
2.2800 1.4897 0.0125
2.3000 1.5031 0.0092
2.3200 1.5164 0.0130
2.3400 1.5297 0.0151
2.3600 1.5431 0.0116
2.3800 1.5565 0.0091
2.4000 1.5698 0.0154
2.4200 1.5832 0.0114
2.4400 1.5965 0.0141
2.4600 1.6098 0.0151
2.4800 1.6232 0.0102
2.5000 1.6365 0.0132
2.5200 1.6498 0.0183
2.5400 1.6631 0.0092
2.5600 1.6765 0.0090
2.5800 1.6898 0.0209
2.6000 1.7032 0.0015
2.6200 1.7165 0.0126
2.6400 1.7298 0.0205
2.6600 1.7432 0.0064
2.6800 1.7565 0.0083
2.7000 1.7698 0.0186
2.7200 1.7831 0.0035
2.7400 1.7964 0.0146
2.7600 1.8098 0.0148
2.7800 1.8231 0.0018
2.8000 1.8364 0.0163
2.8200 1.8498 0.0121
2.8400 1.8631 0.0054
2.8600 1.8765 0.0187
2.8800 1.8898 0.0110
2.9000 1.9031 0.0047
2.9200 1.9165 0.0186
2.9400 1.9298 0.0106
2.9600 1.9431 0.0091
2.9800 1.9565 0.0201
3.0000 1.9698 0.0049
3.0200 1.9832 0.0078
3.0400 1.9965 0.0243
3.0600 2.0098 0.0061
3.0800 2.0231 0.0153
3.1000 2.0364 0.0208
3.1200 2.0498 0.0087
3.1400 2.0631 0.0139
3.1600 2.0764 0.0182
3.1800 2.0898 0.0099
3.2000 2.1032 0.0139
3.2200 2.1165 0.0129
3.2400 2.1299 0.0110
3.2600 2.1432 0.0199
3.2800 2.1565 0.0087
3.3000 2.1698 0.0104
3.3200 2.1831 0.0202
3.3400 2.1964 0.0124
3.3600 2.2098 0.0165
3.3800 2.2231 0.0149
3.4000 2.2365 0.0092
3.4200 2.2498 0.0142
3.4400 2.2631 0.0122
3.4600 2.2764 0.0129
3.4800 2.2898 0.0104
3.5000 2.3031 0.0148
3.5200 2.3164 0.0091
3.5400 2.3298 0.0173
3.5600 2.3431 0.0122
3.5800 2.3565 0.0079
3.6000 2.3698 0.0114
3.6200 2.3832 0.0149
3.6400 2.3965 0.0149
3.6600 2.4099 0.0105
3.6800 2.4232 0.0151
3.7000 2.4365 0.0138
3.7200 2.4498 0.0113
3.7400 2.4631 0.0159
3.7600 2.4765 0.0141
3.7800 2.4897 0.0087
3.8000 2.5030 0.0154
3.8200 2.5164 0.0164
3.8400 2.5297 0.0132
3.8600 2.5431 0.0163
3.8800 2.5564 0.0150
3.9000 2.5698 0.0081
3.9200 2.5832 0.0186
3.9400 2.5965 0.0133
3.9600 2.6098 0.0129
3.9800 2.6231 0.0187
4.0000 2.6365 0.0083
4.0200 2.6498 0.0125
4.0400 2.6632 0.0256
4.0600 2.6765 0.0088
4.0800 2.6898 0.0135
4.1000 2.7031 0.0201
4.1200 2.7165 0.0071
4.1400 2.7298 0.0188
4.1600 2.7431 0.0203
4.1800 2.7564 0.0026
4.2000 2.7697 0.0173
4.2200 2.7831 0.0210
4.2400 2.7964 0.0034
4.2600 2.8098 0.0211
4.2800 2.8232 0.0156
4.3000 2.8365 0.0072
4.3200 2.8498 0.0175
4.3400 2.8632 0.0181
4.3600 2.8765 0.0109
4.3800 2.8899 0.0123
4.4000 2.9032 0.0123
4.4200 2.9165 0.0172
4.4400 2.9298 0.0153
4.4600 2.9431 0.0133
4.4800 2.9564 0.0113
4.5000 2.9698 0.0143
4.5200 2.9831 0.0157
4.5400 2.9964 0.0172
4.5600 3.0098 0.0106
4.5800 3.0231 0.0167
4.6000 3.0364 0.0154
4.6200 3.0498 0.0080
4.6400 3.0631 0.0237
4.6600 3.0765 0.0125
4.6800 3.0898 0.0053
4.7000 3.1031 0.0262
4.7200 3.1165 0.0163
4.7400 3.1298 0.0075
4.7600 3.1432 0.0204
4.7800 3.1565 0.0106
4.8000 3.1698 0.0096
4.8200 3.1832 0.0231
4.8400 3.1965 0.0139
4.8600 3.2098 0.0131
4.8800 3.2231 0.0225
4.9000 3.2364 0.0074
4.9200 3.2497 0.0159
4.9400 3.2631 0.0272
4.9600 3.2764 0.0126
4.9800 3.2898 0.0083
5.0000 3.3032 0.0217
5.0200 3.3166 0.0092
5.0400 3.3299 0.0198
5.0600 3.3432 0.0232
5.0800 3.3565 0.0078
5.1000 3.3699 0.0162
5.1200 3.3832 0.0177
5.1400 3.3965 0.0156
5.1600 3.4098 0.0241
5.1800 3.4231 0.0272
5.2000 3.4365 0.0112
5.2200 3.4498 0.0118
5.2400 3.4631 0.0171
5.2600 3.4764 0.0222
5.2800 3.4897 0.0114
5.3000 3.5031 0.0191
5.3200 3.5164 0.0143
5.3400 3.5298 0.0153
5.3600 3.5431 0.0153
5.3800 3.5565 0.0157
5.4000 3.5699 0.0168
5.4200 3.5832 0.0184
5.4400 3.5965 0.0162
5.4600 3.6099 0.0140
5.4800 3.6232 0.0156
5.5000 3.6365 0.0212
5.5200 3.6498 0.0113
5.5400 3.6631 0.0206
5.5600 3.6764 0.0200
5.5800 3.6898 0.0093
5.6000 3.7031 0.0177
5.6200 3.7164 0.0160
5.6400 3.7298 0.0149
5.6600 3.7431 0.0173
5.6800 3.7564 0.0163
5.7000 3.7698 0.0050
5.7200 3.7831 0.0232
5.7400 3.7965 0.0153
5.7600 3.8098 0.0086
5.7800 3.8232 0.0246
5.8000 3.8365 0.0117
5.8200 3.8499 0.0088
5.8400 3.8632 0.0266
5.8600 3.8765 0.0129
5.8800 3.8898 0.0119
5.9000 3.9031 0.0243
5.9200 3.9165 0.0082
5.9400 3.9298 0.0107
5.9600 3.9431 0.0255
5.9800 3.9564 0.0072
6.0000 3.9698 0.0160
6.0200 3.9831 0.0242
6.0400 3.9964 0.0061
6.0600 4.0098 0.0212
6.0800 4.0231 0.0198
6.1000 4.0365 0.0065
6.1200 4.0499 0.0163
6.1400 4.0632 0.0219
6.1600 4.0765 0.0103
6.1800 4.0899 0.0167
6.2000 4.1032 0.0191
6.2200 4.1165 0.0138
6.2400 4.1298 0.0192
6.2600 4.1431 0.0186
6.2800 4.1565 0.0097
6.3000 4.1698 0.0183
6.3200 4.1831 0.0138
6.3400 4.1964 0.0151
6.3600 4.2098 0.0188
6.3800 4.2231 0.0114
6.4000 4.2364 0.0124
6.4200 4.2498 0.0209
6.4400 4.2631 0.0126
6.4600 4.2765 0.0148
6.4800 4.2898 0.0201
6.5000 4.3031 0.0093
6.5200 4.3165 0.0188
6.5400 4.3299 0.0155
6.5600 4.3432 0.0093
6.5800 4.3565 0.0187
6.6000 4.3698 0.0208
6.6200 4.3831 0.0073
6.6400 4.3965 0.0204
6.6600 4.4098 0.0161
6.6800 4.4231 0.0087
6.7000 4.4364 0.0206
6.7200 4.4497 0.0182
6.7400 4.4631 0.0027
6.7600 4.4764 0.0249
6.7800 4.4898 0.0176
6.8000 4.5031 0.0088
6.8200 4.5165 0.0230
6.8400 4.5298 0.0104
6.8600 4.5431 0.0153
6.8800 4.5565 0.0220
6.9000 4.5698 0.0135
6.9200 4.5832 0.0168
6.9400 4.5965 0.0191
6.9600 4.6098 0.0130
6.9800 4.6231 0.0184
7.0000 4.6365 0.0223
7.0200 4.6498 0.0150
7.0400 4.6631 0.0183
7.0600 4.6764 0.0212
7.0800 4.6897 0.0127
7.1000 4.7031 0.0246
7.1200 4.7164 0.0191
7.1400 4.7297 0.0139
7.1600 4.7431 0.0178
7.1800 4.7565 0.0184
7.2000 4.7699 0.0119
7.2200 4.7832 0.0190
7.2400 4.7965 0.0221
7.2600 4.8099 0.0137
7.2800 4.8232 0.0176
7.3000 4.8365 0.0147
7.3200 4.8498 0.0220
7.3400 4.8631 0.0180
7.3600 4.8764 0.0128
7.3800 4.8898 0.0224
7.4000 4.9031 0.0133
7.4200 4.9164 0.0112
7.4400 4.9298 0.0251
7.4600 4.9431 0.0102
7.4800 4.9565 0.0166
7.5000 4.9698 0.0198
7.5200 4.9832 0.0129
7.5400 4.9965 0.0137
7.5600 5.0099 0.0220
7.5800 5.0232 0.0098
7.6000 5.0365 0.0182
7.6200 5.0498 0.0194
7.6400 5.0632 0.0104
7.6600 5.0765 0.0192
7.6800 5.0898 0.0216
7.7000 5.1031 0.0100
7.7200 5.1164 0.0230
7.7400 5.1298 0.0184
7.7600 5.1431 0.0106
7.7800 5.1564 0.0240
7.8000 5.1697 0.0177
7.8200 5.1831 0.0118
7.8400 5.1964 0.0164
7.8600 5.2098 0.0229
7.8800 5.2231 0.0165
7.9000 5.2365 0.0240
7.9200 5.2498 0.0154
7.9400 5.2631 0.0117
7.9600 5.2765 0.0245
7.9800 5.2898 0.0140
8.0000 5.3032 0.0166
8.0200 5.3165 0.0239
8.0400 5.3298 0.0152
8.0600 5.3431 0.0184
8.0800 5.3565 0.0162
8.1000 5.3698 0.0171
8.1200 5.3831 0.0191
8.1400 5.3964 0.0223
8.1600 5.4097 0.0118
8.1800 5.4231 0.0216
8.2000 5.4364 0.0283
8.2200 5.4498 0.0154
8.2400 5.4631 0.0175
8.2600 5.4765 0.0208
8.2800 5.4899 0.0288
8.3000 5.5032 0.0124
8.3200 5.5165 0.0214
8.3400 5.5298 0.0353
8.3600 5.5432 0.0157
8.3800 5.5565 0.0166
8.4000 5.5698 0.0336
8.4200 5.5831 0.0221
8.4400 5.5965 0.0247
8.4600 5.6098 0.0261
8.4800 5.6231 0.0148
8.5000 5.6364 0.0282
8.5200 5.6498 0.0340
8.5400 5.6631 0.0065
8.5600 5.6764 0.0254
8.5800 5.6898 0.0342
8.6000 5.7031 0.0157
8.6200 5.7165 0.0217
8.6400 5.7298 0.0239
8.6600 5.7431 0.0249
8.6800 5.7565 0.0251
8.7000 5.7698 0.0132
8.7200 5.7832 0.0280
8.7400 5.7965 0.0351
8.7600 5.8098 0.0096
8.7800 5.8231 0.0157
8.8000 5.8365 0.0260
8.8200 5.8498 0.0241
8.8400 5.8631 0.0221
8.8600 5.8764 0.0166
8.8800 5.8897 0.0213
8.9000 5.9031 0.0314
8.9200 5.9164 0.0175
8.9400 5.9298 0.0216
8.9600 5.9432 0.0289
8.9800 5.9565 0.0181
9.0000 5.9699 0.0185
9.0200 5.9832 0.0207
9.0400 5.9965 0.0218
9.0600 6.0098 0.0280
9.0800 6.0232 0.0212
9.1000 6.0365 0.0143
9.1200 6.0498 0.0303
9.1400 6.0631 0.0223
9.1600 6.0764 0.0138
9.1800 6.0898 0.0278
9.2000 6.1031 0.0201
9.2200 6.1164 0.0169
9.2400 6.1297 0.0278
9.2600 6.1431 0.0134
9.2800 6.1564 0.0214
9.3000 6.1697 0.0292
9.3200 6.1831 0.0120
9.3400 6.1965 0.0183
9.3600 6.2099 0.0281
9.3800 6.2232 0.0108
9.4000 6.2365 0.0224
9.4200 6.2498 0.0262
9.4400 6.2632 0.0078
9.4600 6.2765 0.0200
9.4800 6.2898 0.0253
9.5000 6.3031 0.0100
9.5200 6.3164 0.0226
9.5400 6.3298 0.0238
9.5600 6.3431 0.0120
9.5800 6.3564 0.0250
9.6000 6.3697 0.0225
9.6200 6.3831 0.0136
9.6400 6.3965 0.0207
9.6600 6.4098 0.0192
9.6800 6.4232 0.0105
9.7000 6.4365 0.0229
9.7200 6.4499 0.0181
9.7400 6.4632 0.0133
9.7600 6.4765 0.0189
9.7800 6.4898 0.0200
9.8000 6.5031 0.0117
9.8200 6.5165 0.0224
9.8400 6.5298 0.0170
9.8600 6.5431 0.0113
9.8800 6.5565 0.0218
9.9000 6.5698 0.0199
9.9200 6.5831 0.0118
9.9400 6.5964 0.0215
9.9600 6.6098 0.0198
9.9800 6.6231 0.0089
10.0000 6.6364 0.0219
10.0200 6.6497 0.0203
10.0400 6.6631 0.0143
10.0600 6.6764 0.0223
10.0800 6.6898 0.0170
10.1000 6.7032 0.0068
10.1200 6.7165 0.0266
10.1400 6.7298 0.0146
10.1600 6.7432 0.0086
10.1800 6.7565 0.0188
10.2000 6.7698 0.0191
10.2200 6.7831 0.0084
10.2400 6.7965 0.0220
10.2600 6.8098 0.0168
10.2800 6.8231 0.0103
10.3000 6.8364 0.0195
10.3200 6.8498 0.0163
10.3400 6.8631 0.0102
10.3600 6.8764 0.0205
10.3800 6.8898 0.0149
10.4000 6.9031 0.0168
10.4200 6.9165 0.0172
10.4400 6.9298 0.0125
10.4600 6.9432 0.0159
10.4800 6.9565 0.0237
10.5000 6.9698 0.0157
10.5200 6.9832 0.0094
10.5400 6.9965 0.0250
10.5600 7.0098 0.0133
10.5800 7.0231 0.0166
10.6000 7.0364 0.0227
10.6200 7.0498 0.0129
10.6400 7.0631 0.0208
10.6600 7.0764 0.0228
10.6800 7.0898 0.0095
10.7000 7.1031 0.0261
10.7200 7.1165 0.0212
10.7400 7.1298 0.0152
10.7600 7.1431 0.0249
10.7800 7.1564 0.0203
10.8000 7.1698 0.0136
10.8200 7.1832 0.0246
10.8400 7.1965 0.0171
10.8600 7.2098 0.0214
10.8800 7.2232 0.0274
10.9000 7.2365 0.0117
10.9200 7.2498 0.0258
10.9400 7.2631 0.0232
10.9600 7.2765 0.0128
10.9800 7.2898 0.0278
11.0000 7.3031 0.0235
11.0200 7.3164 0.0105
11.0400 7.3297 0.0276
11.0600 7.3431 0.0213
11.0800 7.3564 0.0124
11.1000 7.3698 0.0273
11.1200 7.3831 0.0206
11.1400 7.3965 0.0117
11.1600 7.4099 0.0279
11.1800 7.4232 0.0143
11.2000 7.4365 0.0173
11.2200 7.4498 0.0213
11.2400 7.4632 0.0164
11.2600 7.4765 0.0205
11.2800 7.4898 0.0175
11.3000 7.5031 0.0162
11.3200 7.5165 0.0220
11.3400 7.5298 0.0165
11.3600 7.5431 0.0118
11.3800 7.5565 0.0219
11.4000 7.5698 0.0142
11.4200 7.5831 0.0191
11.4400 7.5964 0.0211
11.4600 7.6098 0.0100
11.4800 7.6231 0.0183
11.5000 7.6365 0.0225
11.5200 7.6498 0.0037
11.5400 7.6632 0.0274
11.5600 7.6765 0.0207
11.5800 7.6898 0.0051
11.6000 7.7032 0.0176
11.6200 7.7165 0.0184
11.6400 7.7298 0.0117
11.6600 7.7431 0.0205
11.6800 7.7564 0.0107
11.7000 7.7698 0.0112
11.7200 7.7831 0.0245
11.7400 7.7964 0.0116
11.7600 7.8097 0.0104
11.7800 7.8231 0.0262
11.8000 7.8364 0.0048
11.8200 7.8498 0.0119
11.8400 7.8631 0.0260
11.8600 7.8764 0.0119
11.8800 7.8898 0.0137
11.9000 7.9031 0.0207
11.9200 7.9164 0.0151
11.9400 7.9298 0.0122
11.9600 7.9431 0.0260
11.9800 7.9565 0.0119
12.0000 7.9698 0.0135
12.0200 7.9832 0.0235
12.0400 7.9965 0.0127
12.0600 8.0098 0.0158
12.0800 8.0231 0.0211
12.1000 8.0364 0.0113
12.1200 8.0497 0.0163
12.1400 8.0630 0.0199
12.1600 8.0764 0.0137
12.1800 8.0897 0.0145
12.2000 8.1031 0.0218
12.2200 8.1164 0.0170
12.2400 8.1299 0.0141
12.2600 8.1432 0.0244
12.2800 8.1565 0.0112
12.3000 8.1699 0.0134
12.3200 8.1832 0.0243
12.3400 8.1965 0.0165
12.3600 8.2098 0.0087
12.3800 8.2231 0.0234
12.4000 8.2364 0.0192
12.4200 8.2498 0.0162
12.4400 8.2631 0.0253
12.4600 8.2764 0.0157
12.4800 8.2897 0.0120
12.5000 8.3031 0.0301
12.5200 8.3164 0.0154
12.5400 8.3298 0.0130
12.5600 8.3431 0.0264
12.5800 8.3565 0.0164
12.6000 8.3698 0.0132
12.6200 8.3832 0.0307
12.6400 8.3965 0.0125
12.6600 8.4099 0.0146
12.6800 8.4232 0.0287
12.7000 8.4365 0.0113
12.7200 8.4498 0.0169
12.7400 8.4631 0.0275
12.7600 8.4764 0.0149
12.7800 8.4898 0.0165
12.8000 8.5031 0.0294
12.8200 8.5164 0.0171
12.8400 8.5297 0.0157
12.8600 8.5431 0.0257
12.8800 8.5564 0.0223
12.9000 8.5698 0.0126
12.9200 8.5831 0.0237
12.9400 8.5965 0.0212
12.9600 8.6098 0.0170
12.9800 8.6232 0.0205
13.0000 8.6365 0.0197
13.0200 8.6498 0.0178
13.0400 8.6632 0.0241
13.0600 8.6765 0.0200
13.0800 8.6898 0.0116
13.1000 8.7032 0.0273
13.1200 8.7165 0.0226
13.1400 8.7298 0.0146
13.1600 8.7431 0.0234
13.1800 8.7564 0.0177
13.2000 8.7697 0.0168
13.2200 8.7831 0.0310
13.2400 8.7964 0.0198
13.2600 8.8098 0.0109
13.2800 8.8231 0.0289
13.3000 8.8365 0.0240
13.3200 8.8499 0.0103
13.3400 8.8632 0.0307
13.3600 8.8765 0.0218
13.3800 8.8898 0.0098
13.4000 8.9032 0.0316
13.4200 8.9165 0.0221
13.4400 8.9298 0.0088
13.4600 8.9431 0.0333
13.4800 8.9564 0.0196
13.5000 8.9698 0.0155
13.5200 8.9831 0.0332
13.5400 8.9964 0.0205
13.5600 9.0098 0.0171
13.5800 9.0231 0.0304
13.6000 9.0364 0.0182
13.6200 9.0497 0.0167
13.6400 9.0631 0.0317
13.6600 9.0764 0.0112
13.6800 9.0898 0.0193
13.7000 9.1032 0.0302
13.7200 9.1165 0.0161
13.7400 9.1298 0.0208
13.7600 9.1432 0.0304
13.7800 9.1565 0.0116
13.8000 9.1699 0.0158
13.8200 9.1832 0.0300
13.8400 9.1964 0.0170
13.8600 9.2098 0.0129
13.8800 9.2231 0.0237
13.9000 9.2364 0.0130
13.9200 9.2497 0.0184
13.9400 9.2631 0.0250
13.9600 9.2764 0.0115
13.9800 9.2898 0.0149
14.0000 9.3031 0.0236
14.0200 9.3164 0.0141
14.0400 9.3298 0.0136
14.0600 9.3432 0.0225
14.0800 9.3565 0.0081
14.1000 9.3698 0.0193
14.1200 9.3831 0.0191
14.1400 9.3965 0.0012
14.1600 9.4098 0.0160
14.1800 9.4231 0.0208
14.2000 9.4365 0.0059
14.2200 9.4498 0.0158
14.2400 9.4632 0.0181
14.2600 9.4765 0.0085
14.2800 9.4897 0.0169
14.3000 9.5030 0.0141
14.3200 9.5164 0.0103
14.3400 9.5297 0.0171
14.3600 9.5431 0.0056
14.3800 9.5564 0.0177
14.4000 9.5698 0.0183
14.4200 9.5832 0.0062
14.4400 9.5965 0.0158
14.4600 9.6099 0.0198
14.4800 9.6232 0.0107
14.5000 9.6365 0.0149
14.5200 9.6498 0.0143
14.5400 9.6631 0.0104
14.5600 9.6764 0.0207
14.5800 9.6897 0.0151
14.6000 9.7031 0.0085
14.6200 9.7164 0.0189
14.6400 9.7297 0.0156
14.6600 9.7431 0.0088
14.6800 9.7565 0.0168
14.7000 9.7698 0.0123
14.7200 9.7831 0.0144
14.7400 9.7965 0.0124
14.7600 9.8098 0.0095
14.7800 9.8232 0.0155
14.8000 9.8365 0.0178
14.8200 9.8498 0.0084
14.8400 9.8631 0.0176
14.8600 9.8765 0.0190
14.8800 9.8898 0.0087
14.9000 9.9031 0.0189
14.9200 9.9164 0.0174
14.9400 9.9298 0.0125
14.9600 9.9431 0.0170
14.9800 9.9564 0.0108
15.0000 9.9697 0.0122
15.0200 9.9831 0.0225
15.0400 9.9964 0.0078
15.0600 10.0098 0.0124
15.0800 10.0231 0.0190
15.1000 10.0365 0.0114
15.1200 10.0498 0.0175
15.1400 10.0632 0.0234
15.1600 10.0765 0.0099
15.1800 10.0898 0.0204
15.2000 10.1032 0.0180
15.2200 10.1165 0.0113
15.2400 10.1299 0.0215
15.2600 10.1431 0.0203
15.2800 10.1564 0.0107
15.3000 10.1698 0.0230
15.3200 10.1831 0.0157
15.3400 10.1964 0.0141
15.3600 10.2097 0.0262
15.3800 10.2230 0.0187
15.4000 10.2364 0.0146
15.4200 10.2498 0.0224
15.4400 10.2631 0.0197
15.4600 10.2764 0.0203
15.4800 10.2898 0.0286
15.5000 10.3032 0.0173
15.5200 10.3165 0.0252
15.5400 10.3299 0.0248
15.5600 10.3432 0.0185
15.5800 10.3565 0.0257
15.6000 10.3699 0.0271
15.6200 10.3831 0.0151
15.6400 10.3964 0.0286
15.6600 10.4098 0.0268
15.6800 10.4231 0.0183
15.7000 10.4364 0.0257
15.7200 10.4498 0.0220
15.7400 10.4631 0.0226
15.7600 10.4764 0.0264
15.7800 10.4898 0.0229
15.8000 10.5031 0.0235
15.8200 10.5164 0.0286
15.8400 10.5298 0.0209
15.8600 10.5431 0.0228
15.8800 10.5565 0.0251
15.9000 10.5698 0.0270
15.9200 10.5831 0.0229
15.9400 10.5965 0.0249
15.9600 10.6099 0.0233
15.9800 10.6232 0.0222
16.0000 10.6365 0.0225
16.0200 10.6498 0.0307
16.0400 10.6631 0.0181
16.0600 10.6764 0.0239
16.0800 10.6897 0.0304
16.1000 10.7031 0.0168
16.1200 10.7164 0.0230
16.1400 10.7298 0.0333
16.1600 10.7431 0.0134
16.1800 10.7564 0.0241
16.2000 10.7698 0.0330
16.2200 10.7832 0.0159
16.2400 10.7965 0.0291
16.2600 10.8098 0.0283
16.2800 10.8231 0.0155
16.3000 10.8365 0.0292
16.3200 10.8498 0.0294
16.3400 10.8632 0.0189
16.3600 10.8765 0.0344
16.3800 10.8898 0.0240
16.4000 10.9031 0.0180
16.4200 10.9165 0.0313
16.4400 10.9298 0.0270
16.4600 10.9431 0.0171
16.4800 10.9564 0.0344
16.5000 10.9698 0.0220
16.5200 10.9831 0.0197
16.5400 10.9964 0.0336
16.5600 11.0098 0.0254
16.5800 11.0232 0.0242
16.6000 11.0365 0.0279
16.6200 11.0498 0.0238
16.6400 11.0632 0.0293
16.6600 11.0765 0.0290
16.6800 11.0899 0.0261
16.7000 11.1031 0.0263
16.7200 11.1164 0.0278
16.7400 11.1297 0.0283
16.7600 11.1431 0.0243
16.7800 11.1564 0.0260
16.8000 11.1697 0.0303
16.8200 11.1831 0.0257
16.8400 11.1964 0.0267
16.8600 11.2098 0.0281
16.8800 11.2232 0.0267
16.9000 11.2365 0.0274
16.9200 11.2498 0.0251
16.9400 11.2632 0.0282
16.9600 11.2765 0.0253
16.9800 11.2898 0.0290
17.0000 11.3031 0.0284
17.0200 11.3165 0.0235
17.0400 11.3298 0.0294
17.0600 11.3432 0.0275
17.0800 11.3565 0.0237
17.1000 11.3698 0.0272
17.1200 11.3832 0.0294
17.1400 11.3965 0.0234
17.1600 11.4098 0.0321
17.1800 11.4231 0.0259
17.2000 11.4364 0.0219
17.2200 11.4498 0.0338
17.2400 11.4631 0.0259
17.2600 11.4764 0.0213
17.2800 11.4898 0.0414
17.3000 11.5031 0.0184
17.3200 11.5165 0.0203
17.3400 11.5298 0.0402
17.3600 11.5431 0.0187
17.3800 11.5565 0.0253
17.4000 11.5699 0.0415
17.4200 11.5832 0.0127
17.4400 11.5965 0.0296
17.4600 11.6098 0.0375
17.4800 11.6232 0.0135
17.5000 11.6365 0.0259
17.5200 11.6498 0.0388
17.5400 11.6631 0.0155
17.5600 11.6764 0.0260
17.5800 11.6897 0.0323
17.6000 11.7031 0.0152
17.6200 11.7164 0.0308
17.6400 11.7298 0.0300
17.6600 11.7432 0.0187
17.6800 11.7565 0.0277
17.7000 11.7698 0.0273
17.7200 11.7832 0.0189
17.7400 11.7965 0.0288
17.7600 11.8099 0.0268
17.7800 11.8232 0.0212
17.8000 11.8365 0.0276
17.8200 11.8498 0.0263
17.8400 11.8631 0.0200
17.8600 11.8765 0.0283
17.8800 11.8898 0.0250
17.9000 11.9031 0.0205
17.9200 11.9164 0.0214
17.9400 11.9298 0.0307
17.9600 11.9431 0.0262
17.9800 11.9565 0.0216
18.0000 11.9698 0.0289
18.0200 11.9831 0.0222
18.0400 11.9965 0.0203
18.0600 12.0098 0.0363
18.0800 12.0231 0.0239
18.1000 12.0365 0.0150
18.1200 12.0499 0.0326
18.1400 12.0632 0.0228
18.1600 12.0765 0.0193
18.1800 12.0898 0.0347
18.2000 12.1031 0.0258
18.2200 12.1165 0.0140
18.2400 12.1298 0.0373
18.2600 12.1431 0.0244
18.2800 12.1564 0.0213
18.3000 12.1697 0.0316
18.3200 12.1831 0.0253
18.3400 12.1964 0.0240
18.3600 12.2098 0.0329
18.3800 12.2232 0.0283
18.4000 12.2365 0.0215
18.4200 12.2498 0.0319
18.4400 12.2632 0.0269
18.4600 12.2765 0.0265
18.4800 12.2899 0.0295
18.5000 12.3032 0.0241
18.5200 12.3165 0.0277
18.5400 12.3298 0.0314
18.5600 12.3431 0.0251
18.5800 12.3565 0.0256
18.6000 12.3698 0.0293
18.6200 12.3831 0.0305
18.6400 12.3964 0.0259
18.6600 12.4098 0.0292
18.6800 12.4231 0.0236
18.7000 12.4364 0.0292
18.7200 12.4498 0.0246
18.7400 12.4632 0.0299
18.7600 12.4765 0.0281
18.7800 12.4898 0.0247
18.8000 12.5031 0.0294
18.8200 12.5165 0.0280
18.8400 12.5299 0.0284
18.8600 12.5432 0.0340
18.8800 12.5565 0.0260
18.9000 12.5698 0.0285
18.9200 12.5831 0.0359
18.9400 12.5964 0.0258
18.9600 12.6097 0.0278
18.9800 12.6231 0.0277
19.0000 12.6364 0.0267
19.0200 12.6498 0.0257
19.0400 12.6631 0.0340
19.0600 12.6764 0.0210
19.0800 12.6898 0.0277
19.1000 12.7031 0.0273
19.1200 12.7165 0.0186
19.1400 12.7298 0.0318
19.1600 12.7431 0.0326
19.1800 12.7564 0.0182
19.2000 12.7698 0.0367
19.2200 12.7832 0.0286
19.2400 12.7965 0.0229
19.2600 12.8098 0.0358
19.2800 12.8232 0.0275
19.3000 12.8365 0.0204
19.3200 12.8498 0.0321
19.3400 12.8631 0.0291
19.3600 12.8764 0.0232
19.3800 12.8897 0.0347
19.4000 12.9031 0.0256
19.4200 12.9164 0.0263
19.4400 12.9298 0.0332
19.4600 12.9431 0.0263
19.4800 12.9565 0.0286
19.5000 12.9699 0.0272
19.5200 12.9832 0.0256
19.5400 12.9965 0.0309
19.5600 13.0099 0.0254
19.5800 13.0232 0.0298
19.6000 13.0365 0.0283
19.6200 13.0498 0.0264
19.6400 13.0631 0.0297
19.6600 13.0764 0.0270
19.6800 13.0898 0.0204
19.7000 13.1030 0.0297
19.7200 13.1164 0.0269
19.7400 13.1297 0.0207
19.7600 13.1431 0.0318
19.7800 13.1564 0.0248
19.8000 13.1698 0.0238
19.8200 13.1831 0.0275
19.8400 13.1965 0.0214
19.8600 13.2099 0.0209
19.8800 13.2232 0.0315
19.9000 13.2365 0.0270
19.9200 13.2499 0.0248
19.9400 13.2632 0.0240
19.9600 13.2765 0.0254
19.9800 13.2898 0.0206
20.0000 13.3031 0.0313
20.0200 13.3165 0.0214
20.0400 13.3298 0.0180
20.0600 13.3431 0.0286
20.0800 13.3564 0.0280
20.1000 13.3698 0.0185
20.1200 13.3831 0.0305
20.1400 13.3965 0.0274
20.1600 13.4098 0.0197
20.1800 13.4231 0.0316
20.2000 13.4365 0.0283
20.2200 13.4498 0.0210
20.2400 13.4631 0.0366
20.2600 13.4765 0.0277
20.2800 13.4898 0.0211
20.3000 13.5032 0.0351
20.3200 13.5165 0.0264
20.3400 13.5298 0.0231
20.3600 13.5431 0.0355
20.3800 13.5565 0.0287
20.4000 13.5698 0.0183
20.4200 13.5831 0.0394
20.4400 13.5964 0.0309
20.4600 13.6097 0.0220
20.4800 13.6231 0.0368
20.5000 13.6364 0.0300
20.5200 13.6498 0.0239
20.5400 13.6632 0.0384
20.5600 13.6765 0.0262
20.5800 13.6899 0.0263
20.6000 13.7032 0.0380
20.6200 13.7165 0.0292
20.6400 13.7298 0.0211
20.6600 13.7432 0.0416
20.6800 13.7565 0.0348
20.7000 13.7698 0.0295
20.7200 13.7831 0.0392
20.7400 13.7964 0.0270
20.7600 13.8098 0.0313
20.7800 13.8231 0.0339
20.8000 13.8364 0.0328
20.8200 13.8498 0.0347
20.8400 13.8631 0.0341
20.8600 13.8764 0.0275
20.8800 13.8898 0.0320
20.9000 13.9031 0.0363
20.9200 13.9165 0.0294
20.9400 13.9299 0.0249
20.9600 13.9432 0.0351
20.9800 13.9565 0.0320
21.0000 13.9699 0.0283
21.0200 13.9832 0.0315
21.0400 13.9965 0.0347
21.0600 14.0098 0.0251
21.0800 14.0231 0.0325
21.1000 14.0365 0.0379
21.1200 14.0498 0.0243
21.1400 14.0631 0.0368
21.1600 14.0764 0.0368
21.1800 14.0897 0.0273
21.2000 14.1031 0.0324
21.2200 14.1164 0.0457
21.2400 14.1298 0.0250
21.2600 14.1431 0.0336
21.2800 14.1565 0.0468
21.3000 14.1699 0.0249
21.3200 14.1832 0.0340
21.3400 14.1965 0.0450
21.3600 14.2098 0.0239
21.3800 14.2232 0.0360
21.4000 14.2365 0.0435
21.4200 14.2498 0.0292
21.4400 14.2631 0.0362
21.4600 14.2765 0.0417
21.4800 14.2898 0.0215
21.5000 14.3031 0.0397
21.5200 14.3164 0.0398
21.5400 14.3297 0.0209
21.5600 14.3430 0.0442
21.5800 14.3564 0.0357
21.6000 14.3697 0.0205
21.6200 14.3831 0.0451
21.6400 14.3965 0.0362
21.6600 14.4099 0.0187
21.6800 14.4232 0.0450
21.7000 14.4365 0.0338
21.7200 14.4499 0.0255
21.7400 14.4632 0.0495
21.7600 14.4765 0.0326
21.7800 14.4898 0.0239
21.8000 14.5031 0.0535
21.8200 14.5164 0.0274
21.8400 14.5297 0.0352
21.8600 14.5431 0.0527
21.8800 14.5564 0.0305
21.9000 14.5698 0.0355
21.9200 14.5831 0.0500
21.9400 14.5965 0.0321
21.9600 14.6098 0.0400
21.9800 14.6231 0.0531
22.0000 14.6365 0.0337
22.0200 14.6499 0.0412
22.0400 14.6632 0.0464
22.0600 14.6765 0.0333
22.0800 14.6898 0.0498
22.1000 14.7032 0.0475
22.1200 14.7165 0.0385
22.1400 14.7298 0.0495
22.1600 14.7431 0.0383
22.1800 14.7565 0.0532
22.2000 14.7698 0.0494
22.2200 14.7831 0.0320
22.2400 14.7964 0.0472
22.2600 14.8098 0.0552
22.2800 14.8231 0.0329
22.3000 14.8365 0.0482
22.3200 14.8498 0.0501
22.3400 14.8632 0.0348
22.3600 14.8765 0.0528
22.3800 14.8899 0.0408
22.4000 14.9032 0.0283
22.4200 14.9165 0.0572
22.4400 14.9298 0.0412
22.4600 14.9432 0.0336
22.4800 14.9565 0.0540
22.5000 14.9698 0.0347
22.5200 14.9831 0.0443
22.5400 14.9964 0.0470
22.5600 15.0098 0.0308
22.5800 15.0231 0.0429
22.6000 15.0364 0.0503
22.6200 15.0497 0.0292
22.6400 15.0631 0.0419
22.6600 15.0764 0.0480
22.6800 15.0898 0.0353
22.7000 15.1031 0.0445
22.7200 15.1165 0.0465
22.7400 15.1299 0.0314
22.7600 15.1432 0.0415
22.7800 15.1565 0.0426
22.8000 15.1698 0.0400
22.8200 15.1832 0.0409
22.8400 15.1965 0.0410
22.8600 15.2098 0.0434
22.8800 15.2231 0.0428
22.9000 15.2364 0.0387
22.9200 15.2498 0.0427
22.9400 15.2631 0.0407
22.9600 15.2764 0.0340
22.9800 15.2898 0.0462
23.0000 15.3031 0.0405
23.0200 15.3164 0.0370
23.0400 15.3298 0.0457
23.0600 15.3431 0.0396
23.0800 15.3565 0.0382
23.1000 15.3698 0.0430
23.1200 15.3831 0.0283
23.1400 15.3965 0.0437
23.1600 15.4098 0.0474
23.1800 15.4232 0.0336
23.2000 15.4365 0.0391
23.2200 15.4498 0.0468
23.2400 15.4631 0.0327
23.2600 15.4764 0.0371
23.2800 15.4898 0.0476
23.3000 15.5031 0.0323
23.3200 15.5164 0.0398
23.3400 15.5297 0.0432
23.3600 15.5431 0.0326
23.3800 15.5564 0.0376
23.4000 15.5698 0.0415
23.4200 15.5831 0.0351
23.4400 15.5965 0.0347
23.4600 15.6099 0.0417
23.4800 15.6232 0.0364
23.5000 15.6365 0.0367
23.5200 15.6498 0.0437
23.5400 15.6632 0.0290
23.5600 15.6765 0.0373
23.5800 15.6898 0.0396
23.6000 15.7031 0.0358
23.6200 15.7165 0.0360
23.6400 15.7298 0.0376
23.6600 15.7431 0.0342
23.6800 15.7564 0.0349
23.7000 15.7697 0.0434
23.7200 15.7831 0.0335
23.7400 15.7964 0.0350
23.7600 15.8097 0.0495
23.7800 15.8231 0.0349
23.8000 15.8365 0.0321
23.8200 15.8499 0.0482
23.8400 15.8632 0.0336
23.8600 15.8765 0.0374
23.8800 15.8898 0.0446
23.9000 15.9032 0.0406
23.9200 15.9165 0.0341
23.9400 15.9298 0.0485
23.9600 15.9431 0.0360
23.9800 15.9564 0.0377
24.0000 15.9698 0.0503
24.0200 15.9831 0.0341
24.0400 15.9964 0.0347
24.0600 16.0097 0.0482
24.0800 16.0231 0.0359
24.1000 16.0365 0.0358
24.1200 16.0498 0.0464
24.1400 16.0631 0.0368
24.1600 16.0765 0.0343
24.1800 16.0898 0.0437
24.2000 16.1032 0.0347
24.2200 16.1165 0.0379
24.2400 16.1298 0.0489
24.2600 16.1431 0.0346
24.2800 16.1565 0.0384
24.3000 16.1698 0.0442
24.3200 16.1831 0.0376
24.3400 16.1965 0.0370
24.3600 16.2098 0.0483
24.3800 16.2231 0.0365
24.4000 16.2364 0.0365
24.4200 16.2497 0.0512
24.4400 16.2631 0.0368
24.4600 16.2764 0.0375
24.4800 16.2897 0.0534
24.5000 16.3031 0.0342
24.5200 16.3164 0.0387
24.5400 16.3298 0.0489
24.5600 16.3432 0.0374
24.5800 16.3565 0.0434
24.6000 16.3698 0.0519
24.6200 16.3832 0.0396
24.6400 16.3965 0.0376
24.6600 16.4098 0.0507
24.6800 16.4232 0.0407
24.7000 16.4365 0.0424
24.7200 16.4498 0.0490
24.7400 16.4631 0.0436
24.7600 16.4764 0.0433
24.7800 16.4897 0.0513
24.8000 16.5031 0.0480
24.8200 16.5164 0.0409
24.8400 16.5298 0.0532
24.8600 16.5431 0.0521
24.8800 16.5565 0.0328
24.9000 16.5698 0.0581
24.9200 16.5832 0.0451
24.9400 16.5965 0.0349
24.9600 16.6099 0.0554
24.9800 16.6232 0.0436
25.0000 16.6365 0.0434
25.0200 16.6498 0.0553
25.0400 16.6631 0.0408
25.0600 16.6764 0.0464
25.0800 16.6898 0.0594
25.1000 16.7031 0.0370
25.1200 16.7164 0.0452
25.1400 16.7297 0.0583
25.1600 16.7431 0.0404
25.1800 16.7565 0.0417
25.2000 16.7698 0.0571
25.2200 16.7831 0.0395
25.2400 16.7964 0.0480
25.2600 16.8098 0.0509
25.2800 16.8232 0.0438
25.3000 16.8365 0.0457
25.3200 16.8498 0.0477
25.3400 16.8632 0.0443
25.3600 16.8765 0.0456
25.3800 16.8899 0.0469
25.4000 16.9031 0.0472
25.4200 16.9165 0.0460
25.4400 16.9298 0.0424
25.4600 16.9431 0.0439
25.4800 16.9564 0.0471
25.5000 16.9697 0.0448
25.5200 16.9830 0.0465
25.5400 16.9964 0.0478
25.5600 17.0097 0.0393
25.5800 17.0231 0.0456
25.6000 17.0365 0.0447
25.6200 17.0499 0.0475
25.6400 17.0632 0.0414
25.6600 17.0765 0.0426
25.6800 17.0898 0.0485
25.7000 17.1032 0.0466
25.7200 17.1165 0.0423
25.7400 17.1298 0.0522
25.7600 17.1431 0.0467
25.7800 17.1564 0.0435
25.8000 17.1698 0.0524
25.8200 17.1831 0.0466
25.8400 17.1965 0.0437
25.8600 17.2098 0.0564
25.8800 17.2231 0.0425
25.9000 17.2364 0.0451
25.9200 17.2498 0.0556
25.9400 17.2631 0.0428
25.9600 17.2765 0.0478
25.9800 17.2899 0.0508
26.0000 17.3032 0.0413
26.0200 17.3165 0.0488
26.0400 17.3298 0.0533
26.0600 17.3432 0.0450
26.0800 17.3565 0.0531
26.1000 17.3698 0.0530
26.1200 17.3831 0.0441
26.1400 17.3964 0.0511
26.1600 17.4098 0.0527
26.1800 17.4231 0.0447
26.2000 17.4364 0.0520
26.2200 17.4497 0.0486
26.2400 17.4631 0.0504
26.2600 17.4765 0.0492
26.2800 17.4898 0.0465
26.3000 17.5031 0.0544
26.3200 17.5165 0.0493
26.3400 17.5298 0.0455
26.3600 17.5432 0.0522
26.3800 17.5565 0.0471
26.4000 17.5698 0.0466
26.4200 17.5831 0.0529
26.4400 17.5965 0.0443
26.4600 17.6098 0.0448
26.4800 17.6231 0.0529
26.5000 17.6365 0.0495
26.5200 17.6498 0.0456
26.5400 17.6632 0.0504
26.5600 17.6764 0.0454
26.5800 17.6897 0.0481
26.6000 17.7030 0.0542
26.6200 17.7164 0.0482
26.6400 17.7297 0.0438
26.6600 17.7431 0.0557
26.6800 17.7564 0.0436
26.7000 17.7698 0.0473
26.7200 17.7832 0.0550
26.7400 17.7965 0.0400
26.7600 17.8098 0.0532
26.7800 17.8232 0.0575
26.8000 17.8365 0.0439
26.8200 17.8499 0.0527
26.8400 17.8631 0.0547
26.8600 17.8764 0.0498
26.8800 17.8898 0.0575
26.9000 17.9031 0.0529
26.9200 17.9164 0.0495
26.9400 17.9297 0.0558
26.9600 17.9430 0.0573
26.9800 17.9564 0.0488
27.0000 17.9697 0.0596
27.0200 17.9831 0.0546
27.0400 17.9964 0.0495
27.0600 18.0098 0.0561
27.0800 18.0232 0.0510
27.1000 18.0365 0.0513
27.1200 18.0498 0.0572
27.1400 18.0632 0.0506
27.1600 18.0765 0.0595
27.1800 18.0898 0.0507
27.2000 18.1031 0.0503
27.2200 18.1164 0.0570
27.2400 18.1298 0.0515
27.2600 18.1431 0.0492
27.2800 18.1564 0.0566
27.3000 18.1697 0.0506
27.3200 18.1831 0.0427
27.3400 18.1964 0.0615
27.3600 18.2098 0.0461
27.3800 18.2231 0.0478
27.4000 18.2364 0.0582
27.4200 18.2498 0.0464
27.4400 18.2632 0.0460
27.4600 18.2765 0.0571
27.4800 18.2898 0.0435
27.5000 18.3032 0.0471
27.5200 18.3165 0.0523
27.5400 18.3299 0.0419
27.5600 18.3432 0.0470
27.5800 18.3565 0.0559
27.6000 18.3698 0.0416
27.6200 18.3832 0.0494
27.6400 18.3965 0.0553
27.6600 18.4097 0.0400
27.6800 18.4231 0.0497
27.7000 18.4364 0.0529
27.7200 18.4498 0.0360
27.7400 18.4631 0.0498
27.7600 18.4765 0.0541
27.7800 18.4898 0.0344
27.8000 18.5032 0.0472
27.8200 18.5165 0.0515
27.8400 18.5298 0.0384
27.8600 18.5432 0.0510
27.8800 18.5565 0.0518
27.9000 18.5698 0.0369
27.9200 18.5831 0.0554
27.9400 18.5964 0.0468
27.9600 18.6098 0.0425
27.9800 18.6231 0.0471
28.0000 18.6364 0.0500
28.0200 18.6498 0.0422
28.0400 18.6631 0.0487
28.0600 18.6764 0.0505
28.0800 18.6898 0.0429
28.1000 18.7031 0.0467
28.1200 18.7164 0.0469
28.1400 18.7298 0.0453
28.1600 18.7432 0.0478
28.1800 18.7565 0.0466
28.2000 18.7698 0.0452
28.2200 18.7832 0.0467
28.2400 18.7965 0.0514
28.2600 18.8099 0.0454
28.2800 18.8232 0.0441
28.3000 18.8365 0.0547
28.3200 18.8498 0.0410
28.3400 18.8631 0.0473
28.3600 18.8764 0.0534
28.3800 18.8897 0.0445
28.4000 18.9031 0.0441
28.4200 18.9164 0.0564
28.4400 18.9298 0.0409
28.4600 18.9431 0.0465
28.4800 18.9564 0.0609
28.5000 18.9698 0.0374
28.5200 18.9832 0.0484
28.5400 18.9965 0.0596
28.5600 19.0098 0.0396
28.5800 19.0231 0.0537
28.6000 19.0365 0.0622
28.6200 19.0498 0.0409
28.6400 19.0632 0.0586
28.6600 19.0765 0.0592
28.6800 19.0898 0.0459
28.7000 19.1032 0.0608
28.7200 19.1165 0.0594
28.7400 19.1297 0.0457
28.7600 19.1430 0.0641
28.7800 19.1564 0.0624
28.8000 19.1697 0.0502
28.8200 19.1831 0.0662
28.8400 19.1964 0.0642
28.8600 19.2098 0.0517
28.8800 19.2232 0.0659
28.9000 19.2365 0.0589
28.9200 19.2499 0.0611
28.9400 19.2632 0.0621
28.9600 19.2766 0.0619
28.9800 19.2899 0.0607
29.0000 19.3032 0.0580
29.0200 19.3164 0.0694
29.0400 19.3298 0.0592
29.0600 19.3431 0.0562
29.0800 19.3564 0.0665
29.1000 19.3697 0.0602
29.1200 19.3831 0.0589
29.1400 19.3965 0.0683
29.1600 19.4098 0.0607
29.1800 19.4231 0.0606
29.2000 19.4365 0.0673
29.2200 19.4498 0.0614
29.2400 19.4632 0.0621
29.2600 19.4765 0.0672
29.2800 19.4898 0.0557
29.3000 19.5031 0.0642
29.3200 19.5165 0.0666
29.3400 19.5298 0.0535
29.3600 19.5431 0.0626
29.3800 19.5564 0.0687
29.4000 19.5698 0.0566
29.4200 19.5831 0.0602
29.4400 19.5965 0.0647
29.4600 19.6098 0.0571
29.4800 19.6231 0.0638
29.5000 19.6364 0.0611
29.5200 19.6498 0.0584
29.5400 19.6631 0.0588
29.5600 19.6764 0.0657
29.5800 19.6898 0.0547
29.6000 19.7032 0.0592
29.6200 19.7165 0.0676
29.6400 19.7298 0.0560
29.6600 19.7431 0.0561
29.6800 19.7565 0.0726
29.7000 19.7698 0.0541
29.7200 19.7831 0.0622
29.7400 19.7964 0.0702
29.7600 19.8098 0.0561
29.7800 19.8231 0.0659
29.8000 19.8365 0.0670
29.8200 19.8497 0.0577
29.8400 19.8630 0.0663
29.8600 19.8764 0.0661
29.8800 19.8898 0.0586
29.9000 19.9031 0.0662
29.9200 19.9164 0.0613
29.9400 19.9298 0.0551
29.9600 19.9432 0.0655
29.9800 19.9565 0.0632
30.0000 19.9699 0.0557
30.0200 19.9832 0.0674
30.0400 19.9965 0.0588
30.0600 20.0098 0.0591
30.0800 20.0231 0.0607
30.1000 20.0364 0.0612
30.1200 20.0498 0.0568
30.1400 20.0631 0.0602
30.1600 20.0765 0.0621
30.1800 20.0898 0.0615
30.2000 20.1031 0.0583
30.2200 20.1164 0.0632
30.2400 20.1298 0.0584
30.2600 20.1431 0.0569
30.2800 20.1564 0.0678
30.3000 20.1698 0.0585
30.3200 20.1831 0.0574
30.3400 20.1965 0.0677
30.3600 20.2098 0.0578
30.3800 20.2231 0.0605
30.4000 20.2365 0.0673
30.4200 20.2499 0.0575
30.4400 20.2632 0.0634
30.4600 20.2765 0.0638
30.4800 20.2898 0.0625
30.5000 20.3031 0.0620
30.5200 20.3164 0.0658
30.5400 20.3297 0.0615
30.5600 20.3431 0.0683
30.5800 20.3564 0.0674
30.6000 20.3698 0.0659
30.6200 20.3831 0.0656
30.6400 20.3965 0.0740
30.6600 20.4098 0.0696
30.6800 20.4232 0.0668
30.7000 20.4365 0.0728
30.7200 20.4498 0.0730
30.7400 20.4631 0.0677
30.7600 20.4765 0.0707
30.7800 20.4898 0.0779
30.8000 20.5032 0.0693
30.8200 20.5165 0.0702
30.8400 20.5298 0.0812
30.8600 20.5431 0.0690
30.8800 20.5565 0.0701
30.9000 20.5698 0.0775
30.9200 20.5831 0.0710
30.9400 20.5964 0.0736
30.9600 20.6097 0.0737
30.9800 20.6231 0.0700
31.0000 20.6364 0.0744
31.0200 20.6498 0.0793
31.0400 20.6632 0.0872
31.0600 20.6765 0.1249
31.0800 20.6898 0.1401
31.1000 20.7032 0.1243
31.1200 20.7165 0.1150
31.1400 20.7298 0.1091
31.1600 20.7431 0.1001
31.1800 20.7564 0.1036
31.2000 20.7697 0.1064
31.2200 20.7831 0.1022
31.2400 20.7964 0.0945
31.2600 20.8097 0.1054
31.2800 20.8231 0.1023
31.3000 20.8364 0.0981
31.3200 20.8498 0.1137
31.3400 20.8632 0.1069
31.3600 20.8765 0.1105
31.3800 20.8898 0.1176
31.4000 20.9032 0.1172
31.4200 20.9165 0.1031
31.4400 20.9298 0.1155
31.4600 20.9431 0.1113
31.4800 20.9565 0.1092
31.5000 20.9698 0.1194
31.5200 20.9832 0.1183
31.5400 20.9965 0.1118
31.5600 21.0098 0.1215
31.5800 21.0232 0.1138
31.6000 21.0365 0.1121
31.6200 21.0498 0.1191
31.6400 21.0631 0.1166
31.6600 21.0764 0.1121
31.6800 21.0898 0.1194
31.7000 21.1031 0.1109
31.7200 21.1164 0.1074
31.7400 21.1297 0.1157
31.7600 21.1431 0.1091
31.7800 21.1565 0.1075
31.8000 21.1698 0.1109
31.8200 21.1831 0.1133
31.8400 21.1965 0.1051
31.8600 21.2099 0.1159
31.8800 21.2232 0.1113
31.9000 21.2365 0.0983
31.9200 21.2498 0.1197
31.9400 21.2631 0.1157
31.9600 21.2765 0.1010
31.9800 21.2898 0.1202
32.0000 21.3031 0.1087
32.0200 21.3164 0.1032
32.0400 21.3297 0.1189
32.0600 21.3431 0.1026
32.0800 21.3564 0.1022
32.1000 21.3698 0.1181
32.1200 21.3832 0.1009
32.1400 21.3965 0.1019
32.1600 21.4098 0.1240
32.1800 21.4231 0.1038
32.2000 21.4365 0.0961
32.2200 21.4498 0.1190
32.2400 21.4632 0.1016
32.2600 21.4764 0.0991
32.2800 21.4898 0.1150
32.3000 21.5031 0.1038
32.3200 21.5165 0.1063
32.3400 21.5298 0.1118
32.3600 21.5431 0.1094
32.3800 21.5564 0.1035
32.4000 21.5698 0.1113
32.4200 21.5831 0.0986
32.4400 21.5964 0.1045
32.4600 21.6098 0.1115
32.4800 21.6231 0.1034
32.5000 21.6365 0.1026
32.5200 21.6498 0.1104
32.5400 21.6632 0.1056
32.5600 21.6765 0.0983
32.5800 21.6899 0.1126
32.6000 21.7032 0.1043
32.6200 21.7165 0.1035
32.6400 21.7298 0.1150
32.6600 21.7431 0.1055
32.6800 21.7565 0.1077
32.7000 21.7698 0.1160
32.7200 21.7831 0.1016
32.7400 21.7964 0.1068
32.7600 21.8097 0.1085
32.7800 21.8231 0.1029
32.8000 21.8364 0.1036
32.8200 21.8498 0.1121
32.8400 21.8632 0.0998
32.8600 21.8765 0.1010
32.8800 21.8899 0.1069
32.9000 21.9032 0.1048
32.9200 21.9165 0.0989
32.9400 21.9299 0.1057
32.9600 21.9432 0.1067
32.9800 21.9565 0.1003
33.0000 21.9698 0.1100
33.0200 21.9831 0.1087
33.0400 21.9965 0.0980
33.0600 22.0098 0.1090
33.0800 22.0231 0.1039
33.1000 22.0364 0.0948
33.1200 22.0498 0.1108
33.1400 22.0631 0.1020
33.1600 22.0764 0.1008
33.1800 22.0898 0.1061
33.2000 22.1031 0.1007
33.2200 22.1165 0.0975
33.2400 22.1298 0.1088
33.2600 22.1431 0.0995
33.2800 22.1565 0.0992
33.3000 22.1698 0.1056
33.3200 22.1832 0.0982
33.3400 22.1965 0.1010
33.3600 22.2098 0.1046
33.3800 22.2231 0.1016
33.4000 22.2364 0.0985
33.4200 22.2498 0.0990
33.4400 22.2631 0.1031
33.4600 22.2764 0.1029
33.4800 22.2898 0.0985
33.5000 22.3031 0.1042
33.5200 22.3164 0.0971
33.5400 22.3298 0.1015
33.5600 22.3431 0.1012
33.5800 22.3565 0.1016
33.6000 22.3698 0.1018
33.6200 22.3831 0.1042
33.6400 22.3964 0.0987
33.6600 22.4098 0.1049
33.6800 22.4232 0.1000
33.7000 22.4365 0.1018
33.7200 22.4498 0.1012
33.7400 22.4632 0.1031
33.7600 22.4765 0.0986
33.7800 22.4898 0.1015
33.8000 22.5031 0.1046
33.8200 22.5164 0.0987
33.8400 22.5297 0.1043
33.8600 22.5431 0.1017
33.8800 22.5564 0.0973
33.9000 22.5697 0.1074
33.9200 22.5831 0.1032
33.9400 22.5965 0.0977
33.9600 22.6099 0.1036
33.9800 22.6232 0.1036
34.0000 22.6365 0.1015
34.0200 22.6499 0.1011
34.0400 22.6632 0.1016
34.0600 22.6765 0.1006
34.0800 22.6898 0.1092
34.1000 22.7031 0.1057
34.1200 22.7164 0.1039
34.1400 22.7297 0.1017
34.1600 22.7430 0.1025
34.1800 22.7564 0.1024
34.2000 22.7697 0.1083
34.2200 22.7831 0.1045
34.2400 22.7964 0.0989
34.2600 22.8098 0.1048
34.2800 22.8231 0.1059
34.3000 22.8365 0.0998
34.3200 22.8499 0.1050
34.3400 22.8632 0.1042
34.3600 22.8765 0.1003
34.3800 22.8899 0.1044
34.4000 22.9032 0.1025
34.4200 22.9165 0.1038
34.4400 22.9298 0.1087
34.4600 22.9431 0.1026
34.4800 22.9565 0.1026
34.5000 22.9698 0.1051
34.5200 22.9831 0.1028
34.5400 22.9964 0.1022
34.5600 23.0097 0.1022
34.5800 23.0231 0.1062
34.6000 23.0364 0.1012
34.6200 23.0497 0.1035
34.6400 23.0631 0.1058
34.6600 23.0765 0.1034
34.6800 23.0898 0.1043
34.7000 23.1032 0.1041
34.7200 23.1165 0.1031
34.7400 23.1298 0.1039
34.7600 23.1432 0.1049
34.7800 23.1565 0.1002
34.8000 23.1698 0.1052
34.8200 23.1831 0.1061
34.8400 23.1965 0.0998
34.8600 23.2098 0.1026
34.8800 23.2231 0.1031
34.9000 23.2364 0.1013
34.9200 23.2497 0.1049
34.9400 23.2631 0.1005
34.9600 23.2764 0.1022
34.9800 23.2898 0.1048
35.0000 23.3031 0.1047
35.0200 23.3165 0.1024
35.0400 23.3299 0.1028
35.0600 23.3432 0.1026
35.0800 23.3565 0.1076
35.1000 23.3698 0.1040
35.1200 23.3832 0.0974
35.1400 23.3965 0.1072
35.1600 23.4098 0.1077
35.1800 23.4231 0.0951
35.2000 23.4365 0.1094
35.2200 23.4498 0.1090
35.2400 23.4631 0.0959
35.2600 23.4764 0.1125
35.2800 23.4897 0.1063
35.3000 23.5031 0.0985
35.3200 23.5164 0.1122
35.3400 23.5298 0.1030
35.3600 23.5431 0.1004
35.3800 23.5565 0.1169
35.4000 23.5698 0.0971
35.4200 23.5832 0.1015
35.4400 23.5965 0.1181
35.4600 23.6099 0.1021
35.4800 23.6232 0.0973
35.5000 23.6365 0.1169
35.5200 23.6498 0.1013
35.5400 23.6631 0.1026
35.5600 23.6765 0.1134
35.5800 23.6898 0.0995
35.6000 23.7031 0.1033
35.6200 23.7164 0.1134
35.6400 23.7298 0.0993
35.6600 23.7431 0.1043
35.6800 23.7564 0.1090
35.7000 23.7698 0.0976
35.7200 23.7831 0.1048
35.7400 23.7965 0.1081
35.7600 23.8099 0.0993
35.7800 23.8232 0.1067
35.8000 23.8365 0.1130
35.8200 23.8498 0.0954
35.8400 23.8632 0.1047
35.8600 23.8765 0.1118
35.8800 23.8898 0.0970
35.9000 23.9031 0.1028
35.9200 23.9165 0.1115
35.9400 23.9298 0.0937
35.9600 23.9431 0.1038
35.9800 23.9564 0.1105
36.0000 23.9697 0.1017
36.0200 23.9830 0.0994
36.0400 23.9964 0.1086
36.0600 24.0097 0.1021
36.0800 24.0231 0.1044
36.1000 24.0365 0.1083
36.1200 24.0499 0.1002
36.1400 24.0632 0.1090
36.1600 24.0765 0.1078
36.1800 24.0899 0.0977
36.2000 24.1032 0.1081
36.2200 24.1165 0.1093
36.2400 24.1298 0.0979
36.2600 24.1431 0.1084
36.2800 24.1564 0.1120
36.3000 24.1698 0.0968
36.3200 24.1831 0.1041
36.3400 24.1964 0.1180
36.3600 24.2097 0.0956
36.3800 24.2231 0.1116
36.4000 24.2365 0.1088
36.4200 24.2498 0.0998
36.4400 24.2631 0.1087
36.4600 24.2765 0.1061
36.4800 24.2899 0.1055
36.5000 24.3032 0.1076
36.5200 24.3165 0.1048
36.5400 24.3298 0.1019
36.5600 24.3432 0.1069
36.5800 24.3565 0.1019
36.6000 24.3698 0.1026
36.6200 24.3831 0.1068
36.6400 24.3964 0.1039
36.6600 24.4098 0.1017
36.6800 24.4231 0.1059
36.7000 24.4364 0.1005
36.7200 24.4497 0.1067
36.7400 24.4631 0.1024
36.7600 24.4765 0.1039
36.7800 24.4898 0.1046
36.8000 24.5031 0.1068
36.8200 24.5165 0.1035
36.8400 24.5298 0.1056
36.8600 24.5432 0.1013
36.8800 24.5565 0.1059
36.9000 24.5698 0.1045
36.9200 24.5832 0.0975
36.9400 24.5965 0.1050
36.9600 24.6098 0.1061
36.9800 24.6231 0.0990
37.0000 24.6365 0.1071
37.0200 24.6498 0.1076
37.0400 24.6631 0.1022
37.0600 24.6764 0.1082
37.0800 24.6897 0.1068
37.1000 24.7031 0.1043
37.1200 24.7164 0.1053
37.1400 24.7298 0.1071
37.1600 24.7431 0.1017
37.1800 24.7565 0.1087
37.2000 24.7699 0.1032
37.2200 24.7832 0.1062
37.2400 24.7965 0.1040
37.2600 24.8098 0.1050
37.2800 24.8232 0.1030
37.3000 24.8365 0.1075
37.3200 24.8498 0.1079
37.3400 24.8631 0.1051
37.3600 24.8765 0.1027
37.3800 24.8898 0.1080
37.4000 24.9031 0.1047
37.4200 24.9164 0.1023
37.4400 24.9298 0.1108
37.4600 24.9431 0.1049
37.4800 24.9564 0.1065
37.5000 24.9698 0.1074
37.5200 24.9831 0.1099
37.5400 24.9964 0.1047
37.5600 25.0098 0.1094
37.5800 25.0231 0.1022
37.6000 25.0365 0.1045
37.6200 25.0498 0.1100
37.6400 25.0632 0.1064
37.6600 25.0765 0.1053
37.6800 25.0898 0.1120
37.7000 25.1031 0.1057
37.7200 25.1165 0.1091
37.7400 25.1298 0.1066
37.7600 25.1431 0.1070
37.7800 25.1564 0.1041
37.8000 25.1697 0.1088
37.8200 25.1831 0.1032
37.8400 25.1964 0.1022
37.8600 25.2098 0.1089
37.8800 25.2231 0.1063
37.9000 25.2365 0.1043
37.9200 25.2499 0.1039
37.9400 25.2632 0.1066
37.9600 25.2765 0.1006
37.9800 25.2898 0.1039
38.0000 25.3032 0.1087
38.0200 25.3165 0.1020
38.0400 25.3298 0.1029
38.0600 25.3431 0.1133
38.0800 25.3564 0.0995
38.1000 25.3698 0.1042
38.1200 25.3831 0.1114
38.1400 25.3964 0.1011
38.1600 25.4097 0.1005
38.1800 25.4231 0.1102
38.2000 25.4364 0.0996
38.2200 25.4497 0.1037
38.2400 25.4631 0.1074
38.2600 25.4765 0.0995
38.2800 25.4898 0.1090
38.3000 25.5032 0.1027
38.3200 25.5165 0.0971
38.3400 25.5298 0.1111
38.3600 25.5432 0.1063
38.3800 25.5565 0.0970
38.4000 25.5698 0.1054
38.4200 25.5831 0.1031
38.4400 25.5964 0.1056
38.4600 25.6097 0.1047
38.4800 25.6231 0.1036
38.5000 25.6364 0.1039
38.5200 25.6497 0.1089
38.5400 25.6631 0.1005
38.5600 25.6765 0.1027
38.5800 25.6898 0.1114
38.6000 25.7031 0.1020
38.6200 25.7165 0.1000
38.6400 25.7298 0.1063
38.6600 25.7432 0.1051
38.6800 25.7565 0.1018
38.7000 25.7698 0.1001
38.7200 25.7832 0.1051
38.7400 25.7965 0.1025
38.7600 25.8098 0.1034
38.7800 25.8232 0.1050
38.8000 25.8365 0.1022
38.8200 25.8498 0.1019
38.8400 25.8631 0.1023
38.8600 25.8764 0.1064
38.8800 25.8898 0.1006
38.9000 25.9031 0.1084
38.9200 25.9164 0.0945
38.9400 25.9297 0.1036
38.9600 25.9431 0.1076
38.9800 25.9564 0.0992
39.0000 25.9698 0.1031
39.0200 25.9832 0.1084
39.0400 25.9965 0.0956
39.0600 26.0098 0.1063
39.0800 26.0231 0.1089
39.1000 26.0365 0.0977
39.1200 26.0498 0.1044
39.1400 26.0631 0.1115
39.1600 26.0765 0.0962
39.1800 26.0898 0.1032
39.2000 26.1031 0.1114
39.2200 26.1164 0.0948
39.2400 26.1297 0.1089
39.2600 26.1431 0.1071
39.2800 26.1564 0.0944
39.3000 26.1697 0.1104
39.3200 26.1831 0.1006
39.3400 26.1965 0.0958
39.3600 26.2099 0.1127
39.3800 26.2232 0.1007
39.4000 26.2365 0.0965
39.4200 26.2499 0.1134
39.4400 26.2632 0.1013
39.4600 26.2765 0.0932
39.4800 26.2898 0.1163
39.5000 26.3031 0.0985
39.5200 26.3164 0.0976
39.5400 26.3298 0.1121
39.5600 26.3431 0.0984
39.5800 26.3564 0.0998
39.6000 26.3697 0.1149
39.6200 26.3831 0.0993
39.6400 26.3965 0.1037
39.6600 26.4098 0.1136
39.6800 26.4231 0.1018
39.7000 26.4365 0.1066
39.7200 26.4498 0.1085
39.7400 26.4632 0.1013
39.7600 26.4765 0.1053
39.7800 26.4898 0.1046
39.8000 26.5032 0.1019
39.8200 26.5166 0.1059
39.8400 26.5299 0.1068
39.8600 26.5431 0.1081
39.8800 26.5564 0.1023
39.9000 26.5698 0.1044
39.9200 26.5831 0.1061
39.9400 26.5964 0.1055
39.9600 26.6097 0.1018
39.9800 26.6230 0.1070
40.0000 26.6364 0.1025
40.0200 26.6497 0.1063
40.0400 26.6631 0.1086
40.0600 26.6765 0.1010
40.0800 26.6898 0.1052
40.1000 26.7032 0.1053
40.1200 26.7165 0.1012
40.1400 26.7298 0.1050
40.1600 26.7432 0.1060
40.1800 26.7565 0.0987
40.2000 26.7698 0.1071
40.2200 26.7831 0.1072
40.2400 26.7964 0.1004
40.2600 26.8098 0.1041
40.2800 26.8231 0.1079
40.3000 26.8365 0.0981
40.3200 26.8498 0.1108
40.3400 26.8631 0.1046
40.3600 26.8764 0.1026
40.3800 26.8897 0.1077
40.4000 26.9031 0.1036
40.4200 26.9164 0.0996
40.4400 26.9298 0.1060
40.4600 26.9432 0.1025
40.4800 26.9565 0.1014
40.5000 26.9698 0.1057
40.5200 26.9832 0.0989
40.5400 26.9965 0.1043
40.5600 27.0098 0.1098
40.5800 27.0231 0.1023
40.6000 27.0364 0.1008
40.6200 27.0498 0.1118
40.6400 27.0631 0.1022
40.6600 27.0764 0.0996
40.6800 27.0897 0.1098
40.7000 27.1031 0.1071
40.7200 27.1164 0.1045
40.7400 27.1298 0.1035
40.7600 27.1431 0.1055
40.7800 27.1565 0.1041
40.8000 27.1698 0.1064
40.8200 27.1831 0.1063
40.8400 27.1965 0.0982
40.8600 27.2098 0.1131
40.8800 27.2231 0.1066
40.9000 27.2365 0.0967
40.9200 27.2498 0.1040
40.9400 27.2631 0.1086
40.9600 27.2765 0.1011
40.9800 27.2898 0.1041
41.0000 27.3032 0.1099
41.0200 27.3165 0.0983
41.0400 27.3298 0.1079
41.0600 27.3431 0.1063
41.0800 27.3564 0.0975
41.1000 27.3697 0.1116
41.1200 27.3831 0.1081
41.1400 27.3964 0.0999
41.1600 27.4098 0.1101
41.1800 27.4232 0.1020
41.2000 27.4365 0.1027
41.2200 27.4499 0.1056
41.2400 27.4632 0.1062
41.2600 27.4765 0.0990
41.2800 27.4899 0.1031
41.3000 27.5031 0.1027
41.3200 27.5164 0.1073
41.3400 27.5298 0.1024
41.3600 27.5431 0.0994
41.3800 27.5564 0.1070
41.4000 27.5697 0.0993
41.4200 27.5830 0.1064
41.4400 27.5964 0.1028
41.4600 27.6098 0.0993
41.4800 27.6231 0.1095
41.5000 27.6364 0.1008
41.5200 27.6498 0.0966
41.5400 27.6632 0.1056
41.5600 27.6765 0.0978
41.5800 27.6898 0.1014
41.6000 27.7032 0.1036
41.6200 27.7165 0.1022
41.6400 27.7299 0.0952
41.6600 27.7431 0.1095
41.6800 27.7564 0.0988
41.7000 27.7698 0.1050
41.7200 27.7831 0.1025
41.7400 27.7964 0.0966
41.7600 27.8097 0.1031
41.7800 27.8231 0.1030
41.8000 27.8364 0.1017
41.8200 27.8498 0.0999
41.8400 27.8631 0.0995
41.8600 27.8765 0.1108
41.8800 27.8898 0.1012
41.9000 27.9032 0.0958
41.9200 27.9165 0.1073
41.9400 27.9298 0.1065
41.9600 27.9432 0.0957
41.9800 27.9565 0.1033
42.0000 27.9699 0.1052
42.0200 27.9832 0.0986
42.0400 27.9965 0.1094
42.0600 28.0098 0.1020
42.0800 28.0231 0.0986
42.1000 28.0364 0.1073
42.1200 28.0497 0.1043
42.1400 28.0631 0.1002
42.1600 28.0764 0.1078
42.1800 28.0898 0.0989
42.2000 28.1031 0.1007
42.2200 28.1165 0.1058
42.2400 28.1298 0.1027
42.2600 28.1432 0.1023
42.2800 28.1565 0.1020
42.3000 28.1698 0.1000
42.3200 28.1832 0.1032
42.3400 28.1965 0.1031
42.3600 28.2098 0.0990
42.3800 28.2231 0.1004
42.4000 28.2364 0.1021
42.4200 28.2498 0.1042
42.4400 28.2631 0.0950
42.4600 28.2765 0.1030
42.4800 28.2898 0.1035
42.5000 28.3031 0.0997
42.5200 28.3164 0.0999
42.5400 28.3298 0.1021
42.5600 28.3431 0.0999
42.5800 28.3564 0.1046
42.6000 28.3698 0.0988
42.6200 28.3832 0.1021
42.6400 28.3965 0.1026
42.6600 28.4098 0.1004
42.6800 28.4232 0.1009
42.7000 28.4365 0.1036
42.7200 28.4499 0.0994
42.7400 28.4632 0.1018
42.7600 28.4765 0.1041
42.7800 28.4898 0.0992
42.8000 28.5031 0.0995
42.8200 28.5164 0.1047
42.8400 28.5298 0.0970
42.8600 28.5431 0.1009
42.8800 28.5564 0.1042
42.9000 28.5698 0.0987
42.9200 28.5831 0.1007
42.9400 28.5964 0.1005
42.9600 28.6098 0.1028
42.9800 28.6232 0.0971
43.0000 28.6365 0.1052
43.0200 28.6498 0.1018
43.0400 28.6631 0.0980
43.0600 28.6765 0.1066
43.0800 28.6898 0.1003
43.1000 28.7032 0.0987
43.1200 28.7165 0.1111
43.1400 28.7298 0.1004
43.1600 28.7432 0.0949
43.1800 28.7565 0.1127
43.2000 28.7698 0.1021
43.2200 28.7830 0.0962
43.2400 28.7964 0.1105
43.2600 28.8097 0.1039
43.2800 28.8231 0.0928
43.3000 28.8364 0.1067
43.3200 28.8498 0.1016
43.3400 28.8632 0.0990
43.3600 28.8766 0.1087
43.3800 28.8899 0.0935
43.4000 28.9032 0.0981
43.4200 28.9166 0.1154
43.4400 28.9299 0.0902
43.4600 28.9432 0.1052
43.4800 28.9564 0.1071
43.5000 28.9697 0.0938
43.5200 28.9831 0.1136
43.5400 28.9964 0.1015
43.5600 29.0097 0.0895
43.5800 29.0231 0.1176
43.6000 29.0364 0.0978
43.6200 29.0498 0.0940
43.6400 29.0631 0.1087
43.6600 29.0765 0.1016
43.6800 29.0898 0.1038
43.7000 29.1032 0.1001
43.7200 29.1165 0.0959
43.7400 29.1298 0.1047
43.7600 29.1432 0.1089
43.7800 29.1565 0.1003
43.8000 29.1698 0.1039
43.8200 29.1831 0.1015
43.8400 29.1964 0.1049
43.8600 29.2098 0.1011
43.8800 29.2231 0.1018
43.9000 29.2364 0.1095
43.9200 29.2497 0.1026
43.9400 29.2631 0.0968
43.9600 29.2764 0.1086
43.9800 29.2898 0.0970
44.0000 29.3031 0.1020
44.0200 29.3164 0.1121
44.0400 29.3298 0.0955
44.0600 29.3432 0.0991
44.0800 29.3565 0.1121
44.1000 29.3698 0.0932
44.1200 29.3831 0.0983
44.1400 29.3965 0.1076
44.1600 29.4099 0.0904
44.1800 29.4232 0.1021
44.2000 29.4365 0.1029
44.2200 29.4498 0.1025
44.2400 29.4631 0.1024
44.2600 29.4765 0.1014
44.2800 29.4897 0.0931
44.3000 29.5031 0.1053
44.3200 29.5164 0.1001
44.3400 29.5297 0.0931
44.3600 29.5431 0.1020
44.3800 29.5564 0.0988
44.4000 29.5698 0.0991
44.4200 29.5832 0.1010
44.4400 29.5965 0.0961
44.4600 29.6098 0.0992
44.4800 29.6232 0.0979
44.5000 29.6365 0.0999
44.5200 29.6498 0.0972
44.5400 29.6631 0.0965
44.5600 29.6764 0.1043
44.5800 29.6898 0.1026
44.6000 29.7031 0.0920
44.6200 29.7165 0.1018
44.6400 29.7298 0.1049
44.6600 29.7431 0.0921
44.6800 29.7564 0.1017
44.7000 29.7698 0.0985
44.7200 29.7831 0.0948
44.7400 29.7964 0.1078
44.7600 29.8098 0.0990
44.7800 29.8231 0.0915
44.8000 29.8365 0.1061
44.8200 29.8498 0.0948
44.8400 29.8631 0.0997
44.8600 29.8765 0.1067
44.8800 29.8899 0.0963
44.9000 29.9032 0.0954
44.9200 29.9164 0.1062
44.9400 29.9297 0.0994
44.9600 29.9431 0.0973
44.9800 29.9565 0.1027
45.0000 29.9698 0.0969
45.0200 29.9831 0.0972
45.0400 29.9964 0.1029
45.0600 30.0098 0.0966
45.0800 30.0231 0.0980
45.1000 30.0364 0.1025
45.1200 30.0498 0.0970
45.1400 30.0632 0.0971
45.1600 30.0766 0.0978
45.1800 30.0899 0.1039
45.2000 30.1031 0.0946
45.2200 30.1165 0.1014
45.2400 30.1298 0.1010
45.2600 30.1432 0.0964
45.2800 30.1565 0.1004
45.3000 30.1698 0.1014
45.3200 30.1831 0.0947
45.3400 30.1964 0.1013
45.3600 30.2098 0.1012
45.3800 30.2231 0.0914
45.4000 30.2364 0.1042
45.4200 30.2497 0.1011
45.4400 30.2631 0.0870
45.4600 30.2764 0.1078
45.4800 30.2898 0.0980
45.5000 30.3032 0.0832
45.5200 30.3165 0.1083
45.5400 30.3298 0.0978
45.5600 30.3432 0.0856
45.5800 30.3565 0.1061
45.6000 30.3699 0.0967
45.6200 30.3832 0.0881
45.6400 30.3964 0.1050
45.6600 30.4097 0.0966
45.6800 30.4231 0.0921
45.7000 30.4364 0.1042
45.7200 30.4497 0.0967
45.7400 30.4631 0.0928
45.7600 30.4764 0.1036
45.7800 30.4898 0.0918
45.8000 30.5031 0.0975
45.8200 30.5165 0.1031
45.8400 30.5298 0.0935
45.8600 30.5431 0.0974
45.8800 30.5565 0.1007
45.9000 30.5698 0.0914
45.9200 30.5831 0.0973
45.9400 30.5965 0.0999
45.9600 30.6098 0.0943
45.9800 30.6232 0.1006
46.0000 30.6365 0.0987
46.0200 30.6498 0.0944
46.0400 30.6632 0.1033
46.0600 30.6765 0.1000
46.0800 30.6898 0.0956
46.1000 30.7031 0.1050
46.1200 30.7164 0.1018
46.1400 30.7297 0.0954
46.1600 30.7431 0.1014
46.1800 30.7564 0.1016
46.2000 30.7698 0.0947
46.2200 30.7831 0.1018
46.2400 30.7965 0.0947
46.2600 30.8098 0.0993
46.2800 30.8231 0.1027
46.3000 30.8365 0.0973
46.3200 30.8498 0.1049
46.3400 30.8632 0.0978
46.3600 30.8765 0.0964
46.3800 30.8898 0.1014
46.4000 30.9032 0.0983
46.4200 30.9165 0.0944
46.4400 30.9298 0.1004
46.4600 30.9431 0.0978
46.4800 30.9564 0.0971
46.5000 30.9698 0.0995
46.5200 30.9831 0.1022
46.5400 30.9964 0.0945
46.5600 31.0098 0.1013
46.5800 31.0231 0.0990
46.6000 31.0365 0.0986
46.6200 31.0498 0.0941
46.6400 31.0631 0.1030
46.6600 31.0765 0.1000
46.6800 31.0898 0.0963
46.7000 31.1032 0.1009
46.7200 31.1165 0.0988
46.7400 31.1298 0.0957
46.7600 31.1431 0.0985
46.7800 31.1565 0.0989
46.8000 31.1698 0.0951
46.8200 31.1831 0.0994
46.8400 31.1964 0.0967
46.8600 31.2098 0.0988
46.8800 31.2231 0.0997
46.9000 31.2365 0.0968
46.9200 31.2498 0.0945
46.9400 31.2631 0.1035
46.9600 31.2765 0.0961
46.9800 31.2898 0.0956
47.0000 31.3031 0.1014
47.0200 31.3165 0.0956
47.0400 31.3298 0.0977
47.0600 31.3432 0.1010
47.0800 31.3565 0.0961
47.1000 31.3698 0.1015
47.1200 31.3831 0.1005
47.1400 31.3965 0.0939
47.1600 31.4098 0.0974
47.1800 31.4231 0.1007
47.2000 31.4364 0.0952
47.2200 31.4497 0.0962
47.2400 31.4631 0.1001
47.2600 31.4764 0.0976
47.2800 31.4898 0.0983
47.3000 31.5031 0.0960
47.3200 31.5165 0.0999
47.3400 31.5298 0.0938
47.3600 31.5432 0.0962
47.3800 31.5565 0.0987
47.4000 31.5698 0.0984
47.4200 31.5832 0.0922
47.4400 31.5965 0.1002
47.4600 31.6098 0.0957
47.4800 31.6231 0.0955
47.5000 31.6364 0.1004
47.5200 31.6498 0.0932
47.5400 31.6631 0.1009
47.5600 31.6764 0.1023
47.5800 31.6898 0.0836
47.6000 31.7031 0.1056
47.6200 31.7164 0.1021
47.6400 31.7298 0.0862
47.6600 31.7431 0.1071
47.6800 31.7565 0.1000
47.7000 31.7698 0.0898
47.7200 31.7832 0.1072
47.7400 31.7965 0.0954
47.7600 31.8099 0.0910
47.7800 31.8232 0.1103
47.8000 31.8365 0.0925
47.8200 31.8498 0.0993
47.8400 31.8631 0.1098
47.8600 31.8764 0.0886
47.8800 31.8898 0.0919
47.9000 31.9031 0.1114
47.9200 31.9164 0.0866
47.9400 31.9298 0.1014
47.9600 31.9431 0.1030
47.9800 31.9564 0.0833
48.0000 31.9698 0.1039
48.0200 31.9831 0.1076
48.0400 31.9965 0.0824
48.0600 32.0098 0.1046
48.0800 32.0231 0.1030
48.1000 32.0364 0.0873
48.1200 32.0498 0.1062
48.1400 32.0632 0.0971
48.1600 32.0765 0.0885
48.1800 32.0898 0.1072
48.2000 32.1031 0.0931
48.2200 32.1165 0.0915
48.2400 32.1298 0.1082
48.2600 32.1431 0.0885
48.2800 32.1564 0.0963
48.3000 32.1697 0.1051
48.3200 32.1831 0.0939
48.3400 32.1964 0.0963
48.3600 32.2097 0.0961
48.3800 32.2231 0.0907
48.4000 32.2365 0.1052
48.4200 32.2499 0.0942
48.4400 32.2632 0.0935
48.4600 32.2765 0.1015
48.4800 32.2899 0.0929
48.5000 32.3032 0.0972
48.5200 32.3165 0.0998
48.5400 32.3298 0.0920
48.5600 32.3431 0.1003
48.5800 32.3564 0.0972
48.6000 32.3698 0.0880
48.6200 32.3831 0.1045
48.6400 32.3964 0.0951
48.6600 32.4097 0.0924
48.6800 32.4231 0.1030
48.7000 32.4364 0.0914
48.7200 32.4498 0.0925
48.7400 32.4631 0.1053
48.7600 32.4765 0.0858
48.7800 32.4899 0.0986
48.8000 32.5032 0.0997
48.8200 32.5165 0.0855
48.8400 32.5299 0.0992
48.8600 32.5432 0.1014
48.8800 32.5565 0.0845
48.9000 32.5698 0.1081
48.9200 32.5831 0.0963
48.9400 32.5965 0.0842
48.9600 32.6098 0.1053
48.9800 32.6231 0.0901
49.0000 32.6364 0.0928
49.0200 32.6497 0.1089
49.0400 32.6631 0.0915
49.0600 32.6764 0.0882
49.0800 32.6898 0.1075
49.1000 32.7031 0.0886
49.1200 32.7165 0.0919
49.1400 32.7298 0.1027
49.1600 32.7432 0.0907
49.1800 32.7565 0.0958
49.2000 32.7698 0.1052
49.2200 32.7832 0.0913
49.2400 32.7965 0.0937
49.2600 32.8098 0.0992
49.2800 32.8231 0.0967
49.3000 32.8365 0.0959
49.3200 32.8498 0.1015
49.3400 32.8631 0.0931
49.3600 32.8764 0.0984
49.3800 32.8897 0.0989
49.4000 32.9031 0.0959
49.4200 32.9164 0.0944
49.4400 32.9298 0.0978
49.4600 32.9431 0.0997
49.4800 32.9565 0.0930
49.5000 32.9699 0.1006
49.5200 32.9832 0.1011
49.5400 32.9965 0.0889
49.5600 33.0098 0.0965
49.5800 33.0232 0.1037
49.6000 33.0365 0.0903
49.6200 33.0498 0.1035
49.6400 33.0631 0.1040
49.6600 33.0764 0.0899
49.6800 33.0898 0.0984
49.7000 33.1031 0.1072
49.7200 33.1164 0.0846
49.7400 33.1297 0.1029
49.7600 33.1431 0.1086
49.7800 33.1564 0.0833
49.8000 33.1697 0.1039
49.8200 33.1831 0.1071
49.8400 33.1965 0.0866
49.8600 33.2099 0.0981
49.8800 33.2232 0.1018
49.9000 33.2365 0.0915
49.9200 33.2498 0.1038
49.9400 33.2632 0.0987
49.9600 33.2765 0.0906
49.9800 33.2898 0.1050
50.0000 33.3031 0.0958
50.0200 33.3165 0.0858
50.0400 33.3298 0.1069
50.0600 33.3431 0.0916
50.0800 33.3564 0.0911
50.1000 33.3697 0.1036
50.1200 33.3831 0.0938
50.1400 33.3964 0.0916
50.1600 33.4098 0.1019
50.1800 33.4231 0.0939
50.2000 33.4365 0.0914
50.2200 33.4498 0.1052
50.2400 33.4631 0.0919
50.2600 33.4765 0.0945
50.2800 33.4898 0.1025
50.3000 33.5032 0.0935
50.3200 33.5165 0.0922
50.3400 33.5298 0.1015
50.3600 33.5431 0.0926
50.3800 33.5565 0.0980
50.4000 33.5698 0.0989
50.4200 33.5831 0.0939
50.4400 33.5964 0.0953
50.4600 33.6097 0.0965
50.4800 33.6231 0.0924
50.5000 33.6364 0.0947
50.5200 33.6497 0.0968
50.5400 33.6631 0.0962
50.5600 33.6765 0.0895
50.5800 33.6899 0.0983
50.6000 33.7032 0.0980
50.6200 33.7165 0.0923
50.6400 33.7299 0.1020
50.6600 33.7432 0.1002
50.6800 33.7565 0.0897
50.7000 33.7698 0.0995
50.7200 33.7831 0.1001
50.7400 33.7964 0.0905
50.7600 33.8098 0.1010
50.7800 33.8231 0.0923
50.8000 33.8364 0.0908
50.8200 33.8498 0.1025
50.8400 33.8631 0.0928
50.8600 33.8765 0.0905
50.8800 33.8898 0.1096
50.9000 33.9031 0.0861
50.9200 33.9165 0.0943
50.9400 33.9299 0.1052
50.9600 33.9432 0.0867
50.9800 33.9565 0.1009
51.0000 33.9698 0.0972
51.0200 33.9832 0.0859
51.0400 33.9965 0.1076
51.0600 34.0098 0.0945
51.0800 34.0231 0.0893
51.1000 34.0364 0.1028
51.1200 34.0498 0.0966
51.1400 34.0631 0.0911
51.1600 34.0764 0.0995
51.1800 34.0897 0.0937
51.2000 34.1031 0.0945
51.2200 34.1165 0.1063
51.2400 34.1298 0.0913
51.2600 34.1431 0.0950
51.2800 34.1565 0.0960
51.3000 34.1699 0.0912
51.3200 34.1832 0.0988
51.3400 34.1965 0.0983
51.3600 34.2098 0.0918
51.3800 34.2232 0.0984
51.4000 34.2365 0.0885
51.4200 34.2498 0.0971
51.4400 34.2631 0.1043
51.4600 34.2765 0.0887
51.4800 34.2898 0.0961
51.5000 34.3031 0.0968
51.5200 34.3164 0.0904
51.5400 34.3297 0.1025
51.5600 34.3431 0.0921
51.5800 34.3564 0.0906
51.6000 34.3698 0.1021
51.6200 34.3831 0.0885
51.6400 34.3965 0.0943
51.6600 34.4098 0.1034
51.6800 34.4232 0.0876
51.7000 34.4365 0.0929
51.7200 34.4499 0.1002
51.7400 34.4632 0.0840
51.7600 34.4765 0.0991
51.7800 34.4898 0.0986
51.8000 34.5031 0.0885
51.8200 34.5164 0.0946
51.8400 34.5298 0.0998
51.8600 34.5431 0.0901
51.8800 34.5564 0.1008
51.9000 34.5698 0.0948
51.9200 34.5831 0.0898
51.9400 34.5965 0.1023
51.9600 34.6098 0.0924
51.9800 34.6231 0.0925
52.0000 34.6364 0.0973
52.0200 34.6498 0.0910
52.0400 34.6631 0.0982
52.0600 34.6765 0.0982
52.0800 34.6898 0.0895
52.1000 34.7032 0.0896
52.1200 34.7165 0.1012
52.1400 34.7298 0.0942
52.1600 34.7431 0.0960
52.1800 34.7564 0.1011
52.2000 34.7698 0.0813
52.2200 34.7831 0.0986
52.2400 34.7964 0.1007
52.2600 34.8097 0.0873
52.2800 34.8231 0.0953
52.3000 34.8364 0.0932
52.3200 34.8498 0.0868
52.3400 34.8631 0.0986
52.3600 34.8765 0.0963
52.3800 34.8899 0.0815
52.4000 34.9032 0.0949
52.4200 34.9165 0.0951
52.4400 34.9298 0.0872
52.4600 34.9431 0.0977
52.4800 34.9565 0.0909
52.5000 34.9698 0.0881
52.5200 34.9831 0.0991
52.5400 34.9964 0.0890
52.5600 35.0098 0.0842
52.5800 35.0231 0.0944
52.6000 35.0364 0.0966
52.6200 35.0497 0.0887
52.6400 35.0631 0.0920
52.6600 35.0764 0.0868
52.6800 35.0898 0.0905
52.7000 35.1031 0.0979
52.7200 35.1164 0.0917
52.7400 35.1298 0.0883
52.7600 35.1432 0.0919
52.7800 35.1565 0.0920
52.8000 35.1698 0.0985
52.8200 35.1832 0.0885
52.8400 35.1965 0.0902
52.8600 35.2098 0.0955
52.8800 35.2231 0.0911
52.9000 35.2364 0.0887
52.9200 35.2498 0.0953
52.9400 35.2631 0.0886
52.9600 35.2764 0.0882
52.9800 35.2897 0.1038
53.0000 35.3031 0.0914
53.0200 35.3165 0.0900
53.0400 35.3298 0.0974
53.0600 35.3431 0.0904
53.0800 35.3565 0.0908
53.1000 35.3698 0.0984
53.1200 35.3832 0.0843
53.1400 35.3965 0.0916
53.1600 35.4098 0.0981
53.1800 35.4232 0.0875
53.2000 35.4365 0.0896
53.2200 35.4498 0.0981
53.2400 35.4631 0.0857
53.2600 35.4765 0.0904
53.2800 35.4898 0.1032
53.3000 35.5032 0.0845
53.3200 35.5165 0.0935
53.3400 35.5297 0.0986
53.3600 35.5431 0.0847
53.3800 35.5564 0.0962
53.4000 35.5697 0.1030
53.4200 35.5831 0.0826
53.4400 35.5964 0.1000
53.4600 35.6098 0.0998
53.4800 35.6232 0.0812
53.5000 35.6365 0.0958
53.5200 35.6498 0.1001
53.5400 35.6631 0.0821
53.5600 35.6765 0.0995
53.5800 35.6898 0.0931
53.6000 35.7032 0.0867
53.6200 35.7165 0.0974
53.6400 35.7298 0.0933
53.6600 35.7432 0.0836
53.6800 35.7564 0.1029
53.7000 35.7697 0.0921
53.7200 35.7831 0.0870
53.7400 35.7964 0.1014
53.7600 35.8098 0.0904
53.7800 35.8231 0.0855
53.8000 35.8364 0.1042
53.8200 35.8498 0.0886
53.8400 35.8632 0.0862
53.8600 35.8765 0.1036
53.8800 35.8898 0.0891
53.9000 35.9032 0.0926
53.9200 35.9165 0.0960
53.9400 35.9298 0.0923
53.9600 35.9431 0.0927
53.9800 35.9564 0.1018
54.0000 35.9698 0.0899
54.0200 35.9831 0.0902
54.0400 35.9964 0.0972
54.0600 36.0097 0.0947
54.0800 36.0231 0.0948
54.1000 36.0365 0.0965
54.1200 36.0498 0.0885
54.1400 36.0631 0.0975
54.1600 36.0765 0.0962
54.1800 36.0898 0.0946
54.2000 36.1031 0.0944
54.2200 36.1165 0.0975
54.2400 36.1298 0.0925
54.2600 36.1432 0.0961
54.2800 36.1565 0.1021
54.3000 36.1699 0.0901
54.3200 36.1831 0.0927
54.3400 36.1965 0.0971
54.3600 36.2098 0.0981
54.3800 36.2231 0.0932
54.4000 36.2364 0.0967
54.4200 36.2497 0.0913
54.4400 36.2631 0.0931
54.4600 36.2764 0.0948
54.4800 36.2898 0.0958
54.5000 36.3031 0.0909
54.5200 36.3165 0.0939
54.5400 36.3298 0.0936
54.5600 36.3432 0.0941
54.5800 36.3565 0.0957
54.6000 36.3698 0.0951
54.6200 36.3832 0.0898
54.6400 36.3965 0.0953
54.6600 36.4098 0.0944
54.6800 36.4231 0.0941
54.7000 36.4364 0.0977
54.7200 36.4498 0.0940
54.7400 36.4631 0.0916
54.7600 36.4764 0.0969
54.7800 36.4898 0.1011
54.8000 36.5031 0.0939
54.8200 36.5164 0.0955
54.8400 36.5298 0.0910
54.8600 36.5431 0.0951
54.8800 36.5564 0.0971
54.9000 36.5698 0.0992
54.9200 36.5832 0.0922
54.9400 36.5965 0.0905
54.9600 36.6098 0.1037
54.9800 36.6231 0.0988
55.0000 36.6365 0.0916
55.0200 36.6498 0.0954
55.0400 36.6631 0.0933
55.0600 36.6764 0.0916
55.0800 36.6897 0.1003
55.1000 36.7031 0.0968
55.1200 36.7164 0.0920
55.1400 36.7297 0.0986
55.1600 36.7431 0.0899
55.1800 36.7564 0.0926
55.2000 36.7698 0.1041
55.2200 36.7831 0.0868
55.2400 36.7964 0.0880
55.2600 36.8098 0.1020
55.2800 36.8231 0.0918
55.3000 36.8365 0.0883
55.3200 36.8498 0.1028
55.3400 36.8631 0.0919
55.3600 36.8765 0.0914
55.3800 36.8898 0.0916
55.4000 36.9032 0.0961
55.4200 36.9165 0.0982
55.4400 36.9298 0.0988
55.4600 36.9432 0.0884
55.4800 36.9565 0.0916
55.5000 36.9698 0.0989
55.5200 36.9831 0.0971
55.5400 36.9964 0.0930
55.5600 37.0097 0.0924
55.5800 37.0231 0.0930
55.6000 37.0364 0.0938
55.6200 37.0498 0.0949
55.6400 37.0632 0.0955
55.6600 37.0766 0.0971
55.6800 37.0899 0.0870
55.7000 37.1032 0.0958
55.7200 37.1166 0.0949
55.7400 37.1299 0.0933
55.7600 37.1432 0.0982
55.7800 37.1565 0.0904
55.8000 37.1698 0.0944
55.8200 37.1831 0.0993
55.8400 37.1964 0.0901
55.8600 37.2097 0.0936
55.8800 37.2230 0.0988
55.9000 37.2364 0.0964
55.9200 37.2498 0.0904
55.9400 37.2631 0.0945
55.9600 37.2764 0.0943
55.9800 37.2898 0.0939
56.0000 37.3032 0.0999
56.0200 37.3165 0.0895
56.0400 37.3298 0.0942
56.0600 37.3432 0.0977
56.0800 37.3565 0.0890
56.1000 37.3699 0.0892
56.1200 37.3832 0.1031
56.1400 37.3965 0.0915
56.1600 37.4098 0.0907
56.1800 37.4231 0.0956
56.2000 37.4364 0.0939
56.2200 37.4497 0.0940
56.2400 37.4631 0.0988
56.2600 37.4764 0.0838
56.2800 37.4898 0.0896
56.3000 37.5031 0.0981
56.3200 37.5164 0.0883
56.3400 37.5298 0.0937
56.3600 37.5432 0.1007
56.3800 37.5565 0.0847
56.4000 37.5698 0.0910
56.4200 37.5831 0.1016
56.4400 37.5965 0.0849
56.4600 37.6098 0.0953
56.4800 37.6231 0.1009
56.5000 37.6365 0.0872
56.5200 37.6498 0.0949
56.5400 37.6632 0.1040
56.5600 37.6765 0.0824
56.5800 37.6897 0.0995
56.6000 37.7030 0.1088
56.6200 37.7164 0.0857
56.6400 37.7298 0.0942
56.6600 37.7431 0.1035
56.6800 37.7564 0.0840
56.7000 37.7698 0.1000
56.7200 37.7832 0.0980
56.7400 37.7965 0.0834
56.7600 37.8098 0.1025
56.7800 37.8232 0.1000
56.8000 37.8365 0.0861
56.8200 37.8498 0.1051
56.8400 37.8631 0.0982
56.8600 37.8764 0.0883
56.8800 37.8898 0.1025
56.9000 37.9031 0.0954
56.9200 37.9165 0.0934
56.9400 37.9298 0.0992
56.9600 37.9431 0.0960
56.9800 37.9564 0.0917
57.0000 37.9698 0.1004
57.0200 37.9831 0.0942
57.0400 37.9964 0.0920
57.0600 38.0098 0.0987
57.0800 38.0232 0.0936
57.1000 38.0365 0.0902
57.1200 38.0498 0.0986
57.1400 38.0632 0.0983
57.1600 38.0765 0.0923
57.1800 38.0899 0.0978
57.2000 38.1032 0.1036
57.2200 38.1165 0.0924
57.2400 38.1298 0.0957
57.2600 38.1431 0.0976
57.2800 38.1564 0.0943
57.3000 38.1697 0.0993
57.3200 38.1831 0.0960
57.3400 38.1964 0.0949
57.3600 38.2098 0.0963
57.3800 38.2231 0.1020
57.4000 38.2364 0.0917
57.4200 38.2498 0.0978
57.4400 38.2632 0.0965
57.4600 38.2765 0.0932
57.4800 38.2898 0.0948
57.5000 38.3031 0.0989
57.5200 38.3165 0.0974
57.5400 38.3298 0.0921
57.5600 38.3432 0.0994
57.5800 38.3565 0.0959
57.6000 38.3698 0.0939
57.6200 38.3831 0.1028
57.6400 38.3965 0.0892
57.6600 38.4097 0.0983
57.6800 38.4230 0.1035
57.7000 38.4364 0.0916
57.7200 38.4497 0.0948
57.7400 38.4631 0.0988
57.7600 38.4764 0.0957
57.7800 38.4898 0.0939
57.8000 38.5032 0.1008
57.8200 38.5165 0.0933
57.8400 38.5299 0.0923
57.8600 38.5432 0.1016
57.8800 38.5565 0.0965
57.9000 38.5699 0.0922
57.9200 38.5832 0.0960
57.9400 38.5964 0.1004
57.9600 38.6097 0.0998
57.9800 38.6231 0.0948
58.0000 38.6364 0.0990
58.0200 38.6498 0.0954
58.0400 38.6631 0.0976
58.0600 38.6765 0.0973
58.0800 38.6898 0.0948
58.1000 38.7031 0.0957
58.1200 38.7165 0.0977
58.1400 38.7298 0.0969
58.1600 38.7432 0.0974
58.1800 38.7566 0.0972
58.2000 38.7699 0.0929
58.2200 38.7832 0.0989
58.2400 38.7965 0.0965
58.2600 38.8098 0.0931
58.2800 38.8232 0.0982
58.3000 38.8364 0.0995
58.3200 38.8498 0.0917
58.3400 38.8631 0.1022
58.3600 38.8765 0.0893
58.3800 38.8898 0.0945
58.4000 38.9031 0.1021
58.4200 38.9164 0.0924
58.4400 38.9298 0.0951
58.4600 38.9431 0.1038
58.4800 38.9565 0.0898
58.5000 38.9698 0.0980
58.5200 38.9832 0.1015
58.5400 38.9965 0.0899
58.5600 39.0098 0.1019
58.5800 39.0231 0.0968
58.6000 39.0365 0.0902
58.6200 39.0499 0.1025
58.6400 39.0632 0.0980
58.6600 39.0765 0.0911
58.6800 39.0898 0.1008
58.7000 39.1031 0.0955
58.7200 39.1165 0.0932
58.7400 39.1297 0.0974
58.7600 39.1431 0.0983
58.7800 39.1564 0.0927
58.8000 39.1698 0.1013
58.8200 39.1831 0.0934
58.8400 39.1964 0.0964
58.8600 39.2098 0.0997
58.8800 39.2232 0.0914
58.9000 39.2365 0.0959
58.9200 39.2499 0.0980
58.9400 39.2632 0.0994
58.9600 39.2765 0.0936
58.9800 39.2899 0.0960
59.0000 39.3032 0.0963
59.0200 39.3164 0.0970
59.0400 39.3298 0.1045
59.0600 39.3431 0.0916
59.0800 39.3565 0.0948
59.1000 39.3698 0.1027
59.1200 39.3831 0.0939
59.1400 39.3964 0.0992
59.1600 39.4098 0.0966
59.1800 39.4231 0.0966
59.2000 39.4364 0.0993
59.2200 39.4497 0.0970
59.2400 39.4631 0.0918
59.2600 39.4765 0.1042
59.2800 39.4898 0.1038
59.3000 39.5032 0.0920
59.3200 39.5165 0.0993
59.3400 39.5299 0.1014
59.3600 39.5432 0.0919
59.3800 39.5565 0.1005
59.4000 39.5698 0.1082
59.4200 39.5831 0.0939
59.4400 39.5964 0.0992
59.4600 39.6098 0.0940
59.4800 39.6231 0.0938
59.5000 39.6364 0.1069
59.5200 39.6498 0.1078
59.5400 39.6631 0.0876
59.5600 39.6764 0.1003
59.5800 39.6898 0.1023
59.6000 39.7032 0.0964
59.6200 39.7166 0.1065
59.6400 39.7299 0.0961
59.6600 39.7432 0.0907
59.6800 39.7565 0.1111
59.7000 39.7699 0.0915
59.7200 39.7832 0.0937
59.7400 39.7965 0.1158
59.7600 39.8098 0.0913
59.7800 39.8231 0.0873
59.8000 39.8365 0.1113
59.8200 39.8498 0.0889
59.8400 39.8631 0.0985
59.8600 39.8764 0.1152
59.8800 39.8898 0.0822
59.9000 39.9031 0.0947
59.9200 39.9164 0.1089
59.9400 39.9298 0.0901
59.9600 39.9431 0.1018
59.9800 39.9565 0.1060
60.0000 39.9698 0.0849
60.0200 39.9832 0.0982
60.0400 39.9965 0.0937
60.0460 40.0004 0.0780
