Raw Data
Time Displacement Force
(s) (mm) (N)
0.0000 0.0000 -0.0096
0.0200 0.0001 0.0129
0.0400 0.0022 0.0708
0.0600 0.0101 0.0623
0.0800 0.0220 -0.0110
0.1000 0.0346 -0.0127
0.1200 0.0472 0.0331
0.1400 0.0607 -0.0041
0.1600 0.0747 -0.0052
0.1800 0.0889 0.0184
0.2000 0.1028 -0.0124
0.2200 0.1164 -0.0069
0.2400 0.1297 0.0217
0.2600 0.1430 -0.0049
0.2800 0.1563 0.0002
0.3000 0.1697 0.0219
0.3200 0.1831 -0.0074
0.3400 0.1965 0.0043
0.3600 0.2098 0.0225
0.3800 0.2231 -0.0036
0.4000 0.2365 0.0015
0.4200 0.2498 0.0210
0.4400 0.2631 -0.0012
0.4600 0.2764 0.0078
0.4800 0.2897 0.0163
0.5000 0.3031 0.0008
0.5200 0.3164 0.0071
0.5400 0.3297 0.0177
0.5600 0.3431 -0.0041
0.5800 0.3564 0.0091
0.6000 0.3698 0.0139
0.6200 0.3831 -0.0008
0.6400 0.3964 0.0022
0.6600 0.4098 0.0111
0.6800 0.4232 0.0018
0.7000 0.4365 0.0010
0.7200 0.4498 0.0087
0.7400 0.4632 0.0047
0.7600 0.4765 -0.0003
0.7800 0.4899 0.0039
0.8000 0.5031 0.0047
0.8200 0.5164 -0.0019
0.8400 0.5298 0.0069
0.8600 0.5431 0.0038
0.8800 0.5564 -0.0016
0.9000 0.5697 0.0127
0.9200 0.5830 0.0084
0.9400 0.5964 -0.0029
0.9600 0.6097 0.0136
0.9800 0.6231 0.0043
1.0000 0.6364 0.0041
1.0200 0.6498 0.0128
1.0400 0.6632 0.0056
1.0600 0.6765 -0.0001
1.0800 0.6898 0.0222
1.1000 0.7031 0.0006
1.1200 0.7165 0.0020
1.1400 0.7298 0.0198
1.1600 0.7431 0.0019
1.1800 0.7564 0.0060
1.2000 0.7698 0.0201
1.2200 0.7831 0.0027
1.2400 0.7965 0.0086
1.2600 0.8098 0.0190
1.2800 0.8231 0.0082
1.3000 0.8364 0.0073
1.3200 0.8498 0.0152
1.3400 0.8631 0.0073
1.3600 0.8764 0.0098
1.3800 0.8898 0.0148
1.4000 0.9031 0.0016
1.4200 0.9165 0.0087
1.4400 0.9298 0.0143
1.4600 0.9431 0.0070
1.4800 0.9565 0.0038
1.5000 0.9698 0.0159
1.5200 0.9831 0.0045
1.5400 0.9964 0.0104
1.5600 1.0098 0.0080
1.5800 1.0232 0.0074
1.6000 1.0365 0.0084
1.6200 1.0498 0.0104
1.6400 1.0631 0.0100
1.6600 1.0764 0.0073
1.6800 1.0898 0.0151
1.7000 1.1031 0.0099
1.7200 1.1164 0.0057
1.7400 1.1298 0.0122
1.7600 1.1432 0.0121
1.7800 1.1565 0.0068
1.8000 1.1698 0.0144
1.8200 1.1832 0.0075
1.8400 1.1965 0.0107
1.8600 1.2099 0.0143
1.8800 1.2231 0.0093
1.9000 1.2364 0.0124
1.9200 1.2497 0.0171
1.9400 1.2631 0.0056
1.9600 1.2764 0.0158
1.9800 1.2898 0.0137
2.0000 1.3031 0.0082
2.0200 1.3164 0.0102
2.0400 1.3298 0.0188
2.0600 1.3431 0.0010
2.0800 1.3564 0.0174
2.1000 1.3698 0.0171
2.1200 1.3832 0.0030
2.1400 1.3965 0.0168
2.1600 1.4098 0.0136
2.1800 1.4232 0.0097
2.2000 1.4365 0.0155
2.2200 1.4498 0.0125
2.2400 1.4631 0.0063
2.2600 1.4764 0.0148
2.2800 1.4897 0.0132
2.3000 1.5031 0.0084
2.3200 1.5164 0.0171
2.3400 1.5297 0.0113
2.3600 1.5431 0.0072
2.3800 1.5564 0.0186
2.4000 1.5698 0.0049
2.4200 1.5831 0.0145
2.4400 1.5965 0.0153
2.4600 1.6098 0.0065
2.4800 1.6232 0.0116
2.5000 1.6365 0.0152
2.5200 1.6498 0.0096
2.5400 1.6631 0.0194
2.5600 1.6765 0.0114
2.5800 1.6898 0.0024
2.6000 1.7032 0.0163
2.6200 1.7165 0.0106
2.6400 1.7298 0.0066
2.6600 1.7431 0.0197
2.6800 1.7565 0.0049
2.7000 1.7698 0.0085
2.7200 1.7831 0.0174
2.7400 1.7964 0.0028
2.7600 1.8098 0.0129
2.7800 1.8231 0.0110
2.8000 1.8364 0.0075
2.8200 1.8498 0.0125
2.8400 1.8631 0.0131
2.8600 1.8765 0.0050
2.8800 1.8898 0.0167
2.9000 1.9031 0.0092
2.9200 1.9165 0.0052
2.9400 1.9298 0.0177
2.9600 1.9432 0.0085
2.9800 1.9565 0.0042
3.0000 1.9698 0.0176
3.0200 1.9832 0.0031
3.0400 1.9965 0.0112
3.0600 2.0098 0.0176
3.0800 2.0231 0.0043
3.1000 2.0364 0.0117
3.1200 2.0497 0.0164
3.1400 2.0631 0.0039
3.1600 2.0764 0.0128
3.1800 2.0898 0.0172
3.2000 2.1032 0.0044
3.2200 2.1165 0.0129
3.2400 2.1299 0.0079
3.2600 2.1432 0.0107
3.2800 2.1565 0.0187
3.3000 2.1699 0.0062
3.3200 2.1832 0.0114
3.3400 2.1964 0.0254
3.3600 2.2098 0.0063
3.3800 2.2231 0.0163
3.4000 2.2365 0.0210
3.4200 2.2498 0.0022
3.4400 2.2631 0.0130
3.4600 2.2764 0.0231
3.4800 2.2898 0.0004
3.5000 2.3031 0.0164
3.5200 2.3164 0.0205
3.5400 2.3298 0.0047
3.5600 2.3431 0.0206
3.5800 2.3565 0.0133
3.6000 2.3698 0.0081
3.6200 2.3832 0.0219
3.6400 2.3965 0.0114
3.6600 2.4099 0.0104
3.6800 2.4232 0.0233
3.7000 2.4365 0.0062
3.7200 2.4498 0.0130
3.7400 2.4631 0.0244
3.7600 2.4765 0.0102
3.7800 2.4897 0.0088
3.8000 2.5030 0.0267
3.8200 2.5164 0.0148
3.8400 2.5297 0.0104
3.8600 2.5431 0.0205
3.8800 2.5564 0.0115
3.9000 2.5698 0.0145
3.9200 2.5832 0.0173
3.9400 2.5965 0.0109
3.9600 2.6098 0.0162
3.9800 2.6231 0.0184
4.0000 2.6365 0.0147
4.0200 2.6499 0.0111
4.0400 2.6632 0.0146
4.0600 2.6765 0.0172
4.0800 2.6898 0.0126
4.1000 2.7031 0.0211
4.1200 2.7165 0.0104
4.1400 2.7298 0.0152
4.1600 2.7431 0.0287
4.1800 2.7564 0.0114
4.2000 2.7697 0.0043
4.2200 2.7831 0.0276
4.2400 2.7964 0.0124
4.2600 2.8098 0.0044
4.2800 2.8231 0.0287
4.3000 2.8365 0.0089
4.3200 2.8498 0.0087
4.3400 2.8632 0.0331
4.3600 2.8765 0.0038
4.3800 2.8899 0.0105
4.4000 2.9032 0.0276
4.4200 2.9165 0.0053
4.4400 2.9298 0.0162
4.4600 2.9431 0.0204
4.4800 2.9565 0.0070
4.5000 2.9698 0.0186
4.5200 2.9831 0.0216
4.5400 2.9964 0.0063
4.5600 3.0098 0.0266
4.5800 3.0231 0.0146
4.6000 3.0364 0.0141
4.6200 3.0498 0.0288
4.6400 3.0631 0.0105
4.6600 3.0765 0.0079
4.6800 3.0898 0.0238
4.7000 3.1031 0.0114
4.7200 3.1165 0.0251
4.7400 3.1298 0.0180
4.7600 3.1432 0.0112
4.7800 3.1565 0.0259
4.8000 3.1698 0.0189
4.8200 3.1832 0.0103
4.8400 3.1965 0.0300
4.8600 3.2098 0.0108
4.8800 3.2231 0.0107
4.9000 3.2364 0.0303
4.9200 3.2497 0.0102
4.9400 3.2631 0.0151
4.9600 3.2764 0.0252
4.9800 3.2898 0.0103
5.0000 3.3032 0.0178
5.0200 3.3166 0.0272
5.0400 3.3299 0.0063
5.0600 3.3432 0.0216
5.0800 3.3565 0.0210
5.1000 3.3699 0.0078
5.1200 3.3832 0.0179
5.1400 3.3965 0.0243
5.1600 3.4098 0.0104
5.1800 3.4231 0.0238
5.2000 3.4364 0.0189
5.2200 3.4498 0.0130
5.2400 3.4631 0.0263
5.2600 3.4764 0.0168
5.2800 3.4898 0.0082
5.3000 3.5031 0.0221
5.3200 3.5164 0.0146
5.3400 3.5298 0.0174
5.3600 3.5431 0.0191
5.3800 3.5565 0.0147
5.4000 3.5698 0.0200
5.4200 3.5832 0.0173
5.4400 3.5965 0.0143
5.4600 3.6099 0.0221
5.4800 3.6232 0.0140
5.5000 3.6365 0.0156
5.5200 3.6498 0.0241
5.5400 3.6631 0.0072
5.5600 3.6764 0.0194
5.5800 3.6898 0.0215
5.6000 3.7031 0.0083
5.6200 3.7164 0.0216
5.6400 3.7298 0.0261
5.6600 3.7431 0.0066
5.6800 3.7564 0.0207
5.7000 3.7698 0.0163
5.7200 3.7831 0.0103
5.7400 3.7965 0.0220
5.7600 3.8098 0.0169
5.7800 3.8231 0.0083
5.8000 3.8365 0.0261
5.8200 3.8499 0.0170
5.8400 3.8632 0.0067
5.8600 3.8765 0.0272
5.8800 3.8898 0.0167
5.9000 3.9032 0.0103
5.9200 3.9165 0.0234
5.9400 3.9298 0.0157
5.9600 3.9431 0.0153
5.9800 3.9564 0.0280
6.0000 3.9697 0.0098
6.0200 3.9831 0.0182
6.0400 3.9964 0.0255
6.0600 4.0098 0.0125
6.0800 4.0232 0.0187
6.1000 4.0365 0.0265
6.1200 4.0499 0.0121
6.1400 4.0632 0.0206
6.1600 4.0765 0.0263
6.1800 4.0899 0.0157
6.2000 4.1032 0.0150
6.2200 4.1165 0.0230
6.2400 4.1298 0.0124
6.2600 4.1431 0.0164
6.2800 4.1565 0.0243
6.3000 4.1698 0.0156
6.3200 4.1831 0.0134
6.3400 4.1964 0.0218
6.3600 4.2098 0.0118
6.3800 4.2231 0.0124
6.4000 4.2364 0.0263
6.4200 4.2498 0.0135
6.4400 4.2631 0.0111
6.4600 4.2765 0.0266
6.4800 4.2898 0.0140
6.5000 4.3032 0.0130
6.5200 4.3165 0.0261
6.5400 4.3299 0.0080
6.5600 4.3432 0.0153
6.5800 4.3565 0.0247
6.6000 4.3698 0.0106
6.6200 4.3831 0.0176
6.6400 4.3965 0.0242
6.6600 4.4098 0.0094
6.6800 4.4231 0.0167
6.7000 4.4364 0.0218
6.7200 4.4497 0.0122
6.7400 4.4631 0.0161
6.7600 4.4764 0.0219
6.7800 4.4898 0.0121
6.8000 4.5031 0.0169
6.8200 4.5165 0.0207
6.8400 4.5298 0.0124
6.8600 4.5431 0.0190
6.8800 4.5565 0.0154
6.9000 4.5698 0.0175
6.9200 4.5831 0.0157
6.9400 4.5965 0.0243
6.9600 4.6098 0.0156
6.9800 4.6231 0.0138
7.0000 4.6365 0.0218
7.0200 4.6498 0.0146
7.0400 4.6631 0.0177
7.0600 4.6764 0.0209
7.0800 4.6897 0.0146
7.1000 4.7031 0.0147
7.1200 4.7164 0.0208
7.1400 4.7297 0.0207
7.1600 4.7431 0.0174
7.1800 4.7565 0.0239
7.2000 4.7699 0.0125
7.2200 4.7832 0.0130
7.2400 4.7965 0.0254
7.2600 4.8099 0.0112
7.2800 4.8232 0.0163
7.3000 4.8365 0.0225
7.3200 4.8498 0.0147
7.3400 4.8631 0.0197
7.3600 4.8764 0.0245
7.3800 4.8898 0.0129
7.4000 4.9031 0.0171
7.4200 4.9164 0.0162
7.4400 4.9298 0.0140
7.4600 4.9431 0.0141
7.4800 4.9565 0.0176
7.5000 4.9698 0.0098
7.5200 4.9832 0.0229
7.5400 4.9965 0.0192
7.5600 5.0099 0.0167
7.5800 5.0232 0.0199
7.6000 5.0365 0.0192
7.6200 5.0498 0.0214
7.6400 5.0632 0.0133
7.6600 5.0765 0.0180
7.6800 5.0898 0.0163
7.7000 5.1031 0.0151
7.7200 5.1164 0.0218
7.7400 5.1298 0.0208
7.7600 5.1431 0.0211
7.7800 5.1564 0.0200
7.8000 5.1697 0.0180
7.8200 5.1831 0.0162
7.8400 5.1964 0.0200
7.8600 5.2098 0.0210
7.8800 5.2231 0.0157
7.9000 5.2365 0.0210
7.9200 5.2498 0.0148
7.9400 5.2632 0.0192
7.9600 5.2765 0.0228
7.9800 5.2898 0.0222
8.0000 5.3032 0.0207
8.0200 5.3165 0.0226
8.0400 5.3298 0.0187
8.0600 5.3431 0.0175
8.0800 5.3565 0.0242
8.1000 5.3698 0.0174
8.1200 5.3831 0.0146
8.1400 5.3964 0.0264
8.1600 5.4097 0.0199
8.1800 5.4231 0.0114
8.2000 5.4364 0.0275
8.2200 5.4498 0.0212
8.2400 5.4631 0.0169
8.2600 5.4765 0.0195
8.2800 5.4899 0.0180
8.3000 5.5032 0.0137
8.3200 5.5165 0.0268
8.3400 5.5298 0.0121
8.3600 5.5432 0.0210
8.3800 5.5565 0.0318
8.4000 5.5698 0.0187
8.4200 5.5831 0.0154
8.4400 5.5965 0.0316
8.4600 5.6098 0.0200
8.4800 5.6231 0.0173
8.5000 5.6364 0.0275
8.5200 5.6498 0.0213
8.5400 5.6631 0.0181
8.5600 5.6765 0.0317
8.5800 5.6898 0.0223
8.6000 5.7031 0.0206
8.6200 5.7165 0.0288
8.6400 5.7298 0.0176
8.6600 5.7431 0.0202
8.6800 5.7565 0.0265
8.7000 5.7698 0.0187
8.7200 5.7832 0.0207
8.7400 5.7965 0.0346
8.7600 5.8098 0.0175
8.7800 5.8231 0.0266
8.8000 5.8365 0.0315
8.8200 5.8498 0.0180
8.8400 5.8631 0.0215
8.8600 5.8764 0.0301
8.8800 5.8897 0.0157
8.9000 5.9031 0.0223
8.9200 5.9165 0.0265
8.9400 5.9298 0.0190
8.9600 5.9431 0.0255
8.9800 5.9565 0.0283
9.0000 5.9699 0.0189
9.0200 5.9832 0.0225
9.0400 5.9965 0.0254
9.0600 6.0098 0.0206
9.0800 6.0232 0.0232
9.1000 6.0365 0.0251
9.1200 6.0498 0.0191
9.1400 6.0631 0.0189
9.1600 6.0764 0.0290
9.1800 6.0898 0.0155
9.2000 6.1031 0.0214
9.2200 6.1164 0.0246
9.2400 6.1297 0.0198
9.2600 6.1431 0.0206
9.2800 6.1564 0.0232
9.3000 6.1697 0.0151
9.3200 6.1831 0.0221
9.3400 6.1965 0.0212
9.3600 6.2099 0.0136
9.3800 6.2232 0.0227
9.4000 6.2365 0.0221
9.4200 6.2498 0.0125
9.4400 6.2632 0.0243
9.4600 6.2765 0.0187
9.4800 6.2898 0.0106
9.5000 6.3031 0.0242
9.5200 6.3164 0.0227
9.5400 6.3298 0.0099
9.5600 6.3431 0.0216
9.5800 6.3564 0.0254
9.6000 6.3698 0.0134
9.6200 6.3831 0.0273
9.6400 6.3965 0.0208
9.6600 6.4098 0.0157
9.6800 6.4231 0.0232
9.7000 6.4365 0.0208
9.7200 6.4498 0.0110
9.7400 6.4632 0.0261
9.7600 6.4765 0.0207
9.7800 6.4898 0.0150
9.8000 6.5032 0.0249
9.8200 6.5165 0.0159
9.8400 6.5298 0.0137
9.8600 6.5431 0.0243
9.8800 6.5565 0.0151
9.9000 6.5698 0.0124
9.9200 6.5831 0.0246
9.9400 6.5964 0.0167
9.9600 6.6097 0.0160
9.9800 6.6231 0.0263
10.0000 6.6364 0.0139
10.0200 6.6498 0.0174
10.0400 6.6631 0.0298
10.0600 6.6764 0.0097
10.0800 6.6898 0.0175
10.1000 6.7031 0.0256
10.1200 6.7165 0.0098
10.1400 6.7298 0.0151
10.1600 6.7432 0.0289
10.1800 6.7565 0.0091
10.2000 6.7698 0.0185
10.2200 6.7831 0.0299
10.2400 6.7965 0.0108
10.2600 6.8098 0.0122
10.2800 6.8231 0.0309
10.3000 6.8364 0.0075
10.3200 6.8497 0.0166
10.3400 6.8631 0.0271
10.3600 6.8764 0.0104
10.3800 6.8898 0.0149
10.4000 6.9031 0.0278
10.4200 6.9165 0.0099
10.4400 6.9298 0.0144
10.4600 6.9432 0.0278
10.4800 6.9565 0.0101
10.5000 6.9698 0.0180
10.5200 6.9832 0.0198
10.5400 6.9965 0.0081
10.5600 7.0098 0.0202
10.5800 7.0231 0.0274
10.6000 7.0364 0.0123
10.6200 7.0498 0.0173
10.6400 7.0631 0.0208
10.6600 7.0764 0.0130
10.6800 7.0897 0.0184
10.7000 7.1031 0.0215
10.7200 7.1165 0.0119
10.7400 7.1298 0.0175
10.7600 7.1431 0.0207
10.7800 7.1564 0.0202
10.8000 7.1698 0.0163
10.8200 7.1831 0.0201
10.8400 7.1965 0.0146
10.8600 7.2098 0.0165
10.8800 7.2232 0.0225
10.9000 7.2365 0.0159
10.9200 7.2498 0.0180
10.9400 7.2631 0.0222
10.9600 7.2765 0.0208
10.9800 7.2898 0.0206
11.0000 7.3031 0.0220
11.0200 7.3164 0.0176
11.0400 7.3297 0.0184
11.0600 7.3431 0.0212
11.0800 7.3564 0.0214
11.1000 7.3698 0.0108
11.1200 7.3831 0.0273
11.1400 7.3965 0.0192
11.1600 7.4099 0.0127
11.1800 7.4232 0.0250
11.2000 7.4365 0.0202
11.2200 7.4498 0.0114
11.2400 7.4632 0.0245
11.2600 7.4765 0.0184
11.2800 7.4898 0.0127
11.3000 7.5031 0.0272
11.3200 7.5165 0.0164
11.3400 7.5298 0.0149
11.3600 7.5431 0.0282
11.3800 7.5564 0.0185
11.4000 7.5698 0.0136
11.4200 7.5831 0.0282
11.4400 7.5964 0.0145
11.4600 7.6098 0.0131
11.4800 7.6231 0.0278
11.5000 7.6365 0.0141
11.5200 7.6498 0.0121
11.5400 7.6632 0.0301
11.5600 7.6765 0.0104
11.5800 7.6898 0.0239
11.6000 7.7032 0.0273
11.6200 7.7165 0.0134
11.6400 7.7298 0.0179
11.6600 7.7431 0.0271
11.6800 7.7564 0.0137
11.7000 7.7698 0.0180
11.7200 7.7831 0.0242
11.7400 7.7964 0.0143
11.7600 7.8097 0.0217
11.7800 7.8231 0.0226
11.8000 7.8364 0.0193
11.8200 7.8498 0.0193
11.8400 7.8631 0.0192
11.8600 7.8764 0.0209
11.8800 7.8898 0.0160
11.9000 7.9031 0.0188
11.9200 7.9165 0.0206
11.9400 7.9298 0.0152
11.9600 7.9431 0.0240
11.9800 7.9565 0.0228
12.0000 7.9698 0.0170
12.0200 7.9831 0.0245
12.0400 7.9965 0.0249
12.0600 8.0098 0.0096
12.0800 8.0232 0.0229
12.1000 8.0364 0.0212
12.1200 8.0497 0.0107
12.1400 8.0630 0.0260
12.1600 8.0764 0.0210
12.1800 8.0897 0.0099
12.2000 8.1031 0.0254
12.2200 8.1164 0.0236
12.2400 8.1299 0.0063
12.2600 8.1432 0.0231
12.2800 8.1565 0.0231
12.3000 8.1699 0.0091
12.3200 8.1832 0.0208
12.3400 8.1965 0.0244
12.3600 8.2098 0.0112
12.3800 8.2231 0.0268
12.4000 8.2364 0.0202
12.4200 8.2498 0.0115
12.4400 8.2631 0.0252
12.4600 8.2764 0.0178
12.4800 8.2897 0.0067
12.5000 8.3031 0.0277
12.5200 8.3164 0.0149
12.5400 8.3298 0.0145
12.5600 8.3431 0.0245
12.5800 8.3565 0.0190
12.6000 8.3698 0.0103
12.6200 8.3832 0.0272
12.6400 8.3965 0.0130
12.6600 8.4099 0.0136
12.6800 8.4232 0.0304
12.7000 8.4365 0.0077
12.7200 8.4498 0.0145
12.7400 8.4631 0.0301
12.7600 8.4764 0.0133
12.7800 8.4898 0.0164
12.8000 8.5031 0.0275
12.8200 8.5164 0.0117
12.8400 8.5297 0.0177
12.8600 8.5431 0.0257
12.8800 8.5565 0.0105
12.9000 8.5698 0.0172
12.9200 8.5831 0.0238
12.9400 8.5965 0.0111
12.9600 8.6098 0.0265
12.9800 8.6232 0.0252
13.0000 8.6365 0.0161
13.0200 8.6498 0.0253
13.0400 8.6632 0.0234
13.0600 8.6765 0.0111
13.0800 8.6899 0.0284
13.1000 8.7032 0.0234
13.1200 8.7165 0.0157
13.1400 8.7298 0.0285
13.1600 8.7431 0.0228
13.1800 8.7564 0.0213
13.2000 8.7697 0.0280
13.2200 8.7831 0.0226
13.2400 8.7964 0.0241
13.2600 8.8098 0.0224
13.2800 8.8231 0.0204
13.3000 8.8365 0.0277
13.3200 8.8499 0.0222
13.3400 8.8632 0.0220
13.3600 8.8765 0.0287
13.3800 8.8898 0.0269
13.4000 8.9032 0.0259
13.4200 8.9165 0.0235
13.4400 8.9298 0.0207
13.4600 8.9431 0.0304
13.4800 8.9564 0.0253
13.5000 8.9698 0.0216
13.5200 8.9831 0.0246
13.5400 8.9964 0.0290
13.5600 9.0098 0.0235
13.5800 9.0231 0.0249
13.6000 9.0364 0.0233
13.6200 9.0498 0.0208
13.6400 9.0631 0.0234
13.6600 9.0764 0.0207
13.6800 9.0898 0.0204
13.7000 9.1032 0.0210
13.7200 9.1165 0.0202
13.7400 9.1298 0.0208
13.7600 9.1432 0.0247
13.7800 9.1565 0.0180
13.8000 9.1699 0.0184
13.8200 9.1831 0.0223
13.8400 9.1964 0.0196
13.8600 9.2098 0.0167
13.8800 9.2231 0.0253
13.9000 9.2364 0.0137
13.9200 9.2497 0.0203
13.9400 9.2631 0.0197
13.9600 9.2764 0.0183
13.9800 9.2898 0.0185
14.0000 9.3031 0.0139
14.0200 9.3164 0.0158
14.0400 9.3298 0.0237
14.0600 9.3432 0.0162
14.0800 9.3565 0.0133
14.1000 9.3698 0.0199
14.1200 9.3831 0.0156
14.1400 9.3965 0.0164
14.1600 9.4098 0.0212
14.1800 9.4231 0.0126
14.2000 9.4365 0.0180
14.2200 9.4498 0.0187
14.2400 9.4632 0.0146
14.2600 9.4764 0.0157
14.2800 9.4897 0.0147
14.3000 9.5030 0.0123
14.3200 9.5164 0.0146
14.3400 9.5297 0.0197
14.3600 9.5431 0.0103
14.3800 9.5564 0.0237
14.4000 9.5698 0.0165
14.4200 9.5832 0.0056
14.4400 9.5965 0.0185
14.4600 9.6099 0.0206
14.4800 9.6232 0.0080
14.5000 9.6365 0.0154
14.5200 9.6498 0.0161
14.5400 9.6631 0.0092
14.5600 9.6764 0.0200
14.5800 9.6897 0.0182
14.6000 9.7031 0.0096
14.6200 9.7164 0.0177
14.6400 9.7297 0.0147
14.6600 9.7431 0.0151
14.6800 9.7565 0.0193
14.7000 9.7698 0.0088
14.7200 9.7831 0.0164
14.7400 9.7965 0.0159
14.7600 9.8098 0.0130
14.7800 9.8232 0.0102
14.8000 9.8365 0.0169
14.8200 9.8498 0.0165
14.8400 9.8632 0.0153
14.8600 9.8765 0.0098
14.8800 9.8898 0.0169
14.9000 9.9031 0.0132
14.9200 9.9164 0.0170
14.9400 9.9298 0.0156
14.9600 9.9431 0.0150
14.9800 9.9564 0.0126
15.0000 9.9697 0.0200
15.0200 9.9831 0.0126
15.0400 9.9964 0.0122
15.0600 10.0098 0.0197
15.0800 10.0231 0.0082
15.1000 10.0365 0.0171
15.1200 10.0498 0.0140
15.1400 10.0632 0.0156
15.1600 10.0765 0.0179
15.1800 10.0898 0.0139
15.2000 10.1032 0.0184
15.2200 10.1165 0.0139
15.2400 10.1299 0.0167
15.2600 10.1432 0.0197
15.2800 10.1565 0.0128
15.3000 10.1698 0.0223
15.3200 10.1831 0.0168
15.3400 10.1964 0.0178
15.3600 10.2097 0.0246
15.3800 10.2230 0.0188
15.4000 10.2364 0.0088
15.4200 10.2498 0.0241
15.4400 10.2631 0.0208
15.4600 10.2764 0.0098
15.4800 10.2898 0.0237
15.5000 10.3032 0.0202
15.5200 10.3165 0.0136
15.5400 10.3299 0.0309
15.5600 10.3432 0.0188
15.5800 10.3565 0.0137
15.6000 10.3699 0.0266
15.6200 10.3831 0.0176
15.6400 10.3964 0.0202
15.6600 10.4098 0.0297
15.6800 10.4231 0.0175
15.7000 10.4364 0.0151
15.7200 10.4498 0.0296
15.7400 10.4631 0.0171
15.7600 10.4764 0.0205
15.7800 10.4898 0.0292
15.8000 10.5031 0.0149
15.8200 10.5164 0.0172
15.8400 10.5298 0.0277
15.8600 10.5431 0.0146
15.8800 10.5565 0.0183
15.9000 10.5698 0.0264
15.9200 10.5831 0.0185
15.9400 10.5965 0.0159
15.9600 10.6099 0.0259
15.9800 10.6232 0.0159
16.0000 10.6365 0.0251
16.0200 10.6498 0.0260
16.0400 10.6631 0.0078
16.0600 10.6764 0.0261
16.0800 10.6897 0.0259
16.1000 10.7031 0.0121
16.1200 10.7164 0.0234
16.1400 10.7298 0.0225
16.1600 10.7431 0.0176
16.1800 10.7564 0.0233
16.2000 10.7698 0.0219
16.2200 10.7832 0.0163
16.2400 10.7965 0.0194
16.2600 10.8098 0.0189
16.2800 10.8231 0.0181
16.3000 10.8365 0.0264
16.3200 10.8498 0.0201
16.3400 10.8632 0.0245
16.3600 10.8764 0.0246
16.3800 10.8898 0.0196
16.4000 10.9031 0.0226
16.4200 10.9165 0.0205
16.4400 10.9298 0.0223
16.4600 10.9431 0.0235
16.4800 10.9564 0.0192
16.5000 10.9697 0.0186
16.5200 10.9831 0.0293
16.5400 10.9964 0.0185
16.5600 11.0098 0.0232
16.5800 11.0232 0.0302
16.6000 11.0365 0.0161
16.6200 11.0498 0.0248
16.6400 11.0632 0.0275
16.6600 11.0765 0.0104
16.6800 11.0899 0.0312
16.7000 11.1031 0.0253
16.7200 11.1164 0.0167
16.7400 11.1297 0.0282
16.7600 11.1431 0.0241
16.7800 11.1564 0.0145
16.8000 11.1698 0.0267
16.8200 11.1831 0.0190
16.8400 11.1964 0.0195
16.8600 11.2098 0.0299
16.8800 11.2231 0.0211
16.9000 11.2365 0.0214
16.9200 11.2498 0.0330
16.9400 11.2632 0.0205
16.9600 11.2765 0.0196
16.9800 11.2898 0.0317
17.0000 11.3031 0.0178
17.0200 11.3165 0.0244
17.0400 11.3298 0.0280
17.0600 11.3432 0.0200
17.0800 11.3565 0.0235
17.1000 11.3698 0.0281
17.1200 11.3832 0.0220
17.1400 11.3965 0.0237
17.1600 11.4098 0.0254
17.1800 11.4231 0.0254
17.2000 11.4364 0.0169
17.2200 11.4498 0.0275
17.2400 11.4631 0.0244
17.2600 11.4764 0.0207
17.2800 11.4898 0.0257
17.3000 11.5031 0.0263
17.3200 11.5165 0.0141
17.3400 11.5298 0.0288
17.3600 11.5431 0.0279
17.3800 11.5565 0.0164
17.4000 11.5699 0.0315
17.4200 11.5832 0.0270
17.4400 11.5965 0.0169
17.4600 11.6098 0.0326
17.4800 11.6232 0.0262
17.5000 11.6365 0.0170
17.5200 11.6498 0.0316
17.5400 11.6631 0.0222
17.5600 11.6764 0.0242
17.5800 11.6897 0.0351
17.6000 11.7031 0.0193
17.6200 11.7164 0.0181
17.6400 11.7298 0.0336
17.6600 11.7432 0.0170
17.6800 11.7565 0.0243
17.7000 11.7698 0.0290
17.7200 11.7832 0.0159
17.7400 11.7965 0.0214
17.7600 11.8099 0.0285
17.7800 11.8232 0.0153
17.8000 11.8364 0.0262
17.8200 11.8498 0.0274
17.8400 11.8631 0.0207
17.8600 11.8765 0.0229
17.8800 11.8898 0.0216
17.9000 11.9031 0.0184
17.9200 11.9164 0.0220
17.9400 11.9298 0.0208
17.9600 11.9431 0.0203
17.9800 11.9565 0.0263
18.0000 11.9698 0.0236
18.0200 11.9832 0.0249
18.0400 11.9965 0.0214
18.0600 12.0098 0.0236
18.0800 12.0231 0.0233
18.1000 12.0365 0.0212
18.1200 12.0499 0.0157
18.1400 12.0632 0.0266
18.1600 12.0765 0.0199
18.1800 12.0898 0.0277
18.2000 12.1031 0.0267
18.2200 12.1165 0.0235
18.2400 12.1298 0.0215
18.2600 12.1431 0.0277
18.2800 12.1564 0.0192
18.3000 12.1697 0.0263
18.3200 12.1831 0.0262
18.3400 12.1964 0.0159
18.3600 12.2098 0.0274
18.3800 12.2232 0.0288
18.4000 12.2365 0.0205
18.4200 12.2499 0.0236
18.4400 12.2632 0.0262
18.4600 12.2765 0.0221
18.4800 12.2898 0.0245
18.5000 12.3032 0.0284
18.5200 12.3165 0.0248
18.5400 12.3298 0.0272
18.5600 12.3431 0.0275
18.5800 12.3565 0.0286
18.6000 12.3698 0.0308
18.6200 12.3831 0.0234
18.6400 12.3964 0.0297
18.6600 12.4098 0.0250
18.6800 12.4231 0.0290
18.7000 12.4364 0.0288
18.7200 12.4498 0.0284
18.7400 12.4632 0.0271
18.7600 12.4765 0.0308
18.7800 12.4898 0.0272
18.8000 12.5031 0.0291
18.8200 12.5165 0.0287
18.8400 12.5298 0.0272
18.8600 12.5432 0.0307
18.8800 12.5565 0.0309
18.9000 12.5698 0.0228
18.9200 12.5831 0.0323
18.9400 12.5964 0.0347
18.9600 12.6097 0.0228
18.9800 12.6231 0.0344
19.0000 12.6364 0.0310
19.0200 12.6498 0.0234
19.0400 12.6631 0.0281
19.0600 12.6764 0.0326
19.0800 12.6898 0.0235
19.1000 12.7031 0.0344
19.1200 12.7165 0.0271
19.1400 12.7298 0.0231
19.1600 12.7431 0.0355
19.1800 12.7564 0.0338
19.2000 12.7698 0.0239
19.2200 12.7832 0.0317
19.2400 12.7965 0.0292
19.2600 12.8098 0.0253
19.2800 12.8232 0.0317
19.3000 12.8365 0.0278
19.3200 12.8498 0.0253
19.3400 12.8631 0.0311
19.3600 12.8764 0.0278
19.3800 12.8897 0.0296
19.4000 12.9031 0.0294
19.4200 12.9164 0.0234
19.4400 12.9297 0.0289
19.4600 12.9431 0.0233
19.4800 12.9565 0.0292
19.5000 12.9699 0.0224
19.5200 12.9832 0.0272
19.5400 12.9965 0.0268
19.5600 13.0099 0.0242
19.5800 13.0232 0.0284
19.6000 13.0365 0.0296
19.6200 13.0498 0.0184
19.6400 13.0631 0.0286
19.6600 13.0764 0.0249
19.6800 13.0898 0.0196
19.7000 13.1031 0.0300
19.7200 13.1164 0.0277
19.7400 13.1297 0.0179
19.7600 13.1430 0.0298
19.7800 13.1564 0.0238
19.8000 13.1698 0.0201
19.8200 13.1832 0.0324
19.8400 13.1965 0.0168
19.8600 13.2099 0.0183
19.8800 13.2232 0.0291
19.9000 13.2365 0.0198
19.9200 13.2499 0.0193
19.9400 13.2632 0.0310
19.9600 13.2765 0.0214
19.9800 13.2898 0.0222
20.0000 13.3031 0.0277
20.0200 13.3165 0.0259
20.0400 13.3298 0.0200
20.0600 13.3431 0.0265
20.0800 13.3564 0.0237
20.1000 13.3698 0.0220
20.1200 13.3831 0.0235
20.1400 13.3965 0.0236
20.1600 13.4098 0.0231
20.1800 13.4231 0.0267
20.2000 13.4365 0.0247
20.2200 13.4498 0.0189
20.2400 13.4631 0.0271
20.2600 13.4765 0.0292
20.2800 13.4898 0.0255
20.3000 13.5032 0.0314
20.3200 13.5165 0.0277
20.3400 13.5298 0.0216
20.3600 13.5431 0.0315
20.3800 13.5565 0.0341
20.4000 13.5698 0.0248
20.4200 13.5831 0.0281
20.4400 13.5964 0.0356
20.4600 13.6097 0.0246
20.4800 13.6231 0.0317
20.5000 13.6365 0.0294
20.5200 13.6498 0.0243
20.5400 13.6632 0.0344
20.5600 13.6765 0.0346
20.5800 13.6899 0.0228
20.6000 13.7032 0.0308
20.6200 13.7165 0.0313
20.6400 13.7298 0.0250
20.6600 13.7432 0.0318
20.6800 13.7565 0.0277
20.7000 13.7698 0.0244
20.7200 13.7831 0.0324
20.7400 13.7964 0.0272
20.7600 13.8098 0.0273
20.7800 13.8231 0.0341
20.8000 13.8364 0.0274
20.8200 13.8498 0.0270
20.8400 13.8631 0.0287
20.8600 13.8764 0.0262
20.8800 13.8898 0.0270
20.9000 13.9031 0.0259
20.9200 13.9165 0.0226
20.9400 13.9299 0.0289
20.9600 13.9432 0.0270
20.9800 13.9565 0.0285
21.0000 13.9699 0.0236
21.0200 13.9832 0.0287
21.0400 13.9965 0.0270
21.0600 14.0098 0.0253
21.0800 14.0231 0.0283
21.1000 14.0365 0.0285
21.1200 14.0498 0.0215
21.1400 14.0631 0.0346
21.1600 14.0764 0.0358
21.1800 14.0897 0.0218
21.2000 14.1031 0.0341
21.2200 14.1164 0.0288
21.2400 14.1298 0.0260
21.2600 14.1431 0.0351
21.2800 14.1565 0.0265
21.3000 14.1698 0.0229
21.3200 14.1832 0.0338
21.3400 14.1965 0.0256
21.3600 14.2098 0.0312
21.3800 14.2232 0.0335
21.4000 14.2365 0.0283
21.4200 14.2498 0.0266
21.4400 14.2631 0.0386
21.4600 14.2765 0.0268
21.4800 14.2898 0.0319
21.5000 14.3031 0.0322
21.5200 14.3164 0.0352
21.5400 14.3297 0.0337
21.5600 14.3431 0.0306
21.5800 14.3564 0.0368
21.6000 14.3697 0.0277
21.6200 14.3831 0.0291
21.6400 14.3965 0.0353
21.6600 14.4099 0.0311
21.6800 14.4232 0.0281
21.7000 14.4365 0.0379
21.7200 14.4499 0.0306
21.7400 14.4632 0.0318
21.7600 14.4765 0.0406
21.7800 14.4898 0.0266
21.8000 14.5031 0.0316
21.8200 14.5164 0.0444
21.8400 14.5297 0.0231
21.8600 14.5431 0.0355
21.8800 14.5564 0.0409
21.9000 14.5698 0.0318
21.9200 14.5831 0.0363
21.9400 14.5965 0.0438
21.9600 14.6098 0.0298
21.9800 14.6231 0.0419
22.0000 14.6365 0.0375
22.0200 14.6499 0.0297
22.0400 14.6632 0.0406
22.0600 14.6765 0.0321
22.0800 14.6898 0.0330
22.1000 14.7032 0.0451
22.1200 14.7165 0.0316
22.1400 14.7298 0.0363
22.1600 14.7431 0.0472
22.1800 14.7565 0.0305
22.2000 14.7698 0.0372
22.2200 14.7831 0.0422
22.2400 14.7964 0.0329
22.2600 14.8097 0.0371
22.2800 14.8231 0.0433
22.3000 14.8365 0.0301
22.3200 14.8498 0.0436
22.3400 14.8632 0.0398
22.3600 14.8765 0.0318
22.3800 14.8899 0.0428
22.4000 14.9032 0.0393
22.4200 14.9165 0.0302
22.4400 14.9298 0.0462
22.4600 14.9432 0.0346
22.4800 14.9565 0.0315
22.5000 14.9698 0.0438
22.5200 14.9831 0.0396
22.5400 14.9964 0.0312
22.5600 15.0098 0.0401
22.5800 15.0231 0.0373
22.6000 15.0364 0.0358
22.6200 15.0497 0.0384
22.6400 15.0631 0.0330
22.6600 15.0764 0.0399
22.6800 15.0898 0.0412
22.7000 15.1031 0.0364
22.7200 15.1165 0.0429
22.7400 15.1299 0.0413
22.7600 15.1432 0.0334
22.7800 15.1565 0.0435
22.8000 15.1698 0.0398
22.8200 15.1832 0.0369
22.8400 15.1965 0.0351
22.8600 15.2098 0.0415
22.8800 15.2231 0.0381
22.9000 15.2365 0.0395
22.9200 15.2498 0.0378
22.9400 15.2631 0.0371
22.9600 15.2764 0.0411
22.9800 15.2898 0.0381
23.0000 15.3031 0.0360
23.0200 15.3164 0.0374
23.0400 15.3298 0.0387
23.0600 15.3431 0.0398
23.0800 15.3564 0.0378
23.1000 15.3697 0.0407
23.1200 15.3831 0.0372
23.1400 15.3965 0.0358
23.1600 15.4099 0.0384
23.1800 15.4233 0.0364
23.2000 15.4366 0.0357
23.2200 15.4499 0.0322
23.2400 15.4631 0.0390
23.2600 15.4764 0.0367
23.2800 15.4898 0.0334
23.3000 15.5031 0.0381
23.3200 15.5164 0.0378
23.3400 15.5297 0.0320
23.3600 15.5431 0.0380
23.3800 15.5564 0.0373
23.4000 15.5698 0.0312
23.4200 15.5831 0.0381
23.4400 15.5965 0.0338
23.4600 15.6099 0.0316
23.4800 15.6232 0.0426
23.5000 15.6365 0.0333
23.5200 15.6498 0.0365
23.5400 15.6632 0.0405
23.5600 15.6765 0.0294
23.5800 15.6898 0.0359
23.6000 15.7031 0.0418
23.6200 15.7164 0.0332
23.6400 15.7298 0.0354
23.6600 15.7431 0.0452
23.6800 15.7564 0.0307
23.7000 15.7697 0.0402
23.7200 15.7831 0.0393
23.7400 15.7964 0.0335
23.7600 15.8097 0.0423
23.7800 15.8231 0.0390
23.8000 15.8365 0.0329
23.8200 15.8499 0.0459
23.8400 15.8632 0.0355
23.8600 15.8765 0.0361
23.8800 15.8898 0.0411
23.9000 15.9032 0.0376
23.9200 15.9165 0.0344
23.9400 15.9298 0.0420
23.9600 15.9431 0.0391
23.9800 15.9564 0.0397
24.0000 15.9698 0.0399
24.0200 15.9831 0.0406
24.0400 15.9964 0.0393
24.0600 16.0097 0.0403
24.0800 16.0231 0.0435
24.1000 16.0365 0.0350
24.1200 16.0498 0.0455
24.1400 16.0631 0.0444
24.1600 16.0765 0.0376
24.1800 16.0898 0.0408
24.2000 16.1031 0.0439
24.2200 16.1164 0.0367
24.2400 16.1298 0.0415
24.2600 16.1431 0.0404
24.2800 16.1565 0.0375
24.3000 16.1698 0.0424
24.3200 16.1831 0.0433
24.3400 16.1965 0.0369
24.3600 16.2098 0.0466
24.3800 16.2231 0.0437
24.4000 16.2364 0.0341
24.4200 16.2498 0.0501
24.4400 16.2631 0.0411
24.4600 16.2764 0.0335
24.4800 16.2898 0.0499
24.5000 16.3031 0.0436
24.5200 16.3164 0.0368
24.5400 16.3298 0.0546
24.5600 16.3432 0.0396
24.5800 16.3565 0.0412
24.6000 16.3698 0.0531
24.6200 16.3832 0.0430
24.6400 16.3965 0.0400
24.6600 16.4098 0.0557
24.6800 16.4231 0.0415
24.7000 16.4365 0.0452
24.7200 16.4498 0.0544
24.7400 16.4631 0.0364
24.7600 16.4764 0.0468
24.7800 16.4897 0.0594
24.8000 16.5031 0.0399
24.8200 16.5164 0.0460
24.8400 16.5298 0.0521
24.8600 16.5431 0.0411
24.8800 16.5565 0.0463
24.9000 16.5699 0.0506
24.9200 16.5832 0.0409
24.9400 16.5965 0.0501
24.9600 16.6098 0.0538
24.9800 16.6232 0.0443
25.0000 16.6365 0.0484
25.0200 16.6498 0.0467
25.0400 16.6631 0.0420
25.0600 16.6764 0.0478
25.0800 16.6898 0.0525
25.1000 16.7031 0.0395
25.1200 16.7164 0.0480
25.1400 16.7297 0.0460
25.1600 16.7431 0.0457
25.1800 16.7565 0.0450
25.2000 16.7698 0.0469
25.2200 16.7831 0.0393
25.2400 16.7964 0.0458
25.2600 16.8098 0.0462
25.2800 16.8232 0.0415
25.3000 16.8365 0.0429
25.3200 16.8498 0.0522
25.3400 16.8632 0.0399
25.3600 16.8765 0.0437
25.3800 16.8899 0.0539
25.4000 16.9031 0.0456
25.4200 16.9164 0.0445
25.4400 16.9298 0.0503
25.4600 16.9431 0.0452
25.4800 16.9564 0.0424
25.5000 16.9697 0.0521
25.5200 16.9830 0.0467
25.5400 16.9964 0.0445
25.5600 17.0097 0.0530
25.5800 17.0231 0.0500
25.6000 17.0365 0.0422
25.6200 17.0499 0.0567
25.6400 17.0632 0.0381
25.6600 17.0765 0.0451
25.6800 17.0898 0.0531
25.7000 17.1032 0.0397
25.7200 17.1165 0.0431
25.7400 17.1298 0.0535
25.7600 17.1431 0.0462
25.7800 17.1564 0.0478
25.8000 17.1698 0.0494
25.8200 17.1831 0.0404
25.8400 17.1965 0.0470
25.8600 17.2098 0.0487
25.8800 17.2231 0.0391
25.9000 17.2364 0.0422
25.9200 17.2497 0.0447
25.9400 17.2631 0.0437
25.9600 17.2765 0.0513
25.9800 17.2899 0.0394
26.0000 17.3032 0.0461
26.0200 17.3165 0.0496
26.0400 17.3298 0.0392
26.0600 17.3432 0.0424
26.0800 17.3565 0.0475
26.1000 17.3698 0.0341
26.1200 17.3831 0.0508
26.1400 17.3964 0.0444
26.1600 17.4098 0.0376
26.1800 17.4231 0.0505
26.2000 17.4364 0.0458
26.2200 17.4497 0.0361
26.2400 17.4631 0.0537
26.2600 17.4765 0.0436
26.2800 17.4898 0.0350
26.3000 17.5031 0.0519
26.3200 17.5165 0.0393
26.3400 17.5298 0.0436
26.3600 17.5431 0.0485
26.3800 17.5565 0.0369
26.4000 17.5698 0.0445
26.4200 17.5831 0.0497
26.4400 17.5965 0.0350
26.4600 17.6098 0.0455
26.4800 17.6231 0.0466
26.5000 17.6365 0.0361
26.5200 17.6498 0.0438
26.5400 17.6632 0.0491
26.5600 17.6764 0.0346
26.5800 17.6897 0.0490
26.6000 17.7030 0.0472
26.6200 17.7164 0.0381
26.6400 17.7297 0.0470
26.6600 17.7431 0.0435
26.6800 17.7564 0.0393
26.7000 17.7698 0.0460
26.7200 17.7832 0.0394
26.7400 17.7965 0.0434
26.7600 17.8098 0.0467
26.7800 17.8232 0.0430
26.8000 17.8365 0.0479
26.8200 17.8499 0.0480
26.8400 17.8631 0.0468
26.8600 17.8764 0.0494
26.8800 17.8898 0.0503
26.9000 17.9031 0.0469
26.9200 17.9164 0.0521
26.9400 17.9297 0.0475
26.9600 17.9430 0.0497
26.9800 17.9564 0.0510
27.0000 17.9697 0.0470
27.0200 17.9831 0.0496
27.0400 17.9964 0.0561
27.0600 18.0098 0.0486
27.0800 18.0232 0.0491
27.1000 18.0365 0.0505
27.1200 18.0498 0.0483
27.1400 18.0632 0.0489
27.1600 18.0765 0.0517
27.1800 18.0898 0.0497
27.2000 18.1031 0.0484
27.2200 18.1164 0.0505
27.2400 18.1298 0.0518
27.2600 18.1431 0.0465
27.2800 18.1564 0.0497
27.3000 18.1697 0.0534
27.3200 18.1831 0.0493
27.3400 18.1964 0.0510
27.3600 18.2098 0.0427
27.3800 18.2231 0.0482
27.4000 18.2365 0.0507
27.4200 18.2498 0.0430
27.4400 18.2632 0.0396
27.4600 18.2765 0.0498
27.4800 18.2898 0.0443
27.5000 18.3032 0.0449
27.5200 18.3165 0.0480
27.5400 18.3299 0.0411
27.5600 18.3432 0.0415
27.5800 18.3565 0.0517
27.6000 18.3698 0.0372
27.6200 18.3832 0.0410
27.6400 18.3965 0.0495
27.6600 18.4097 0.0395
27.6800 18.4231 0.0462
27.7000 18.4364 0.0470
27.7200 18.4498 0.0364
27.7400 18.4631 0.0437
27.7600 18.4765 0.0492
27.7800 18.4898 0.0346
27.8000 18.5032 0.0459
27.8200 18.5165 0.0408
27.8400 18.5298 0.0415
27.8600 18.5432 0.0502
27.8800 18.5565 0.0439
27.9000 18.5698 0.0399
27.9200 18.5831 0.0502
27.9400 18.5964 0.0473
27.9600 18.6098 0.0391
27.9800 18.6231 0.0494
28.0000 18.6364 0.0489
28.0200 18.6498 0.0373
28.0400 18.6631 0.0517
28.0600 18.6764 0.0443
28.0800 18.6898 0.0439
28.1000 18.7031 0.0500
28.1200 18.7164 0.0462
28.1400 18.7298 0.0440
28.1600 18.7432 0.0498
28.1800 18.7565 0.0480
28.2000 18.7698 0.0411
28.2200 18.7832 0.0524
28.2400 18.7965 0.0488
28.2600 18.8099 0.0458
28.2800 18.8232 0.0522
28.3000 18.8365 0.0558
28.3200 18.8498 0.0437
28.3400 18.8631 0.0503
28.3600 18.8764 0.0566
28.3800 18.8897 0.0437
28.4000 18.9031 0.0468
28.4200 18.9164 0.0586
28.4400 18.9298 0.0464
28.4600 18.9431 0.0522
28.4800 18.9564 0.0558
28.5000 18.9698 0.0455
28.5200 18.9832 0.0542
28.5400 18.9965 0.0575
28.5600 19.0098 0.0443
28.5800 19.0231 0.0614
28.6000 19.0365 0.0608
28.6200 19.0498 0.0479
28.6400 19.0632 0.0620
28.6600 19.0765 0.0605
28.6800 19.0898 0.0502
28.7000 19.1032 0.0606
28.7200 19.1165 0.0645
28.7400 19.1297 0.0469
28.7600 19.1430 0.0669
28.7800 19.1564 0.0612
28.8000 19.1697 0.0569
28.8200 19.1831 0.0663
28.8400 19.1964 0.0620
28.8600 19.2098 0.0526
28.8800 19.2232 0.0624
28.9000 19.2365 0.0626
28.9200 19.2499 0.0582
28.9400 19.2632 0.0629
28.9600 19.2766 0.0666
28.9800 19.2899 0.0537
29.0000 19.3032 0.0696
29.0200 19.3164 0.0724
29.0400 19.3297 0.0621
29.0600 19.3431 0.0685
29.0800 19.3564 0.0615
29.1000 19.3698 0.0628
29.1200 19.3831 0.0693
29.1400 19.3965 0.0648
29.1600 19.4098 0.0573
29.1800 19.4231 0.0684
29.2000 19.4365 0.0668
29.2200 19.4498 0.0641
29.2400 19.4632 0.0658
29.2600 19.4765 0.0671
29.2800 19.4898 0.0612
29.3000 19.5031 0.0624
29.3200 19.5165 0.0671
29.3400 19.5298 0.0594
29.3600 19.5431 0.0585
29.3800 19.5564 0.0717
29.4000 19.5698 0.0612
29.4200 19.5831 0.0651
29.4400 19.5964 0.0698
29.4600 19.6097 0.0614
29.4800 19.6231 0.0618
29.5000 19.6364 0.0695
29.5200 19.6498 0.0541
29.5400 19.6631 0.0637
29.5600 19.6764 0.0701
29.5800 19.6898 0.0530
29.6000 19.7031 0.0666
29.6200 19.7165 0.0728
29.6400 19.7298 0.0538
29.6600 19.7431 0.0692
29.6800 19.7565 0.0684
29.7000 19.7698 0.0493
29.7200 19.7831 0.0736
29.7400 19.7964 0.0654
29.7600 19.8098 0.0561
29.7800 19.8231 0.0708
29.8000 19.8365 0.0668
29.8200 19.8497 0.0539
29.8400 19.8631 0.0708
29.8600 19.8764 0.0637
29.8800 19.8898 0.0552
29.9000 19.9031 0.0712
29.9200 19.9164 0.0612
29.9400 19.9298 0.0551
29.9600 19.9432 0.0681
29.9800 19.9565 0.0542
30.0000 19.9699 0.0557
30.0200 19.9832 0.0685
30.0400 19.9965 0.0535
30.0600 20.0098 0.0552
30.0800 20.0231 0.0677
30.1000 20.0364 0.0580
30.1200 20.0498 0.0527
30.1400 20.0631 0.0650
30.1600 20.0765 0.0529
30.1800 20.0898 0.0539
30.2000 20.1031 0.0645
30.2200 20.1164 0.0564
30.2400 20.1298 0.0554
30.2600 20.1431 0.0602
30.2800 20.1564 0.0521
30.3000 20.1698 0.0593
30.3200 20.1831 0.0594
30.3400 20.1965 0.0554
30.3600 20.2098 0.0572
30.3800 20.2231 0.0615
30.4000 20.2365 0.0522
30.4200 20.2499 0.0600
30.4400 20.2632 0.0595
30.4600 20.2765 0.0539
30.4800 20.2898 0.0628
30.5000 20.3031 0.0596
30.5200 20.3165 0.0580
30.5400 20.3298 0.0604
30.5600 20.3431 0.0620
30.5800 20.3564 0.0601
30.6000 20.3698 0.0613
30.6200 20.3831 0.0649
30.6400 20.3964 0.0625
30.6600 20.4098 0.0616
30.6800 20.4232 0.0660
30.7000 20.4366 0.0594
30.7200 20.4499 0.0706
30.7400 20.4632 0.0678
30.7600 20.4765 0.0635
30.7800 20.4898 0.0665
30.8000 20.5032 0.0633
30.8200 20.5164 0.0622
30.8400 20.5298 0.0730
30.8600 20.5431 0.0656
30.8800 20.5564 0.0641
30.9000 20.5697 0.0765
30.9200 20.5831 0.0663
30.9400 20.5964 0.0676
30.9600 20.6098 0.0778
30.9800 20.6231 0.0686
31.0000 20.6364 0.0678
31.0200 20.6498 0.0776
31.0400 20.6632 0.0902
31.0600 20.6765 0.1256
31.0800 20.6898 0.1379
31.1000 20.7032 0.1308
31.1200 20.7165 0.1185
31.1400 20.7298 0.1148
31.1600 20.7431 0.1046
31.1800 20.7564 0.1060
31.2000 20.7697 0.1042
31.2200 20.7831 0.1035
31.2400 20.7964 0.1020
31.2600 20.8097 0.1043
31.2800 20.8231 0.1038
31.3000 20.8364 0.1042
31.3200 20.8498 0.1095
31.3400 20.8632 0.1076
31.3600 20.8765 0.1095
31.3800 20.8898 0.1205
31.4000 20.9032 0.1135
31.4200 20.9165 0.1072
31.4400 20.9298 0.1133
31.4600 20.9431 0.1096
31.4800 20.9565 0.1137
31.5000 20.9698 0.1154
31.5200 20.9832 0.1136
31.5400 20.9965 0.1083
31.5600 21.0098 0.1169
31.5800 21.0232 0.1165
31.6000 21.0365 0.1127
31.6200 21.0498 0.1153
31.6400 21.0631 0.1141
31.6600 21.0764 0.1088
31.6800 21.0898 0.1172
31.7000 21.1031 0.1083
31.7200 21.1164 0.1101
31.7400 21.1298 0.1134
31.7600 21.1431 0.1062
31.7800 21.1565 0.1027
31.8000 21.1698 0.1127
31.8200 21.1831 0.1116
31.8400 21.1965 0.1108
31.8600 21.2098 0.1146
31.8800 21.2232 0.1055
31.9000 21.2365 0.1033
31.9200 21.2498 0.1145
31.9400 21.2631 0.1089
31.9600 21.2765 0.1041
31.9800 21.2898 0.1160
32.0000 21.3031 0.1050
32.0200 21.3164 0.1046
32.0400 21.3298 0.1124
32.0600 21.3431 0.1060
32.0800 21.3564 0.1001
32.1000 21.3698 0.1146
32.1200 21.3832 0.0988
32.1400 21.3965 0.1077
32.1600 21.4098 0.1146
32.1800 21.4232 0.1046
32.2000 21.4365 0.1057
32.2200 21.4498 0.1107
32.2400 21.4631 0.1025
32.2600 21.4764 0.1042
32.2800 21.4898 0.1088
32.3000 21.5031 0.1041
32.3200 21.5165 0.1132
32.3400 21.5298 0.1119
32.3600 21.5431 0.1036
32.3800 21.5564 0.1063
32.4000 21.5698 0.1051
32.4200 21.5831 0.1011
32.4400 21.5964 0.1081
32.4600 21.6098 0.1049
32.4800 21.6231 0.1035
32.5000 21.6365 0.1054
32.5200 21.6498 0.1054
32.5400 21.6632 0.1037
32.5600 21.6765 0.1056
32.5800 21.6899 0.0996
32.6000 21.7032 0.1078
32.6200 21.7165 0.1027
32.6400 21.7298 0.1034
32.6600 21.7431 0.1031
32.6800 21.7565 0.1036
32.7000 21.7698 0.1000
32.7200 21.7831 0.1054
32.7400 21.7964 0.0970
32.7600 21.8097 0.1017
32.7800 21.8231 0.1041
32.8000 21.8364 0.0947
32.8200 21.8498 0.1048
32.8400 21.8632 0.1046
32.8600 21.8765 0.0941
32.8800 21.8899 0.1046
32.9000 21.9032 0.1072
32.9200 21.9165 0.0936
32.9400 21.9299 0.1048
32.9600 21.9432 0.0977
32.9800 21.9565 0.0951
33.0000 21.9698 0.1077
33.0200 21.9831 0.1070
33.0400 21.9965 0.0977
33.0600 22.0098 0.1057
33.0800 22.0231 0.0991
33.1000 22.0364 0.0974
33.1200 22.0498 0.1055
33.1400 22.0631 0.1031
33.1600 22.0764 0.0936
33.1800 22.0898 0.1096
33.2000 22.1031 0.1007
33.2200 22.1165 0.0917
33.2400 22.1298 0.1107
33.2600 22.1431 0.0989
33.2800 22.1565 0.0954
33.3000 22.1698 0.1028
33.3200 22.1832 0.0928
33.3400 22.1965 0.0950
33.3600 22.2098 0.1040
33.3800 22.2231 0.0947
33.4000 22.2364 0.1001
33.4200 22.2498 0.1051
33.4400 22.2631 0.0905
33.4600 22.2764 0.0949
33.4800 22.2898 0.1092
33.5000 22.3031 0.0904
33.5200 22.3164 0.0970
33.5400 22.3298 0.1031
33.5600 22.3431 0.0936
33.5800 22.3565 0.0955
33.6000 22.3698 0.1014
33.6200 22.3831 0.0945
33.6400 22.3964 0.0963
33.6600 22.4098 0.0994
33.6800 22.4232 0.0961
33.7000 22.4365 0.0996
33.7200 22.4498 0.0966
33.7400 22.4632 0.0963
33.7600 22.4765 0.0963
33.7800 22.4898 0.0972
33.8000 22.5031 0.1000
33.8200 22.5164 0.1015
33.8400 22.5297 0.0999
33.8600 22.5431 0.1014
33.8800 22.5564 0.0932
33.9000 22.5698 0.1016
33.9200 22.5831 0.0998
33.9400 22.5965 0.0919
33.9600 22.6099 0.0969
33.9800 22.6232 0.1013
34.0000 22.6365 0.0955
34.0200 22.6499 0.1042
34.0400 22.6632 0.0938
34.0600 22.6765 0.0935
34.0800 22.6898 0.1051
34.1000 22.7031 0.0999
34.1200 22.7164 0.0934
34.1400 22.7297 0.1038
34.1600 22.7431 0.0959
34.1800 22.7564 0.0981
34.2000 22.7697 0.1081
34.2200 22.7831 0.0929
34.2400 22.7964 0.1001
34.2600 22.8098 0.1044
34.2800 22.8231 0.0950
34.3000 22.8365 0.1009
34.3200 22.8499 0.1007
34.3400 22.8632 0.0937
34.3600 22.8765 0.1049
34.3800 22.8899 0.0981
34.4000 22.9032 0.0951
34.4200 22.9165 0.1091
34.4400 22.9298 0.1050
34.4600 22.9431 0.0952
34.4800 22.9565 0.1078
34.5000 22.9698 0.0977
34.5200 22.9831 0.1043
34.5400 22.9964 0.1108
34.5600 23.0097 0.0996
34.5800 23.0231 0.1033
34.6000 23.0364 0.1048
34.6200 23.0497 0.1006
34.6400 23.0631 0.1107
34.6600 23.0765 0.1053
34.6800 23.0898 0.0914
34.7000 23.1031 0.1091
34.7200 23.1165 0.1031
34.7400 23.1298 0.0929
34.7600 23.1432 0.1099
34.7800 23.1565 0.1091
34.8000 23.1698 0.0942
34.8200 23.1831 0.1069
34.8400 23.1965 0.1045
34.8600 23.2098 0.0980
34.8800 23.2231 0.0994
34.9000 23.2364 0.1100
34.9200 23.2497 0.0960
34.9400 23.2631 0.0936
34.9600 23.2765 0.1062
34.9800 23.2898 0.1031
35.0000 23.3031 0.0973
35.0200 23.3165 0.1074
35.0400 23.3299 0.0960
35.0600 23.3432 0.0974
35.0800 23.3565 0.1074
35.1000 23.3698 0.1024
35.1200 23.3832 0.0958
35.1400 23.3965 0.1065
35.1600 23.4098 0.1098
35.1800 23.4231 0.0952
35.2000 23.4365 0.1070
35.2200 23.4498 0.1013
35.2400 23.4631 0.0996
35.2600 23.4764 0.1050
35.2800 23.4898 0.0985
35.3000 23.5031 0.0978
35.3200 23.5164 0.1073
35.3400 23.5298 0.0965
35.3600 23.5431 0.1026
35.3800 23.5565 0.1075
35.4000 23.5699 0.0979
35.4200 23.5832 0.0986
35.4400 23.5965 0.1083
35.4600 23.6098 0.0908
35.4800 23.6232 0.1041
35.5000 23.6365 0.1095
35.5200 23.6498 0.0912
35.5400 23.6631 0.1038
35.5600 23.6765 0.1074
35.5800 23.6898 0.0926
35.6000 23.7031 0.1003
35.6200 23.7164 0.1103
35.6400 23.7298 0.0933
35.6600 23.7431 0.1014
35.6800 23.7564 0.1045
35.7000 23.7698 0.0940
35.7200 23.7831 0.1031
35.7400 23.7965 0.1015
35.7600 23.8098 0.0911
35.7800 23.8231 0.1066
35.8000 23.8365 0.0969
35.8200 23.8498 0.0962
35.8400 23.8632 0.1029
35.8600 23.8765 0.1012
35.8800 23.8898 0.0960
35.9000 23.9031 0.1016
35.9200 23.9165 0.0989
35.9400 23.9298 0.1017
35.9600 23.9431 0.0985
35.9800 23.9564 0.1022
36.0000 23.9697 0.1009
36.0200 23.9831 0.0969
36.0400 23.9964 0.1036
36.0600 24.0097 0.0986
36.0800 24.0231 0.1012
36.1000 24.0365 0.1012
36.1200 24.0499 0.0960
36.1400 24.0632 0.0936
36.1600 24.0765 0.1082
36.1800 24.0899 0.1032
36.2000 24.1032 0.0980
36.2200 24.1165 0.1033
36.2400 24.1298 0.1010
36.2600 24.1431 0.1007
36.2800 24.1564 0.1060
36.3000 24.1698 0.0974
36.3200 24.1831 0.1037
36.3400 24.1964 0.1039
36.3600 24.2098 0.1068
36.3800 24.2231 0.1022
36.4000 24.2365 0.1020
36.4200 24.2498 0.1000
36.4400 24.2632 0.1009
36.4600 24.2765 0.1055
36.4800 24.2899 0.0996
36.5000 24.3032 0.1007
36.5200 24.3165 0.1073
36.5400 24.3298 0.1013
36.5600 24.3432 0.1017
36.5800 24.3565 0.1078
36.6000 24.3698 0.0995
36.6200 24.3831 0.0991
36.6400 24.3964 0.1074
36.6600 24.4098 0.0988
36.6800 24.4231 0.1010
36.7000 24.4364 0.1116
36.7200 24.4497 0.0913
36.7400 24.4631 0.1041
36.7600 24.4765 0.1087
36.7800 24.4898 0.0970
36.8000 24.5031 0.1050
36.8200 24.5165 0.1066
36.8400 24.5299 0.0929
36.8600 24.5432 0.1063
36.8800 24.5565 0.1058
36.9000 24.5698 0.0931
36.9200 24.5832 0.1081
36.9400 24.5965 0.1046
36.9600 24.6098 0.0977
36.9800 24.6231 0.1062
37.0000 24.6365 0.1026
37.0200 24.6498 0.0965
37.0400 24.6631 0.1047
37.0600 24.6764 0.1018
37.0800 24.6897 0.1041
37.1000 24.7031 0.0972
37.1200 24.7164 0.1053
37.1400 24.7298 0.1082
37.1600 24.7431 0.0995
37.1800 24.7565 0.1026
37.2000 24.7699 0.1007
37.2200 24.7832 0.0960
37.2400 24.7965 0.1058
37.2600 24.8098 0.1020
37.2800 24.8232 0.0955
37.3000 24.8365 0.1060
37.3200 24.8498 0.1080
37.3400 24.8631 0.0952
37.3600 24.8764 0.1075
37.3800 24.8898 0.1003
37.4000 24.9031 0.0952
37.4200 24.9165 0.1084
37.4400 24.9298 0.0977
37.4600 24.9431 0.1034
37.4800 24.9564 0.1066
37.5000 24.9698 0.1014
37.5200 24.9831 0.0979
37.5400 24.9964 0.1128
37.5600 25.0098 0.1007
37.5800 25.0231 0.0984
37.6000 25.0365 0.1089
37.6200 25.0498 0.1069
37.6400 25.0632 0.1024
37.6600 25.0765 0.1061
37.6800 25.0898 0.1045
37.7000 25.1031 0.1076
37.7200 25.1165 0.1030
37.7400 25.1298 0.1046
37.7600 25.1431 0.1021
37.7800 25.1564 0.1034
37.8000 25.1697 0.1073
37.8200 25.1831 0.1002
37.8400 25.1964 0.1045
37.8600 25.2098 0.1069
37.8800 25.2231 0.0990
37.9000 25.2365 0.1091
37.9200 25.2499 0.1046
37.9400 25.2632 0.0942
37.9600 25.2765 0.1073
37.9800 25.2898 0.1046
38.0000 25.3032 0.0957
38.0200 25.3165 0.1076
38.0400 25.3298 0.1084
38.0600 25.3431 0.0910
38.0800 25.3564 0.1155
38.1000 25.3698 0.1052
38.1200 25.3831 0.0966
38.1400 25.3964 0.1119
38.1600 25.4097 0.1030
38.1800 25.4231 0.0900
38.2000 25.4364 0.1131
38.2200 25.4497 0.1037
38.2400 25.4631 0.0920
38.2600 25.4764 0.1089
38.2800 25.4898 0.1025
38.3000 25.5032 0.0960
38.3200 25.5165 0.1094
38.3400 25.5298 0.0959
38.3600 25.5432 0.0983
38.3800 25.5565 0.1059
38.4000 25.5698 0.0945
38.4200 25.5831 0.1025
38.4400 25.5964 0.1031
38.4600 25.6098 0.0995
38.4800 25.6231 0.0976
38.5000 25.6364 0.1054
38.5200 25.6497 0.0999
38.5400 25.6631 0.1008
38.5600 25.6765 0.0976
38.5800 25.6898 0.0981
38.6000 25.7031 0.1025
38.6200 25.7165 0.0998
38.6400 25.7298 0.0949
38.6600 25.7432 0.1005
38.6800 25.7565 0.0992
38.7000 25.7698 0.1013
38.7200 25.7831 0.1020
38.7400 25.7965 0.0948
38.7600 25.8098 0.0971
38.7800 25.8231 0.1050
38.8000 25.8365 0.0977
38.8200 25.8498 0.0967
38.8400 25.8632 0.1035
38.8600 25.8765 0.0962
38.8800 25.8898 0.1031
38.9000 25.9031 0.1027
38.9200 25.9164 0.0963
38.9400 25.9298 0.1019
38.9600 25.9431 0.1019
38.9800 25.9564 0.0957
39.0000 25.9698 0.1073
39.0200 25.9832 0.0962
39.0400 25.9965 0.1006
39.0600 26.0098 0.1057
39.0800 26.0231 0.1010
39.1000 26.0365 0.0991
39.1200 26.0498 0.1107
39.1400 26.0631 0.0992
39.1600 26.0765 0.0956
39.1800 26.0898 0.1093
39.2000 26.1031 0.0951
39.2200 26.1164 0.1045
39.2400 26.1297 0.1097
39.2600 26.1431 0.0925
39.2800 26.1564 0.1048
39.3000 26.1698 0.1055
39.3200 26.1831 0.0948
39.3400 26.1965 0.1031
39.3600 26.2098 0.1090
39.3800 26.2232 0.0931
39.4000 26.2365 0.1039
39.4200 26.2499 0.1086
39.4400 26.2632 0.0923
39.4600 26.2765 0.1099
39.4800 26.2898 0.0992
39.5000 26.3031 0.1015
39.5200 26.3164 0.1090
39.5400 26.3298 0.0974
39.5600 26.3431 0.0968
39.5800 26.3564 0.1074
39.6000 26.3697 0.0957
39.6200 26.3831 0.1013
39.6400 26.3965 0.1056
39.6600 26.4098 0.0944
39.6800 26.4231 0.1058
39.7000 26.4365 0.1109
39.7200 26.4498 0.0875
39.7400 26.4632 0.1053
39.7600 26.4765 0.1079
39.7800 26.4898 0.0895
39.8000 26.5032 0.1072
39.8200 26.5166 0.1006
39.8400 26.5299 0.1016
39.8600 26.5432 0.1051
39.8800 26.5565 0.0938
39.9000 26.5698 0.1044
39.9200 26.5831 0.1053
39.9400 26.5964 0.0850
39.9600 26.6097 0.1140
39.9800 26.6230 0.1058
40.0000 26.6364 0.0817
40.0200 26.6497 0.1111
40.0400 26.6631 0.1018
40.0600 26.6765 0.0907
40.0800 26.6898 0.1151
40.1000 26.7032 0.0866
40.1200 26.7165 0.0995
40.1400 26.7298 0.1126
40.1600 26.7432 0.0856
40.1800 26.7565 0.1006
40.2000 26.7698 0.1066
40.2200 26.7831 0.0934
40.2400 26.7964 0.1042
40.2600 26.8098 0.1031
40.2800 26.8231 0.0981
40.3000 26.8365 0.1067
40.3200 26.8498 0.0932
40.3400 26.8631 0.0984
40.3600 26.8764 0.1083
40.3800 26.8898 0.0906
40.4000 26.9031 0.1080
40.4200 26.9164 0.1072
40.4400 26.9298 0.0861
40.4600 26.9432 0.1141
40.4800 26.9565 0.0992
40.5000 26.9698 0.0902
40.5200 26.9832 0.1127
40.5400 26.9965 0.1019
40.5600 27.0098 0.0858
40.5800 27.0231 0.1125
40.6000 27.0364 0.1049
40.6200 27.0498 0.0922
40.6400 27.0631 0.1188
40.6600 27.0764 0.0938
40.6800 27.0897 0.0946
40.7000 27.1031 0.1161
40.7200 27.1164 0.0915
40.7400 27.1298 0.0962
40.7600 27.1431 0.1176
40.7800 27.1565 0.0881
40.8000 27.1698 0.1005
40.8200 27.1831 0.1101
40.8400 27.1965 0.0912
40.8600 27.2098 0.1011
40.8800 27.2231 0.1122
40.9000 27.2365 0.0857
40.9200 27.2498 0.1020
40.9400 27.2631 0.1151
40.9600 27.2765 0.0890
40.9800 27.2898 0.1012
41.0000 27.3032 0.1170
41.0200 27.3165 0.0870
41.0400 27.3298 0.1053
41.0600 27.3431 0.1161
41.0800 27.3564 0.0828
41.1000 27.3698 0.1048
41.1200 27.3831 0.1118
41.1400 27.3964 0.0853
41.1600 27.4098 0.1070
41.1800 27.4232 0.1084
41.2000 27.4365 0.0865
41.2200 27.4499 0.1087
41.2400 27.4632 0.1044
41.2600 27.4765 0.0915
41.2800 27.4899 0.1036
41.3000 27.5031 0.1045
41.3200 27.5164 0.0914
41.3400 27.5298 0.1040
41.3600 27.5431 0.1006
41.3800 27.5564 0.0905
41.4000 27.5697 0.1018
41.4200 27.5830 0.1065
41.4400 27.5964 0.0900
41.4600 27.6098 0.0990
41.4800 27.6231 0.1040
41.5000 27.6364 0.0936
41.5200 27.6498 0.0923
41.5400 27.6632 0.1059
41.5600 27.6765 0.0922
41.5800 27.6898 0.0966
41.6000 27.7032 0.1077
41.6200 27.7165 0.0877
41.6400 27.7298 0.0994
41.6600 27.7431 0.1013
41.6800 27.7564 0.0917
41.7000 27.7698 0.0993
41.7200 27.7831 0.1019
41.7400 27.7964 0.0899
41.7600 27.8097 0.1024
41.7800 27.8231 0.0982
41.8000 27.8364 0.0908
41.8200 27.8498 0.1023
41.8400 27.8631 0.1061
41.8600 27.8765 0.0891
41.8800 27.8898 0.1065
41.9000 27.9032 0.1024
41.9200 27.9165 0.0930
41.9400 27.9298 0.1029
41.9600 27.9432 0.0998
41.9800 27.9565 0.0936
42.0000 27.9699 0.1061
42.0200 27.9832 0.0993
42.0400 27.9965 0.0966
42.0600 28.0098 0.1019
42.0800 28.0232 0.0967
42.1000 28.0365 0.0997
42.1200 28.0497 0.1026
42.1400 28.0630 0.0975
42.1600 28.0764 0.0991
42.1800 28.0898 0.0984
42.2000 28.1031 0.0965
42.2200 28.1164 0.1069
42.2400 28.1298 0.0988
42.2600 28.1432 0.1003
42.2800 28.1565 0.0970
42.3000 28.1698 0.0942
42.3200 28.1832 0.1020
42.3400 28.1965 0.1044
42.3600 28.2098 0.0918
42.3800 28.2231 0.1070
42.4000 28.2364 0.0996
42.4200 28.2498 0.0966
42.4400 28.2631 0.1031
42.4600 28.2765 0.0970
42.4800 28.2898 0.0932
42.5000 28.3031 0.1016
42.5200 28.3164 0.0930
42.5400 28.3298 0.0919
42.5600 28.3431 0.1094
42.5800 28.3564 0.0958
42.6000 28.3698 0.0987
42.6200 28.3832 0.1017
42.6400 28.3965 0.0931
42.6600 28.4098 0.0991
42.6800 28.4232 0.1045
42.7000 28.4365 0.0874
42.7200 28.4499 0.0954
42.7400 28.4632 0.1049
42.7600 28.4765 0.0941
42.7800 28.4898 0.0986
42.8000 28.5031 0.1038
42.8200 28.5164 0.0938
42.8400 28.5297 0.1013
42.8600 28.5431 0.0952
42.8800 28.5564 0.0986
42.9000 28.5698 0.1030
42.9200 28.5831 0.0936
42.9400 28.5964 0.0942
42.9600 28.6098 0.1013
42.9800 28.6232 0.0938
43.0000 28.6365 0.0974
43.0200 28.6498 0.0982
43.0400 28.6631 0.0929
43.0600 28.6765 0.1001
43.0800 28.6898 0.0949
43.1000 28.7032 0.0959
43.1200 28.7165 0.1045
43.1400 28.7298 0.0973
43.1600 28.7432 0.0938
43.1800 28.7565 0.1005
43.2000 28.7698 0.0970
43.2200 28.7831 0.1005
43.2400 28.7964 0.0983
43.2600 28.8097 0.0973
43.2800 28.8230 0.0957
43.3000 28.8364 0.0974
43.3200 28.8498 0.0981
43.3400 28.8632 0.0995
43.3600 28.8766 0.1000
43.3800 28.8899 0.0931
43.4000 28.9032 0.0959
43.4200 28.9166 0.1036
43.4400 28.9299 0.0955
43.4600 28.9432 0.0974
43.4800 28.9564 0.1047
43.5000 28.9697 0.0962
43.5200 28.9831 0.0960
43.5400 28.9964 0.1030
43.5600 29.0097 0.0988
43.5800 29.0231 0.0953
43.6000 29.0364 0.0985
43.6200 29.0498 0.0965
43.6400 29.0631 0.0970
43.6600 29.0765 0.0978
43.6800 29.0898 0.0957
43.7000 29.1032 0.0917
43.7200 29.1165 0.1029
43.7400 29.1298 0.0971
43.7600 29.1431 0.0934
43.7800 29.1565 0.1064
43.8000 29.1698 0.0954
43.8200 29.1831 0.0912
43.8400 29.1964 0.1070
43.8600 29.2098 0.0993
43.8800 29.2231 0.0900
43.9000 29.2364 0.1032
43.9200 29.2497 0.0931
43.9400 29.2631 0.0963
43.9600 29.2764 0.1055
43.9800 29.2898 0.0916
44.0000 29.3031 0.0949
44.0200 29.3164 0.1115
44.0400 29.3298 0.0884
44.0600 29.3432 0.0913
44.0800 29.3565 0.1093
44.1000 29.3698 0.0928
44.1200 29.3831 0.0975
44.1400 29.3965 0.1064
44.1600 29.4099 0.0870
44.1800 29.4232 0.1029
44.2000 29.4365 0.1003
44.2200 29.4498 0.0883
44.2400 29.4631 0.1021
44.2600 29.4764 0.0987
44.2800 29.4897 0.0893
44.3000 29.5031 0.1050
44.3200 29.5164 0.0969
44.3400 29.5297 0.0916
44.3600 29.5431 0.1007
44.3800 29.5564 0.0958
44.4000 29.5698 0.1000
44.4200 29.5832 0.1003
44.4400 29.5965 0.0938
44.4600 29.6098 0.0961
44.4800 29.6232 0.1021
44.5000 29.6365 0.0940
44.5200 29.6498 0.1047
44.5400 29.6631 0.0997
44.5600 29.6764 0.0926
44.5800 29.6898 0.1032
44.6000 29.7031 0.1011
44.6200 29.7165 0.0874
44.6400 29.7298 0.1070
44.6600 29.7431 0.0982
44.6800 29.7564 0.0931
44.7000 29.7698 0.1057
44.7200 29.7831 0.1000
44.7400 29.7964 0.0954
44.7600 29.8098 0.1070
44.7800 29.8231 0.0924
44.8000 29.8365 0.0941
44.8200 29.8498 0.1074
44.8400 29.8631 0.0902
44.8600 29.8765 0.1002
44.8800 29.8899 0.1111
44.9000 29.9032 0.0886
44.9200 29.9165 0.0973
44.9400 29.9298 0.1134
44.9600 29.9431 0.0871
44.9800 29.9565 0.1031
45.0000 29.9698 0.1030
45.0200 29.9831 0.0894
45.0400 29.9964 0.1039
45.0600 30.0098 0.1019
45.0800 30.0231 0.0870
45.1000 30.0364 0.1075
45.1200 30.0498 0.1029
45.1400 30.0632 0.0863
45.1600 30.0765 0.1013
45.1800 30.0898 0.1041
45.2000 30.1031 0.0850
45.2200 30.1165 0.1047
45.2400 30.1298 0.1007
45.2600 30.1432 0.0861
45.2800 30.1565 0.1071
45.3000 30.1698 0.1006
45.3200 30.1831 0.0863
45.3400 30.1964 0.1046
45.3600 30.2098 0.1008
45.3800 30.2231 0.0846
45.4000 30.2364 0.1081
45.4200 30.2497 0.0960
45.4400 30.2631 0.0876
45.4600 30.2764 0.1059
45.4800 30.2898 0.0953
45.5000 30.3032 0.0884
45.5200 30.3165 0.1081
45.5400 30.3299 0.0907
45.5600 30.3432 0.0877
45.5800 30.3565 0.1077
45.6000 30.3699 0.0927
45.6200 30.3832 0.0884
45.6400 30.3964 0.1102
45.6600 30.4097 0.0956
45.6800 30.4231 0.0925
45.7000 30.4364 0.1041
45.7200 30.4497 0.0964
45.7400 30.4631 0.0950
45.7600 30.4764 0.0994
45.7800 30.4898 0.0955
45.8000 30.5031 0.0949
45.8200 30.5165 0.1010
45.8400 30.5298 0.0938
45.8600 30.5431 0.1012
45.8800 30.5565 0.0980
45.9000 30.5698 0.0978
45.9200 30.5831 0.0998
45.9400 30.5965 0.0973
45.9600 30.6098 0.0966
45.9800 30.6232 0.0977
46.0000 30.6365 0.0951
46.0200 30.6498 0.1005
46.0400 30.6632 0.0964
46.0600 30.6765 0.0965
46.0800 30.6898 0.0990
46.1000 30.7031 0.0995
46.1200 30.7164 0.0951
46.1400 30.7298 0.0999
46.1600 30.7431 0.0939
46.1800 30.7564 0.0959
46.2000 30.7698 0.1062
46.2200 30.7831 0.0912
46.2400 30.7965 0.0949
46.2600 30.8098 0.0954
46.2800 30.8231 0.0957
46.3000 30.8365 0.0965
46.3200 30.8499 0.0977
46.3400 30.8632 0.0949
46.3600 30.8765 0.1004
46.3800 30.8898 0.0957
46.4000 30.9032 0.0942
46.4200 30.9165 0.1005
46.4400 30.9298 0.0980
46.4600 30.9431 0.0867
46.4800 30.9564 0.1014
46.5000 30.9697 0.0949
46.5200 30.9831 0.0950
46.5400 30.9964 0.1008
46.5600 31.0098 0.0977
46.5800 31.0232 0.0923
46.6000 31.0365 0.0968
46.6200 31.0498 0.0950
46.6400 31.0632 0.0931
46.6600 31.0765 0.0989
46.6800 31.0898 0.0913
46.7000 31.1032 0.0953
46.7200 31.1165 0.0971
46.7400 31.1298 0.0974
46.7600 31.1431 0.0937
46.7800 31.1565 0.0962
46.8000 31.1698 0.0949
46.8200 31.1831 0.0969
46.8400 31.1964 0.0965
46.8600 31.2098 0.0991
46.8800 31.2231 0.0897
46.9000 31.2365 0.0959
46.9200 31.2498 0.0951
46.9400 31.2631 0.0955
46.9600 31.2765 0.0923
46.9800 31.2898 0.0948
47.0000 31.3032 0.0952
47.0200 31.3165 0.0911
47.0400 31.3298 0.0949
47.0600 31.3432 0.0954
47.0800 31.3565 0.0905
47.1000 31.3698 0.0971
47.1200 31.3831 0.0973
47.1400 31.3965 0.0883
47.1600 31.4098 0.0953
47.1800 31.4231 0.0938
47.2000 31.4364 0.0922
47.2200 31.4497 0.0979
47.2400 31.4631 0.0970
47.2600 31.4764 0.0875
47.2800 31.4898 0.0988
47.3000 31.5031 0.0949
47.3200 31.5165 0.0907
47.3400 31.5299 0.0944
47.3600 31.5432 0.0948
47.3800 31.5565 0.0864
47.4000 31.5698 0.0931
47.4200 31.5832 0.0945
47.4400 31.5965 0.0898
47.4600 31.6098 0.1001
47.4800 31.6231 0.0947
47.5000 31.6365 0.0870
47.5200 31.6498 0.1015
47.5400 31.6631 0.0918
47.5600 31.6764 0.0893
47.5800 31.6898 0.1010
47.6000 31.7031 0.0921
47.6200 31.7164 0.0893
47.6400 31.7298 0.0975
47.6600 31.7431 0.0982
47.6800 31.7565 0.0907
47.7000 31.7699 0.0987
47.7200 31.7832 0.0911
47.7400 31.7965 0.0945
47.7600 31.8098 0.0955
47.7800 31.8232 0.0945
47.8000 31.8365 0.0871
47.8200 31.8498 0.1023
47.8400 31.8631 0.0951
47.8600 31.8764 0.0893
47.8800 31.8898 0.1009
47.9000 31.9031 0.0971
47.9200 31.9164 0.0897
47.9400 31.9298 0.0965
47.9600 31.9431 0.0952
47.9800 31.9564 0.0909
48.0000 31.9698 0.0911
48.0200 31.9831 0.0954
48.0400 31.9965 0.0876
48.0600 32.0098 0.0946
48.0800 32.0231 0.0982
48.1000 32.0364 0.0894
48.1200 32.0498 0.0937
48.1400 32.0632 0.0985
48.1600 32.0765 0.0875
48.1800 32.0898 0.0943
48.2000 32.1032 0.1027
48.2200 32.1165 0.0868
48.2400 32.1298 0.0933
48.2600 32.1431 0.0986
48.2800 32.1564 0.0933
48.3000 32.1697 0.0943
48.3200 32.1831 0.0950
48.3400 32.1964 0.0886
48.3600 32.2097 0.0977
48.3800 32.2231 0.0935
48.4000 32.2365 0.0926
48.4200 32.2499 0.0977
48.4400 32.2632 0.0942
48.4600 32.2765 0.0916
48.4800 32.2899 0.0966
48.5000 32.3032 0.0948
48.5200 32.3165 0.0911
48.5400 32.3298 0.0976
48.5600 32.3431 0.0928
48.5800 32.3564 0.0912
48.6000 32.3698 0.0962
48.6200 32.3831 0.0931
48.6400 32.3964 0.0924
48.6600 32.4097 0.0973
48.6800 32.4231 0.0921
48.7000 32.4364 0.0957
48.7200 32.4498 0.0938
48.7400 32.4631 0.0961
48.7600 32.4765 0.0906
48.7800 32.4899 0.0933
48.8000 32.5032 0.0903
48.8200 32.5165 0.0911
48.8400 32.5299 0.0907
48.8600 32.5432 0.0949
48.8800 32.5565 0.0947
48.9000 32.5698 0.0872
48.9200 32.5831 0.0986
48.9400 32.5965 0.0935
48.9600 32.6098 0.0863
48.9800 32.6231 0.0990
49.0000 32.6364 0.0913
49.0200 32.6498 0.0889
49.0400 32.6631 0.0981
49.0600 32.6765 0.0924
49.0800 32.6898 0.0921
49.1000 32.7031 0.1008
49.1200 32.7165 0.0932
49.1400 32.7298 0.0877
49.1600 32.7432 0.1031
49.1800 32.7565 0.0882
49.2000 32.7698 0.0924
49.2200 32.7832 0.1012
49.2400 32.7965 0.0888
49.2600 32.8098 0.0909
49.2800 32.8231 0.0986
49.3000 32.8365 0.0878
49.3200 32.8498 0.0901
49.3400 32.8631 0.0987
49.3600 32.8764 0.0935
49.3800 32.8897 0.0909
49.4000 32.9031 0.0961
49.4200 32.9165 0.0904
49.4400 32.9298 0.0938
49.4600 32.9431 0.1002
49.4800 32.9565 0.0869
49.5000 32.9699 0.0929
49.5200 32.9832 0.0989
49.5400 32.9965 0.0884
49.5600 33.0098 0.0923
49.5800 33.0232 0.1018
49.6000 33.0365 0.0901
49.6200 33.0498 0.0936
49.6400 33.0631 0.1022
49.6600 33.0764 0.0957
49.6800 33.0898 0.0836
49.7000 33.1031 0.1002
49.7200 33.1164 0.0920
49.7400 33.1297 0.0907
49.7600 33.1431 0.0996
49.7800 33.1564 0.0879
49.8000 33.1698 0.0883
49.8200 33.1831 0.1036
49.8400 33.1965 0.0904
49.8600 33.2098 0.0864
49.8800 33.2232 0.1003
49.9000 33.2365 0.0909
49.9200 33.2498 0.0904
49.9400 33.2632 0.0945
49.9600 33.2765 0.0913
49.9800 33.2898 0.0891
50.0000 33.3031 0.0969
50.0200 33.3165 0.0923
50.0400 33.3298 0.0935
50.0600 33.3431 0.0923
50.0800 33.3564 0.0957
50.1000 33.3697 0.0901
50.1200 33.3831 0.0896
50.1400 33.3964 0.0968
50.1600 33.4098 0.0920
50.1800 33.4231 0.0922
50.2000 33.4365 0.1005
50.2200 33.4498 0.0869
50.2400 33.4631 0.0910
50.2600 33.4765 0.1006
50.2800 33.4898 0.0859
50.3000 33.5032 0.0910
50.3200 33.5165 0.0987
50.3400 33.5298 0.0837
50.3600 33.5431 0.0968
50.3800 33.5565 0.1021
50.4000 33.5698 0.0774
50.4200 33.5831 0.1024
50.4400 33.5964 0.0956
50.4600 33.6097 0.0811
50.4800 33.6231 0.1028
50.5000 33.6364 0.0934
50.5200 33.6497 0.0795
50.5400 33.6631 0.1065
50.5600 33.6765 0.0923
50.5800 33.6899 0.0861
50.6000 33.7032 0.1011
50.6200 33.7165 0.0945
50.6400 33.7299 0.0851
50.6600 33.7432 0.1035
50.6800 33.7565 0.0903
50.7000 33.7698 0.0882
50.7200 33.7831 0.1055
50.7400 33.7964 0.0904
50.7600 33.8098 0.0858
50.7800 33.8231 0.0993
50.8000 33.8364 0.0945
50.8200 33.8498 0.0920
50.8400 33.8631 0.0962
50.8600 33.8765 0.0881
50.8800 33.8898 0.0930
50.9000 33.9031 0.0919
50.9200 33.9165 0.0953
50.9400 33.9299 0.0958
50.9600 33.9432 0.0901
50.9800 33.9565 0.0949
51.0000 33.9698 0.0959
51.0200 33.9832 0.0923
51.0400 33.9965 0.0964
51.0600 34.0098 0.0896
51.0800 34.0231 0.0941
51.1000 34.0364 0.0946
51.1200 34.0498 0.0889
51.1400 34.0631 0.0947
51.1600 34.0764 0.1009
51.1800 34.0897 0.0906
51.2000 34.1031 0.0937
51.2200 34.1165 0.0945
51.2400 34.1298 0.0891
51.2600 34.1431 0.0930
51.2800 34.1565 0.0956
51.3000 34.1699 0.0876
51.3200 34.1832 0.0919
51.3400 34.1965 0.0970
51.3600 34.2098 0.0870
51.3800 34.2232 0.0980
51.4000 34.2365 0.0966
51.4200 34.2498 0.0887
51.4400 34.2631 0.0962
51.4600 34.2765 0.0951
51.4800 34.2898 0.0885
51.5000 34.3031 0.0950
51.5200 34.3164 0.0920
51.5400 34.3297 0.0860
51.5600 34.3431 0.0968
51.5800 34.3564 0.0958
51.6000 34.3698 0.0865
51.6200 34.3831 0.0935
51.6400 34.3965 0.0942
51.6600 34.4099 0.0876
51.6800 34.4232 0.0908
51.7000 34.4366 0.0912
51.7200 34.4499 0.0902
51.7400 34.4632 0.0916
51.7600 34.4765 0.0937
51.7800 34.4898 0.0972
51.8000 34.5031 0.0926
51.8200 34.5164 0.0852
51.8400 34.5298 0.0953
51.8600 34.5431 0.0929
51.8800 34.5564 0.0838
51.9000 34.5698 0.0957
51.9200 34.5831 0.0926
51.9400 34.5964 0.0827
51.9600 34.6097 0.1029
51.9800 34.6231 0.0893
52.0000 34.6364 0.0895
52.0200 34.6498 0.0959
52.0400 34.6631 0.0873
52.0600 34.6765 0.0879
52.0800 34.6898 0.1004
52.1000 34.7032 0.0869
52.1200 34.7165 0.0874
52.1400 34.7298 0.0987
52.1600 34.7431 0.0833
52.1800 34.7564 0.0928
52.2000 34.7698 0.0992
52.2200 34.7831 0.0821
52.2400 34.7964 0.0930
52.2600 34.8097 0.0973
52.2800 34.8231 0.0802
52.3000 34.8364 0.0983
52.3200 34.8498 0.0964
52.3400 34.8631 0.0811
52.3600 34.8765 0.0983
52.3800 34.8899 0.0978
52.4000 34.9032 0.0809
52.4200 34.9165 0.0974
52.4400 34.9298 0.0970
52.4600 34.9431 0.0857
52.4800 34.9565 0.0953
52.5000 34.9698 0.0957
52.5200 34.9831 0.0853
52.5400 34.9964 0.0990
52.5600 35.0098 0.0951
52.5800 35.0231 0.0868
52.6000 35.0364 0.0960
52.6200 35.0497 0.0936
52.6400 35.0631 0.0875
52.6600 35.0764 0.0930
52.6800 35.0897 0.0929
52.7000 35.1031 0.0873
52.7200 35.1165 0.0943
52.7400 35.1298 0.0910
52.7600 35.1432 0.0933
52.7800 35.1565 0.0918
52.8000 35.1698 0.0939
52.8200 35.1832 0.0876
52.8400 35.1965 0.0920
52.8600 35.2098 0.0915
52.8800 35.2231 0.0952
52.9000 35.2364 0.0902
52.9200 35.2498 0.0942
52.9400 35.2631 0.0922
52.9600 35.2764 0.0909
52.9800 35.2897 0.0926
53.0000 35.3031 0.0930
53.0200 35.3165 0.0878
53.0400 35.3298 0.0925
53.0600 35.3431 0.0907
53.0800 35.3565 0.0903
53.1000 35.3699 0.0967
53.1200 35.3832 0.0858
53.1400 35.3965 0.0903
53.1600 35.4098 0.1003
53.1800 35.4231 0.0851
53.2000 35.4365 0.0848
53.2200 35.4498 0.0994
53.2400 35.4631 0.0899
53.2600 35.4765 0.0877
53.2800 35.4898 0.0978
53.3000 35.5032 0.0926
53.3200 35.5165 0.0876
53.3400 35.5297 0.0979
53.3600 35.5431 0.0881
53.3800 35.5564 0.0924
53.4000 35.5697 0.0980
53.4200 35.5831 0.0870
53.4400 35.5964 0.0880
53.4600 35.6098 0.0968
53.4800 35.6232 0.0841
53.5000 35.6365 0.0890
53.5200 35.6498 0.1017
53.5400 35.6632 0.0877
53.5600 35.6765 0.0864
53.5800 35.6898 0.0976
53.6000 35.7031 0.0898
53.6200 35.7165 0.0870
53.6400 35.7298 0.0978
53.6600 35.7431 0.0872
53.6800 35.7565 0.0921
53.7000 35.7697 0.0995
53.7200 35.7831 0.0936
53.7400 35.7964 0.0879
53.7600 35.8098 0.0998
53.7800 35.8231 0.0866
53.8000 35.8364 0.0890
53.8200 35.8498 0.1000
53.8400 35.8632 0.0892
53.8600 35.8765 0.0849
53.8800 35.8898 0.0987
53.9000 35.9032 0.0917
53.9200 35.9165 0.0867
53.9400 35.9298 0.0999
53.9600 35.9431 0.0923
53.9800 35.9564 0.0837
54.0000 35.9698 0.1012
54.0200 35.9831 0.0879
54.0400 35.9964 0.0839
54.0600 36.0097 0.0995
54.0800 36.0231 0.0874
54.1000 36.0365 0.0856
54.1200 36.0498 0.1007
54.1400 36.0631 0.0874
54.1600 36.0765 0.0815
54.1800 36.0898 0.1057
54.2000 36.1032 0.0811
54.2200 36.1165 0.0822
54.2400 36.1298 0.1029
54.2600 36.1432 0.0874
54.2800 36.1566 0.0833
54.3000 36.1699 0.1059
54.3200 36.1831 0.0863
54.3400 36.1965 0.0875
54.3600 36.2098 0.0980
54.3800 36.2231 0.0818
54.4000 36.2364 0.0898
54.4200 36.2497 0.1047
54.4400 36.2631 0.0859
54.4600 36.2764 0.0903
54.4800 36.2898 0.1005
54.5000 36.3031 0.0887
54.5200 36.3165 0.0943
54.5400 36.3298 0.0971
54.5600 36.3432 0.0911
54.5800 36.3565 0.0898
54.6000 36.3698 0.0975
54.6200 36.3832 0.0922
54.6400 36.3965 0.0931
54.6600 36.4098 0.0940
54.6800 36.4231 0.0924
54.7000 36.4364 0.0913
54.7200 36.4498 0.0985
54.7400 36.4631 0.0936
54.7600 36.4764 0.0891
54.7800 36.4898 0.0916
54.8000 36.5031 0.0955
54.8200 36.5164 0.0862
54.8400 36.5298 0.0930
54.8600 36.5431 0.0965
54.8800 36.5564 0.0845
54.9000 36.5698 0.0990
54.9200 36.5832 0.0944
54.9400 36.5965 0.0779
54.9600 36.6098 0.0982
54.9800 36.6232 0.0934
55.0000 36.6365 0.0766
55.0200 36.6498 0.1006
55.0400 36.6631 0.0926
55.0600 36.6764 0.0806
55.0800 36.6897 0.1002
55.1000 36.7031 0.0928
55.1200 36.7164 0.0809
55.1400 36.7297 0.1033
55.1600 36.7431 0.0889
55.1800 36.7564 0.0833
55.2000 36.7698 0.0991
55.2200 36.7831 0.0909
55.2400 36.7964 0.0867
55.2600 36.8098 0.1012
55.2800 36.8231 0.0880
55.3000 36.8364 0.0903
55.3200 36.8498 0.0987
55.3400 36.8631 0.0889
55.3600 36.8765 0.0931
55.3800 36.8898 0.0939
55.4000 36.9031 0.0928
55.4200 36.9165 0.0924
55.4400 36.9298 0.0946
55.4600 36.9432 0.0913
55.4800 36.9565 0.0987
55.5000 36.9698 0.0899
55.5200 36.9831 0.0907
55.5400 36.9964 0.0981
55.5600 37.0097 0.0896
55.5800 37.0231 0.0912
55.6000 37.0364 0.0992
55.6200 37.0498 0.0842
55.6400 37.0632 0.0939
55.6600 37.0765 0.0938
55.6800 37.0899 0.0913
55.7000 37.1032 0.0959
55.7200 37.1165 0.0898
55.7400 37.1299 0.0871
55.7600 37.1432 0.1023
55.7800 37.1565 0.0901
55.8000 37.1698 0.0909
55.8200 37.1831 0.0977
55.8400 37.1964 0.0873
55.8600 37.2097 0.0891
55.8800 37.2231 0.0988
55.9000 37.2364 0.0903
55.9200 37.2498 0.0909
55.9400 37.2631 0.0957
55.9600 37.2764 0.0838
55.9800 37.2898 0.0993
56.0000 37.3032 0.0927
56.0200 37.3165 0.0845
56.0400 37.3298 0.0960
56.0600 37.3432 0.0952
56.0800 37.3565 0.0858
56.1000 37.3699 0.0968
56.1200 37.3832 0.0929
56.1400 37.3965 0.0865
56.1600 37.4098 0.0970
56.1800 37.4231 0.0940
56.2000 37.4364 0.0879
56.2200 37.4497 0.0983
56.2400 37.4631 0.0917
56.2600 37.4764 0.0926
56.2800 37.4898 0.0962
56.3000 37.5031 0.0896
56.3200 37.5164 0.0903
56.3400 37.5298 0.0907
56.3600 37.5432 0.0928
56.3800 37.5565 0.0879
56.4000 37.5698 0.0935
56.4200 37.5832 0.0940
56.4400 37.5965 0.0948
56.4600 37.6099 0.0916
56.4800 37.6232 0.0940
56.5000 37.6365 0.0874
56.5200 37.6498 0.0882
56.5400 37.6632 0.0934
56.5600 37.6765 0.0955
56.5800 37.6897 0.0874
56.6000 37.7031 0.0951
56.6200 37.7164 0.0938
56.6400 37.7298 0.0904
56.6600 37.7431 0.0933
56.6800 37.7564 0.0955
56.7000 37.7698 0.0941
56.7200 37.7832 0.0868
56.7400 37.7965 0.0904
56.7600 37.8099 0.0921
56.7800 37.8232 0.0902
56.8000 37.8365 0.0929
56.8200 37.8498 0.0940
56.8400 37.8631 0.0894
56.8600 37.8764 0.1014
56.8800 37.8898 0.0935
56.9000 37.9031 0.0882
56.9200 37.9165 0.0953
56.9400 37.9298 0.0900
56.9600 37.9431 0.0891
56.9800 37.9564 0.0983
57.0000 37.9698 0.0881
57.0200 37.9831 0.0962
57.0400 37.9964 0.1004
57.0600 38.0098 0.0894
57.0800 38.0232 0.0899
57.1000 38.0365 0.0978
57.1200 38.0499 0.0831
57.1400 38.0632 0.0935
57.1600 38.0765 0.0996
57.1800 38.0899 0.0827
57.2000 38.1032 0.0936
57.2200 38.1165 0.1008
57.2400 38.1298 0.0831
57.2600 38.1431 0.0925
57.2800 38.1564 0.1008
57.3000 38.1697 0.0831
57.3200 38.1831 0.0954
57.3400 38.1964 0.0996
57.3600 38.2097 0.0814
57.3800 38.2231 0.0940
57.4000 38.2364 0.0988
57.4200 38.2498 0.0842
57.4400 38.2632 0.0996
57.4600 38.2765 0.0950
57.4800 38.2898 0.0815
57.5000 38.3031 0.0937
57.5200 38.3165 0.0969
57.5400 38.3298 0.0835
57.5600 38.3432 0.0948
57.5800 38.3565 0.0973
57.6000 38.3698 0.0877
57.6200 38.3831 0.0991
57.6400 38.3965 0.0984
57.6600 38.4097 0.0902
57.6800 38.4230 0.0943
57.7000 38.4364 0.0967
57.7200 38.4497 0.0830
57.7400 38.4631 0.0981
57.7600 38.4764 0.0995
57.7800 38.4898 0.0860
57.8000 38.5032 0.0951
57.8200 38.5165 0.1002
57.8400 38.5299 0.0829
57.8600 38.5432 0.0974
57.8800 38.5565 0.0981
57.9000 38.5699 0.0886
57.9200 38.5832 0.0917
57.9400 38.5965 0.1027
57.9600 38.6098 0.0864
57.9800 38.6231 0.0970
58.0000 38.6364 0.1010
58.0200 38.6497 0.0882
58.0400 38.6631 0.0976
58.0600 38.6764 0.0991
58.0800 38.6898 0.0875
58.1000 38.7031 0.0943
58.1200 38.7165 0.1034
58.1400 38.7298 0.0908
58.1600 38.7432 0.0946
58.1800 38.7565 0.0959
58.2000 38.7699 0.0935
58.2200 38.7832 0.0936
58.2400 38.7965 0.0991
58.2600 38.8098 0.0907
58.2800 38.8232 0.0941
58.3000 38.8365 0.0942
58.3200 38.8498 0.0960
58.3400 38.8631 0.0916
58.3600 38.8765 0.1014
58.3800 38.8898 0.0927
58.4000 38.9031 0.0915
58.4200 38.9164 0.1005
58.4400 38.9298 0.0908
58.4600 38.9431 0.0886
58.4800 38.9565 0.1026
58.5000 38.9698 0.0924
58.5200 38.9832 0.0908
58.5400 38.9965 0.1061
58.5600 39.0098 0.0887
58.5800 39.0231 0.0934
58.6000 39.0365 0.1078
58.6200 39.0499 0.0902
58.6400 39.0632 0.0884
58.6600 39.0765 0.1085
58.6800 39.0898 0.0891
58.7000 39.1031 0.0899
58.7200 39.1165 0.1024
58.7400 39.1298 0.0896
58.7600 39.1431 0.0905
58.7800 39.1564 0.1016
58.8000 39.1698 0.0839
58.8200 39.1831 0.0970
58.8400 39.1964 0.0989
58.8600 39.2098 0.0855
58.8800 39.2232 0.0991
58.9000 39.2365 0.0999
58.9200 39.2499 0.0811
58.9400 39.2632 0.1030
58.9600 39.2765 0.0996
58.9800 39.2898 0.0850
59.0000 39.3031 0.1047
59.0200 39.3164 0.0995
59.0400 39.3298 0.0902
59.0600 39.3431 0.1003
59.0800 39.3565 0.0948
59.1000 39.3698 0.0913
59.1200 39.3831 0.1033
59.1400 39.3964 0.0880
59.1600 39.4098 0.0949
59.1800 39.4231 0.1004
59.2000 39.4364 0.0931
59.2200 39.4497 0.0975
59.2400 39.4631 0.0957
59.2600 39.4765 0.0962
59.2800 39.4898 0.0982
59.3000 39.5031 0.0907
59.3200 39.5165 0.0980
59.3400 39.5299 0.0965
59.3600 39.5432 0.0941
59.3800 39.5565 0.0958
59.4000 39.5698 0.0978
59.4200 39.5831 0.0908
59.4400 39.5964 0.0989
59.4600 39.6098 0.0973
59.4800 39.6231 0.0911
59.5000 39.6364 0.1017
59.5200 39.6498 0.0960
59.5400 39.6631 0.0906
59.5600 39.6764 0.0988
59.5800 39.6898 0.0966
59.6000 39.7032 0.0935
59.6200 39.7165 0.1041
59.6400 39.7298 0.0906
59.6600 39.7432 0.0945
59.6800 39.7565 0.0993
59.7000 39.7699 0.0937
59.7200 39.7832 0.0952
59.7400 39.7965 0.0981
59.7600 39.8098 0.0899
59.7800 39.8231 0.0951
59.8000 39.8365 0.0971
59.8200 39.8498 0.0921
59.8400 39.8631 0.0953
59.8600 39.8764 0.0998
59.8800 39.8897 0.0887
59.9000 39.9031 0.0923
59.9200 39.9164 0.1015
59.9400 39.9298 0.0887
59.9600 39.9431 0.0939
59.9800 39.9565 0.0960
60.0000 39.9698 0.0868
60.0200 39.9832 0.0939
60.0400 39.9964 0.0904
60.0460 40.0004 0.0745
