Raw Data
Time Displacement Force
(s) (mm) (N)
0.0000 0.0000 -0.0194
0.0200 0.0001 0.0168
0.0400 0.0021 0.0763
0.0600 0.0098 0.0613
0.0800 0.0217 0.0041
0.1000 0.0342 -0.0081
0.1200 0.0469 0.0072
0.1400 0.0602 0.0188
0.1600 0.0742 0.0000
0.1800 0.0884 -0.0111
0.2000 0.1023 0.0117
0.2200 0.1159 -0.0025
0.2400 0.1293 -0.0104
0.2600 0.1426 0.0214
0.2800 0.1559 0.0092
0.3000 0.1693 -0.0079
0.3200 0.1827 0.0268
0.3400 0.1960 0.0064
0.3600 0.2093 -0.0113
0.3800 0.2227 0.0338
0.4000 0.2360 0.0004
0.4200 0.2493 -0.0078
0.4400 0.2626 0.0404
0.4600 0.2760 -0.0089
0.4800 0.2893 -0.0017
0.5000 0.3027 0.0336
0.5200 0.3160 -0.0102
0.5400 0.3293 0.0064
0.5600 0.3426 0.0260
0.5800 0.3560 -0.0110
0.6000 0.3694 0.0133
0.6200 0.3827 0.0156
0.6400 0.3961 -0.0083
0.6600 0.4094 0.0175
0.6800 0.4228 0.0120
0.7000 0.4361 -0.0116
0.7200 0.4494 0.0172
0.7400 0.4627 0.0053
0.7600 0.4761 -0.0064
0.7800 0.4894 0.0194
0.8000 0.5027 -0.0031
0.8200 0.5160 0.0059
0.8400 0.5293 0.0189
0.8600 0.5427 -0.0069
0.8800 0.5560 0.0052
0.9000 0.5692 0.0218
0.9200 0.5826 -0.0101
0.9400 0.5959 0.0070
0.9600 0.6093 0.0170
0.9800 0.6226 -0.0030
1.0000 0.6360 0.0168
1.0200 0.6493 0.0101
1.0400 0.6627 -0.0076
1.0600 0.6761 0.0202
1.0800 0.6894 0.0071
1.1000 0.7027 -0.0081
1.1200 0.7160 0.0232
1.1400 0.7294 0.0146
1.1600 0.7427 -0.0052
1.1800 0.7560 0.0174
1.2000 0.7693 0.0138
1.2200 0.7827 -0.0042
1.2400 0.7960 0.0197
1.2600 0.8093 0.0123
1.2800 0.8226 0.0026
1.3000 0.8360 0.0162
1.3200 0.8493 0.0112
1.3400 0.8627 -0.0010
1.3600 0.8760 0.0156
1.3800 0.8893 0.0156
1.4000 0.9027 -0.0001
1.4200 0.9160 0.0080
1.4400 0.9293 0.0200
1.4600 0.9427 0.0014
1.4800 0.9561 0.0104
1.5000 0.9694 0.0166
1.5200 0.9827 -0.0007
1.5400 0.9960 0.0115
1.5600 1.0093 0.0180
1.5800 1.0227 -0.0035
1.6000 1.0360 0.0101
1.6200 1.0493 0.0183
1.6400 1.0626 -0.0079
1.6600 1.0760 0.0126
1.6800 1.0893 0.0206
1.7000 1.1027 -0.0057
1.7200 1.1160 0.0128
1.7400 1.1294 0.0195
1.7600 1.1428 -0.0043
1.7800 1.1561 0.0132
1.8000 1.1694 0.0164
1.8200 1.1827 0.0014
1.8400 1.1961 0.0165
1.8600 1.2094 0.0152
1.8800 1.2227 0.0016
1.9000 1.2360 0.0218
1.9200 1.2493 0.0126
1.9400 1.2627 0.0030
1.9600 1.2760 0.0152
1.9800 1.2893 0.0109
2.0000 1.3026 0.0077
2.0200 1.3160 0.0127
2.0400 1.3293 0.0172
2.0600 1.3426 0.0116
2.0800 1.3560 0.0123
2.1000 1.3694 0.0112
2.1200 1.3828 0.0142
2.1400 1.3961 0.0104
2.1600 1.4094 0.0145
2.1800 1.4227 0.0090
2.2000 1.4361 0.0137
2.2200 1.4494 0.0147
2.2400 1.4627 0.0064
2.2600 1.4760 0.0139
2.2800 1.4893 0.0207
2.3000 1.5026 0.0044
2.3200 1.5160 0.0168
2.3400 1.5293 0.0146
2.3600 1.5426 0.0114
2.3800 1.5560 0.0125
2.4000 1.5694 0.0131
2.4200 1.5827 0.0116
2.4400 1.5960 0.0138
2.4600 1.6094 0.0146
2.4800 1.6227 0.0065
2.5000 1.6360 0.0162
2.5200 1.6493 0.0128
2.5400 1.6626 0.0087
2.5600 1.6760 0.0136
2.5800 1.6894 0.0106
2.6000 1.7027 0.0129
2.6200 1.7160 0.0171
2.6400 1.7294 0.0092
2.6600 1.7427 0.0129
2.6800 1.7560 0.0128
2.7000 1.7693 0.0126
2.7200 1.7827 0.0152
2.7400 1.7960 0.0162
2.7600 1.8093 0.0057
2.7800 1.8226 0.0121
2.8000 1.8360 0.0130
2.8200 1.8493 0.0136
2.8400 1.8627 0.0166
2.8600 1.8761 0.0086
2.8800 1.8894 0.0101
2.9000 1.9027 0.0195
2.9200 1.9161 0.0139
2.9400 1.9294 0.0104
2.9600 1.9427 0.0159
2.9800 1.9560 0.0116
3.0000 1.9694 0.0138
3.0200 1.9827 0.0063
3.0400 1.9960 0.0094
3.0600 2.0093 0.0179
3.0800 2.0226 0.0081
3.1000 2.0360 0.0078
3.1200 2.0493 0.0199
3.1400 2.0626 0.0071
3.1600 2.0760 0.0080
3.1800 2.0893 0.0190
3.2000 2.1027 0.0077
3.2200 2.1161 0.0085
3.2400 2.1294 0.0177
3.2600 2.1427 0.0078
3.2800 2.1561 0.0140
3.3000 2.1694 0.0155
3.3200 2.1827 0.0067
3.3400 2.1960 0.0111
3.3600 2.2093 0.0215
3.3800 2.2227 0.0138
3.4000 2.2360 0.0065
3.4200 2.2493 0.0192
3.4400 2.2626 0.0118
3.4600 2.2760 0.0128
3.4800 2.2894 0.0140
3.5000 2.3027 0.0160
3.5200 2.3160 0.0078
3.5400 2.3293 0.0163
3.5600 2.3427 0.0152
3.5800 2.3561 0.0114
3.6000 2.3694 0.0147
3.6200 2.3827 0.0167
3.6400 2.3961 0.0075
3.6600 2.4094 0.0119
3.6800 2.4228 0.0188
3.7000 2.4360 0.0136
3.7200 2.4494 0.0114
3.7400 2.4627 0.0189
3.7600 2.4760 0.0139
3.7800 2.4893 0.0127
3.8000 2.5026 0.0225
3.8200 2.5159 0.0085
3.8400 2.5293 0.0132
3.8600 2.5426 0.0198
3.8800 2.5560 0.0085
3.9000 2.5693 0.0152
3.9200 2.5827 0.0206
3.9400 2.5961 0.0072
3.9600 2.6094 0.0176
3.9800 2.6227 0.0203
4.0000 2.6360 0.0086
4.0200 2.6494 0.0139
4.0400 2.6627 0.0201
4.0600 2.6760 0.0093
4.0800 2.6893 0.0185
4.1000 2.7027 0.0153
4.1200 2.7160 0.0108
4.1400 2.7293 0.0139
4.1600 2.7426 0.0172
4.1800 2.7560 0.0134
4.2000 2.7693 0.0109
4.2200 2.7826 0.0167
4.2400 2.7959 0.0126
4.2600 2.8093 0.0178
4.2800 2.8227 0.0174
4.3000 2.8361 0.0078
4.3200 2.8494 0.0147
4.3400 2.8627 0.0202
4.3600 2.8761 0.0068
4.3800 2.8894 0.0176
4.4000 2.9027 0.0154
4.4200 2.9160 0.0138
4.4400 2.9293 0.0128
4.4600 2.9427 0.0163
4.4800 2.9560 0.0138
4.5000 2.9693 0.0168
4.5200 2.9826 0.0159
4.5400 2.9960 0.0080
4.5600 3.0093 0.0183
4.5800 3.0227 0.0177
4.6000 3.0360 0.0081
4.6200 3.0493 0.0214
4.6400 3.0627 0.0135
4.6600 3.0760 0.0051
4.6800 3.0893 0.0174
4.7000 3.1027 0.0175
4.7200 3.1160 0.0085
4.7400 3.1294 0.0168
4.7600 3.1427 0.0153
4.7800 3.1561 0.0056
4.8000 3.1694 0.0212
4.8200 3.1827 0.0178
4.8400 3.1961 0.0119
4.8600 3.2094 0.0151
4.8800 3.2226 0.0146
4.9000 3.2359 0.0124
4.9200 3.2493 0.0202
4.9400 3.2626 0.0125
4.9600 3.2760 0.0155
4.9800 3.2893 0.0185
5.0000 3.3027 0.0123
5.0200 3.3161 0.0163
5.0400 3.3294 0.0201
5.0600 3.3427 0.0103
5.0800 3.3561 0.0190
5.1000 3.3694 0.0172
5.1200 3.3827 0.0120
5.1400 3.3960 0.0195
5.1600 3.4093 0.0148
5.1800 3.4227 0.0177
5.2000 3.4360 0.0141
5.2200 3.4493 0.0138
5.2400 3.4626 0.0151
5.2600 3.4759 0.0192
5.2800 3.4893 0.0087
5.3000 3.5026 0.0162
5.3200 3.5160 0.0181
5.3400 3.5293 0.0046
5.3600 3.5427 0.0187
5.3800 3.5561 0.0198
5.4000 3.5694 0.0088
5.4200 3.5827 0.0208
5.4400 3.5961 0.0121
5.4600 3.6094 0.0160
5.4800 3.6227 0.0197
5.5000 3.6360 0.0082
5.5200 3.6493 0.0132
5.5400 3.6627 0.0233
5.5600 3.6760 0.0089
5.5800 3.6893 0.0136
5.6000 3.7026 0.0243
5.6200 3.7159 0.0042
5.6400 3.7293 0.0141
5.6600 3.7427 0.0273
5.6800 3.7560 0.0105
5.7000 3.7693 0.0080
5.7200 3.7827 0.0237
5.7400 3.7961 0.0082
5.7600 3.8094 0.0115
5.7800 3.8227 0.0247
5.8000 3.8360 0.0145
5.8200 3.8494 0.0064
5.8400 3.8628 0.0225
5.8600 3.8761 0.0171
5.8800 3.8894 0.0104
5.9000 3.9027 0.0227
5.9200 3.9160 0.0152
5.9400 3.9293 0.0064
5.9600 3.9426 0.0274
5.9800 3.9559 0.0149
6.0000 3.9693 0.0032
6.0200 3.9827 0.0262
6.0400 3.9960 0.0088
6.0600 4.0093 0.0064
6.0800 4.0227 0.0292
6.1000 4.0361 0.0076
6.1200 4.0494 0.0030
6.1400 4.0627 0.0322
6.1600 4.0761 0.0084
6.1800 4.0894 0.0063
6.2000 4.1027 0.0264
6.2200 4.1160 0.0111
6.2400 4.1293 0.0099
6.2600 4.1427 0.0263
6.2800 4.1560 0.0068
6.3000 4.1694 0.0136
6.3200 4.1827 0.0259
6.3400 4.1960 0.0084
6.3600 4.2093 0.0128
6.3800 4.2226 0.0218
6.4000 4.2360 0.0084
6.4200 4.2493 0.0195
6.4400 4.2627 0.0201
6.4600 4.2761 0.0053
6.4800 4.2894 0.0176
6.5000 4.3027 0.0247
6.5200 4.3160 0.0112
6.5400 4.3294 0.0183
6.5600 4.3428 0.0158
6.5800 4.3561 0.0117
6.6000 4.3693 0.0263
6.6200 4.3827 0.0181
6.6400 4.3960 0.0118
6.6600 4.4093 0.0180
6.6800 4.4226 0.0158
6.7000 4.4360 0.0143
6.7200 4.4493 0.0215
6.7400 4.4626 0.0136
6.7600 4.4760 0.0170
6.7800 4.4893 0.0149
6.8000 4.5027 0.0206
6.8200 4.5161 0.0218
6.8400 4.5294 0.0120
6.8600 4.5427 0.0176
6.8800 4.5560 0.0220
6.9000 4.5694 0.0149
6.9200 4.5827 0.0150
6.9400 4.5960 0.0206
6.9600 4.6093 0.0120
6.9800 4.6227 0.0226
7.0000 4.6360 0.0203
7.0200 4.6493 0.0095
7.0400 4.6626 0.0200
7.0600 4.6759 0.0207
7.0800 4.6893 0.0116
7.1000 4.7026 0.0195
7.1200 4.7159 0.0182
7.1400 4.7293 0.0147
7.1600 4.7427 0.0183
7.1800 4.7561 0.0211
7.2000 4.7694 0.0141
7.2200 4.7828 0.0200
7.2400 4.7961 0.0192
7.2600 4.8094 0.0145
7.2800 4.8228 0.0207
7.3000 4.8360 0.0169
7.3200 4.8493 0.0150
7.3400 4.8626 0.0154
7.3600 4.8760 0.0149
7.3800 4.8893 0.0157
7.4000 4.9026 0.0174
7.4200 4.9160 0.0218
7.4400 4.9293 0.0137
7.4600 4.9427 0.0101
7.4800 4.9560 0.0181
7.5000 4.9694 0.0148
7.5200 4.9827 0.0175
7.5400 4.9961 0.0179
7.5600 5.0094 0.0147
7.5800 5.0227 0.0124
7.6000 5.0361 0.0234
7.6200 5.0494 0.0113
7.6400 5.0627 0.0171
7.6600 5.0760 0.0241
7.6800 5.0893 0.0107
7.7000 5.1026 0.0176
7.7200 5.1160 0.0255
7.7400 5.1293 0.0113
7.7600 5.1426 0.0158
7.7800 5.1559 0.0276
7.8000 5.1693 0.0116
7.8200 5.1827 0.0143
7.8400 5.1960 0.0250
7.8600 5.2093 0.0150
7.8800 5.2227 0.0157
7.9000 5.2361 0.0270
7.9200 5.2494 0.0101
7.9400 5.2627 0.0208
7.9600 5.2760 0.0232
7.9800 5.2894 0.0149
8.0000 5.3027 0.0177
8.0200 5.3161 0.0227
8.0400 5.3294 0.0159
8.0600 5.3427 0.0203
8.0800 5.3560 0.0207
8.1000 5.3694 0.0223
8.1200 5.3826 0.0192
8.1400 5.3960 0.0173
8.1600 5.4093 0.0258
8.1800 5.4226 0.0190
8.2000 5.4360 0.0156
8.2200 5.4493 0.0266
8.2400 5.4627 0.0200
8.2600 5.4760 0.0164
8.2800 5.4894 0.0274
8.3000 5.5027 0.0144
8.3200 5.5161 0.0275
8.3400 5.5294 0.0278
8.3600 5.5427 0.0147
8.3800 5.5560 0.0232
8.4000 5.5693 0.0308
8.4200 5.5827 0.0117
8.4400 5.5960 0.0264
8.4600 5.6094 0.0317
8.4800 5.6227 0.0142
8.5000 5.6360 0.0286
8.5200 5.6493 0.0260
8.5400 5.6627 0.0143
8.5600 5.6760 0.0316
8.5800 5.6893 0.0257
8.6000 5.7027 0.0181
8.6200 5.7160 0.0305
8.6400 5.7294 0.0172
8.6600 5.7427 0.0176
8.6800 5.7560 0.0293
8.7000 5.7694 0.0169
8.7200 5.7827 0.0209
8.7400 5.7961 0.0289
8.7600 5.8094 0.0152
8.7800 5.8227 0.0278
8.8000 5.8360 0.0241
8.8200 5.8493 0.0184
8.8400 5.8626 0.0204
8.8600 5.8759 0.0192
8.8800 5.8893 0.0248
8.9000 5.9027 0.0207
8.9200 5.9160 0.0191
8.9400 5.9293 0.0278
8.9600 5.9427 0.0143
8.9800 5.9561 0.0143
9.0000 5.9694 0.0277
9.0200 5.9827 0.0168
9.0400 5.9960 0.0205
9.0600 6.0094 0.0278
9.0800 6.0227 0.0074
9.1000 6.0361 0.0221
9.1200 6.0493 0.0294
9.1400 6.0626 0.0077
9.1600 6.0760 0.0307
9.1800 6.0893 0.0226
9.2000 6.1026 0.0035
9.2200 6.1159 0.0342
9.2400 6.1293 0.0282
9.2600 6.1426 -0.0010
9.2800 6.1560 0.0295
9.3000 6.1693 0.0223
9.3200 6.1827 0.0059
9.3400 6.1960 0.0321
9.3600 6.2094 0.0149
9.3800 6.2228 0.0045
9.4000 6.2361 0.0343
9.4200 6.2494 0.0099
9.4400 6.2627 0.0102
9.4600 6.2760 0.0268
9.4800 6.2893 0.0101
9.5000 6.3026 0.0177
9.5200 6.3160 0.0247
9.5400 6.3293 0.0131
9.5600 6.3426 0.0217
9.5800 6.3560 0.0158
9.6000 6.3693 0.0150
9.6200 6.3827 0.0266
9.6400 6.3960 0.0069
9.6600 6.4094 0.0211
9.6800 6.4227 0.0217
9.7000 6.4361 0.0028
9.7200 6.4494 0.0261
9.7400 6.4627 0.0166
9.7600 6.4760 0.0039
9.7800 6.4894 0.0398
9.8000 6.5027 0.0121
9.8200 6.5161 0.0008
9.8400 6.5294 0.0397
9.8600 6.5427 0.0097
9.8800 6.5560 0.0082
9.9000 6.5694 0.0386
9.9200 6.5827 0.0028
9.9400 6.5960 0.0173
9.9600 6.6093 0.0361
9.9800 6.6227 -0.0033
10.0000 6.6360 0.0208
10.0200 6.6493 0.0387
10.0400 6.6626 -0.0017
10.0600 6.6760 0.0150
10.0800 6.6894 0.0316
10.1000 6.7027 -0.0015
10.1200 6.7160 0.0259
10.1400 6.7294 0.0228
10.1600 6.7427 0.0026
10.1800 6.7561 0.0231
10.2000 6.7694 0.0203
10.2200 6.7827 0.0074
10.2400 6.7960 0.0273
10.2600 6.8094 0.0218
10.2800 6.8227 0.0061
10.3000 6.8360 0.0203
10.3200 6.8493 0.0231
10.3400 6.8626 0.0058
10.3600 6.8760 0.0195
10.3800 6.8893 0.0203
10.4000 6.9027 0.0077
10.4200 6.9160 0.0163
10.4400 6.9294 0.0182
10.4600 6.9427 0.0129
10.4800 6.9561 0.0211
10.5000 6.9694 0.0218
10.5200 6.9827 0.0089
10.5400 6.9960 0.0235
10.5600 7.0093 0.0225
10.5800 7.0226 0.0142
10.6000 7.0360 0.0168
10.6200 7.0493 0.0209
10.6400 7.0627 0.0181
10.6600 7.0760 0.0217
10.6800 7.0893 0.0205
10.7000 7.1027 0.0190
10.7200 7.1160 0.0178
10.7400 7.1293 0.0201
10.7600 7.1427 0.0207
10.7800 7.1560 0.0213
10.8000 7.1694 0.0206
10.8200 7.1827 0.0241
10.8400 7.1960 0.0222
10.8600 7.2094 0.0207
10.8800 7.2228 0.0240
10.9000 7.2361 0.0168
10.9200 7.2494 0.0253
10.9400 7.2627 0.0219
10.9600 7.2760 0.0166
10.9800 7.2894 0.0231
11.0000 7.3027 0.0155
11.0200 7.3159 0.0210
11.0400 7.3292 0.0241
11.0600 7.3426 0.0138
11.0800 7.3560 0.0195
11.1000 7.3693 0.0233
11.1200 7.3827 0.0181
11.1400 7.3961 0.0198
11.1600 7.4094 0.0260
11.1800 7.4228 0.0124
11.2000 7.4361 0.0246
11.2200 7.4494 0.0221
11.2400 7.4627 0.0155
11.2600 7.4761 0.0229
11.2800 7.4894 0.0209
11.3000 7.5027 0.0137
11.3200 7.5160 0.0233
11.3400 7.5294 0.0231
11.3600 7.5427 0.0104
11.3800 7.5560 0.0228
11.4000 7.5693 0.0197
11.4200 7.5827 0.0150
11.4400 7.5960 0.0221
11.4600 7.6093 0.0178
11.4800 7.6227 0.0175
11.5000 7.6360 0.0244
11.5200 7.6494 0.0119
11.5400 7.6627 0.0207
11.5600 7.6760 0.0248
11.5800 7.6894 0.0165
11.6000 7.7027 0.0214
11.6200 7.7161 0.0204
11.6400 7.7294 0.0141
11.6600 7.7427 0.0232
11.6800 7.7560 0.0200
11.7000 7.7693 0.0149
11.7200 7.7827 0.0184
11.7400 7.7960 0.0181
11.7600 7.8093 0.0191
11.7800 7.8226 0.0202
11.8000 7.8360 0.0199
11.8200 7.8493 0.0191
11.8400 7.8627 0.0208
11.8600 7.8760 0.0113
11.8800 7.8894 0.0265
11.9000 7.9027 0.0185
11.9200 7.9160 0.0139
11.9400 7.9293 0.0230
11.9600 7.9427 0.0211
11.9800 7.9561 0.0125
12.0000 7.9694 0.0202
12.0200 7.9827 0.0176
12.0400 7.9960 0.0188
12.0600 8.0094 0.0184
12.0800 8.0227 0.0171
12.1000 8.0360 0.0161
12.1200 8.0493 0.0179
12.1400 8.0626 0.0247
12.1600 8.0759 0.0150
12.1800 8.0893 0.0157
12.2000 8.1026 0.0235
12.2200 8.1160 0.0142
12.2400 8.1294 0.0180
12.2600 8.1428 0.0205
12.2800 8.1561 0.0147
12.3000 8.1694 0.0186
12.3200 8.1828 0.0222
12.3400 8.1961 0.0195
12.3600 8.2094 0.0153
12.3800 8.2227 0.0259
12.4000 8.2360 0.0126
12.4200 8.2493 0.0207
12.4400 8.2627 0.0222
12.4600 8.2760 0.0154
12.4800 8.2893 0.0222
12.5000 8.3026 0.0195
12.5200 8.3160 0.0151
12.5400 8.3293 0.0207
12.5600 8.3427 0.0196
12.5800 8.3560 0.0170
12.6000 8.3694 0.0190
12.6200 8.3827 0.0132
12.6400 8.3961 0.0200
12.6600 8.4094 0.0215
12.6800 8.4228 0.0137
12.7000 8.4361 0.0236
12.7200 8.4494 0.0176
12.7400 8.4627 0.0077
12.7600 8.4760 0.0285
12.7800 8.4893 0.0193
12.8000 8.5027 0.0119
12.8200 8.5160 0.0222
12.8400 8.5293 0.0203
12.8600 8.5426 0.0112
12.8800 8.5560 0.0227
12.9000 8.5694 0.0211
12.9200 8.5827 0.0185
12.9400 8.5960 0.0237
12.9600 8.6094 0.0132
12.9800 8.6227 0.0189
13.0000 8.6361 0.0268
13.0200 8.6494 0.0148
13.0400 8.6627 0.0251
13.0600 8.6761 0.0233
13.0800 8.6894 0.0153
13.1000 8.7027 0.0245
13.1200 8.7161 0.0238
13.1400 8.7294 0.0204
13.1600 8.7427 0.0226
13.1800 8.7560 0.0244
13.2000 8.7693 0.0212
13.2200 8.7826 0.0235
13.2400 8.7960 0.0259
13.2600 8.8094 0.0207
13.2800 8.8227 0.0252
13.3000 8.8360 0.0249
13.3200 8.8494 0.0212
13.3400 8.8628 0.0285
13.3600 8.8761 0.0218
13.3800 8.8894 0.0188
13.4000 8.9027 0.0294
13.4200 8.9161 0.0267
13.4400 8.9294 0.0151
13.4600 8.9426 0.0274
13.4800 8.9560 0.0204
13.5000 8.9693 0.0153
13.5200 8.9827 0.0322
13.5400 8.9960 0.0210
13.5600 9.0093 0.0134
13.5800 9.0226 0.0314
13.6000 9.0360 0.0258
13.6200 9.0493 0.0136
13.6400 9.0626 0.0289
13.6600 9.0760 0.0200
13.6800 9.0894 0.0138
13.7000 9.1028 0.0278
13.7200 9.1161 0.0241
13.7400 9.1294 0.0124
13.7600 9.1427 0.0317
13.7800 9.1561 0.0159
13.8000 9.1694 0.0117
13.8200 9.1827 0.0319
13.8400 9.1960 0.0210
13.8600 9.2093 0.0126
13.8800 9.2227 0.0260
13.9000 9.2360 0.0160
13.9200 9.2493 0.0117
13.9400 9.2626 0.0257
13.9600 9.2760 0.0175
13.9800 9.2893 0.0074
14.0000 9.3027 0.0268
14.0200 9.3160 0.0137
14.0400 9.3294 0.0064
14.0600 9.3427 0.0286
14.0800 9.3560 0.0118
14.1000 9.3694 0.0090
14.1200 9.3827 0.0233
14.1400 9.3961 0.0159
14.1600 9.4094 0.0010
14.1800 9.4227 0.0253
14.2000 9.4360 0.0167
14.2200 9.4494 0.0016
14.2400 9.4627 0.0252
14.2600 9.4760 0.0167
14.2800 9.4893 0.0021
14.3000 9.5026 0.0251
14.3200 9.5159 0.0146
14.3400 9.5293 0.0052
14.3600 9.5426 0.0239
14.3800 9.5560 0.0190
14.4000 9.5694 0.0040
14.4200 9.5828 0.0256
14.4400 9.5961 0.0171
14.4600 9.6094 0.0059
14.4800 9.6228 0.0264
14.5000 9.6361 0.0155
14.5200 9.6494 0.0097
14.5400 9.6627 0.0200
14.5600 9.6759 0.0173
14.5800 9.6893 0.0134
14.6000 9.7026 0.0221
14.6200 9.7160 0.0145
14.6400 9.7293 0.0137
14.6600 9.7427 0.0218
14.6800 9.7560 0.0141
14.7000 9.7694 0.0158
14.7200 9.7827 0.0245
14.7400 9.7960 0.0106
14.7600 9.8094 0.0177
14.7800 9.8228 0.0200
14.8000 9.8361 0.0170
14.8200 9.8494 0.0164
14.8400 9.8627 0.0203
14.8600 9.8761 0.0177
14.8800 9.8894 0.0142
14.9000 9.9027 0.0245
14.9200 9.9160 0.0143
14.9400 9.9293 0.0191
14.9600 9.9427 0.0218
14.9800 9.9560 0.0168
15.0000 9.9693 0.0231
15.0200 9.9826 0.0221
15.0400 9.9960 0.0141
15.0600 10.0093 0.0210
15.0800 10.0227 0.0219
15.1000 10.0360 0.0187
15.1200 10.0494 0.0166
15.1400 10.0628 0.0192
15.1600 10.0761 0.0164
15.1800 10.0894 0.0231
15.2000 10.1027 0.0202
15.2200 10.1161 0.0207
15.2400 10.1294 0.0202
15.2600 10.1427 0.0173
15.2800 10.1560 0.0202
15.3000 10.1693 0.0152
15.3200 10.1827 0.0225
15.3400 10.1960 0.0160
15.3600 10.2093 0.0156
15.3800 10.2226 0.0292
15.4000 10.2360 0.0157
15.4200 10.2493 0.0164
15.4400 10.2626 0.0287
15.4600 10.2760 0.0181
15.4800 10.2894 0.0178
15.5000 10.3027 0.0237
15.5200 10.3161 0.0208
15.5400 10.3294 0.0184
15.5600 10.3428 0.0292
15.5800 10.3561 0.0192
15.6000 10.3694 0.0197
15.6200 10.3827 0.0284
15.6400 10.3960 0.0233
15.6600 10.4093 0.0198
15.6800 10.4227 0.0308
15.7000 10.4360 0.0251
15.7200 10.4493 0.0245
15.7400 10.4626 0.0271
15.7600 10.4760 0.0255
15.7800 10.4893 0.0232
15.8000 10.5026 0.0270
15.8200 10.5160 0.0262
15.8400 10.5293 0.0223
15.8600 10.5427 0.0281
15.8800 10.5560 0.0279
15.9000 10.5694 0.0252
15.9200 10.5827 0.0244
15.9400 10.5961 0.0252
15.9600 10.6094 0.0239
15.9800 10.6227 0.0244
16.0000 10.6360 0.0243
16.0200 10.6493 0.0255
16.0400 10.6627 0.0252
16.0600 10.6760 0.0243
16.0800 10.6893 0.0253
16.1000 10.7026 0.0282
16.1200 10.7160 0.0246
16.1400 10.7293 0.0292
16.1600 10.7426 0.0289
16.1800 10.7560 0.0252
16.2000 10.7694 0.0313
16.2200 10.7828 0.0289
16.2400 10.7961 0.0286
16.2600 10.8094 0.0292
16.2800 10.8227 0.0295
16.3000 10.8360 0.0269
16.3200 10.8494 0.0311
16.3400 10.8627 0.0277
16.3600 10.8760 0.0297
16.3800 10.8893 0.0337
16.4000 10.9027 0.0242
16.4200 10.9160 0.0279
16.4400 10.9293 0.0345
16.4600 10.9426 0.0256
16.4800 10.9560 0.0310
16.5000 10.9693 0.0258
16.5200 10.9826 0.0280
16.5400 10.9960 0.0264
16.5600 11.0093 0.0338
16.5800 11.0227 0.0232
16.6000 11.0361 0.0240
16.6200 11.0494 0.0340
16.6400 11.0627 0.0206
16.6600 11.0761 0.0273
16.6800 11.0894 0.0290
16.7000 11.1027 0.0211
16.7200 11.1160 0.0235
16.7400 11.1293 0.0310
16.7600 11.1426 0.0238
16.7800 11.1560 0.0207
16.8000 11.1693 0.0268
16.8200 11.1826 0.0257
16.8400 11.1960 0.0215
16.8600 11.2094 0.0280
16.8800 11.2227 0.0232
16.9000 11.2360 0.0267
16.9200 11.2494 0.0230
16.9400 11.2627 0.0309
16.9600 11.2760 0.0216
16.9800 11.2893 0.0248
17.0000 11.3027 0.0321
17.0200 11.3160 0.0169
17.0400 11.3294 0.0245
17.0600 11.3427 0.0320
17.0800 11.3560 0.0180
17.1000 11.3694 0.0231
17.1200 11.3827 0.0296
17.1400 11.3960 0.0230
17.1600 11.4093 0.0305
17.1800 11.4226 0.0271
17.2000 11.4360 0.0203
17.2200 11.4493 0.0286
17.2400 11.4627 0.0298
17.2600 11.4760 0.0202
17.2800 11.4893 0.0339
17.3000 11.5027 0.0293
17.3200 11.5160 0.0243
17.3400 11.5294 0.0300
17.3600 11.5427 0.0297
17.3800 11.5560 0.0252
17.4000 11.5694 0.0297
17.4200 11.5827 0.0262
17.4400 11.5960 0.0267
17.4600 11.6094 0.0306
17.4800 11.6227 0.0272
17.5000 11.6360 0.0255
17.5200 11.6493 0.0276
17.5400 11.6626 0.0267
17.5600 11.6759 0.0265
17.5800 11.6893 0.0285
17.6000 11.7026 0.0227
17.6200 11.7160 0.0278
17.6400 11.7293 0.0232
17.6600 11.7427 0.0242
17.6800 11.7561 0.0259
17.7000 11.7694 0.0261
17.7200 11.7827 0.0201
17.7400 11.7961 0.0295
17.7600 11.8094 0.0186
17.7800 11.8227 0.0239
17.8000 11.8360 0.0256
17.8200 11.8493 0.0214
17.8400 11.8627 0.0238
17.8600 11.8760 0.0224
17.8800 11.8893 0.0187
17.9000 11.9026 0.0236
17.9200 11.9160 0.0248
17.9400 11.9294 0.0152
17.9600 11.9427 0.0253
17.9800 11.9560 0.0262
18.0000 11.9693 0.0203
18.0200 11.9827 0.0243
18.0400 11.9960 0.0242
18.0600 12.0094 0.0210
18.0800 12.0227 0.0247
18.1000 12.0361 0.0216
18.1200 12.0494 0.0237
18.1400 12.0628 0.0233
18.1600 12.0760 0.0210
18.1800 12.0894 0.0266
18.2000 12.1027 0.0210
18.2200 12.1160 0.0176
18.2400 12.1293 0.0311
18.2600 12.1426 0.0204
18.2800 12.1560 0.0224
18.3000 12.1693 0.0295
18.3200 12.1827 0.0191
18.3400 12.1960 0.0228
18.3600 12.2093 0.0337
18.3800 12.2227 0.0243
18.4000 12.2361 0.0189
18.4200 12.2494 0.0259
18.4400 12.2627 0.0234
18.4600 12.2760 0.0270
18.4800 12.2894 0.0286
18.5000 12.3027 0.0248
18.5200 12.3160 0.0222
18.5400 12.3293 0.0245
18.5600 12.3427 0.0261
18.5800 12.3560 0.0278
18.6000 12.3694 0.0232
18.6200 12.3827 0.0269
18.6400 12.3960 0.0230
18.6600 12.4093 0.0241
18.6800 12.4227 0.0286
18.7000 12.4360 0.0252
18.7200 12.4493 0.0245
18.7400 12.4627 0.0288
18.7600 12.4761 0.0181
18.7800 12.4894 0.0219
18.8000 12.5027 0.0290
18.8200 12.5160 0.0230
18.8400 12.5294 0.0202
18.8600 12.5427 0.0237
18.8800 12.5560 0.0265
18.9000 12.5693 0.0182
18.9200 12.5826 0.0305
18.9400 12.5960 0.0225
18.9600 12.6093 0.0190
18.9800 12.6226 0.0285
19.0000 12.6360 0.0239
19.0200 12.6493 0.0166
19.0400 12.6627 0.0308
19.0600 12.6760 0.0233
19.0800 12.6893 0.0167
19.1000 12.7027 0.0255
19.1200 12.7160 0.0240
19.1400 12.7294 0.0177
19.1600 12.7427 0.0280
19.1800 12.7560 0.0225
19.2000 12.7694 0.0186
19.2200 12.7827 0.0220
19.2400 12.7960 0.0240
19.2600 12.8094 0.0234
19.2800 12.8227 0.0233
19.3000 12.8361 0.0259
19.3200 12.8494 0.0192
19.3400 12.8627 0.0241
19.3600 12.8760 0.0225
19.3800 12.8893 0.0204
19.4000 12.9026 0.0229
19.4200 12.9160 0.0249
19.4400 12.9293 0.0229
19.4600 12.9427 0.0244
19.4800 12.9561 0.0210
19.5000 12.9694 0.0266
19.5200 12.9827 0.0186
19.5400 12.9961 0.0225
19.5600 13.0094 0.0243
19.5800 13.0228 0.0225
19.6000 13.0361 0.0197
19.6200 13.0493 0.0256
19.6400 13.0627 0.0222
19.6600 13.0760 0.0190
19.6800 13.0893 0.0223
19.7000 13.1026 0.0236
19.7200 13.1159 0.0190
19.7400 13.1293 0.0200
19.7600 13.1426 0.0220
19.7800 13.1560 0.0168
19.8000 13.1693 0.0273
19.8200 13.1827 0.0177
19.8400 13.1961 0.0155
19.8600 13.2094 0.0246
19.8800 13.2227 0.0215
19.9000 13.2360 0.0203
19.9200 13.2494 0.0294
19.9400 13.2627 0.0194
19.9600 13.2760 0.0230
19.9800 13.2894 0.0237
20.0000 13.3027 0.0272
20.0200 13.3161 0.0229
20.0400 13.3294 0.0277
20.0600 13.3426 0.0251
20.0800 13.3560 0.0209
20.1000 13.3693 0.0284
20.1200 13.3827 0.0277
20.1400 13.3960 0.0199
20.1600 13.4093 0.0288
20.1800 13.4227 0.0257
20.2000 13.4361 0.0223
20.2200 13.4494 0.0274
20.2400 13.4627 0.0282
20.2600 13.4760 0.0238
20.2800 13.4894 0.0259
20.3000 13.5027 0.0305
20.3200 13.5160 0.0201
20.3400 13.5294 0.0323
20.3600 13.5427 0.0290
20.3800 13.5560 0.0247
20.4000 13.5693 0.0261
20.4200 13.5826 0.0286
20.4400 13.5959 0.0263
20.4600 13.6093 0.0291
20.4800 13.6227 0.0279
20.5000 13.6360 0.0261
20.5200 13.6493 0.0279
20.5400 13.6627 0.0304
20.5600 13.6761 0.0264
20.5800 13.6894 0.0266
20.6000 13.7028 0.0274
20.6200 13.7161 0.0277
20.6400 13.7294 0.0259
20.6600 13.7427 0.0245
20.6800 13.7560 0.0340
20.7000 13.7693 0.0311
20.7200 13.7826 0.0286
20.7400 13.7960 0.0343
20.7600 13.8093 0.0280
20.7800 13.8226 0.0322
20.8000 13.8360 0.0369
20.8200 13.8493 0.0280
20.8400 13.8627 0.0293
20.8600 13.8760 0.0367
20.8800 13.8893 0.0314
20.9000 13.9027 0.0293
20.9200 13.9161 0.0412
20.9400 13.9294 0.0249
20.9600 13.9427 0.0298
20.9800 13.9561 0.0394
21.0000 13.9694 0.0292
21.0200 13.9828 0.0323
21.0400 13.9961 0.0359
21.0600 14.0094 0.0344
21.0800 14.0227 0.0314
21.1000 14.0360 0.0346
21.1200 14.0494 0.0249
21.1400 14.0627 0.0361
21.1600 14.0760 0.0358
21.1800 14.0893 0.0298
21.2000 14.1026 0.0348
21.2200 14.1160 0.0316
21.2400 14.1293 0.0300
21.2600 14.1427 0.0371
21.2800 14.1561 0.0322
21.3000 14.1694 0.0340
21.3200 14.1827 0.0329
21.3400 14.1960 0.0346
21.3600 14.2094 0.0335
21.3800 14.2227 0.0313
21.4000 14.2360 0.0301
21.4200 14.2494 0.0382
21.4400 14.2627 0.0306
21.4600 14.2760 0.0302
21.4800 14.2894 0.0355
21.5000 14.3026 0.0303
21.5200 14.3159 0.0338
21.5400 14.3293 0.0346
21.5600 14.3426 0.0284
21.5800 14.3559 0.0319
21.6000 14.3693 0.0300
21.6200 14.3826 0.0331
21.6400 14.3960 0.0344
21.6600 14.4094 0.0296
21.6800 14.4228 0.0337
21.7000 14.4361 0.0331
21.7200 14.4494 0.0314
21.7400 14.4628 0.0323
21.7600 14.4761 0.0345
21.7800 14.4893 0.0303
21.8000 14.5026 0.0377
21.8200 14.5160 0.0348
21.8400 14.5293 0.0317
21.8600 14.5426 0.0369
21.8800 14.5559 0.0380
21.9000 14.5693 0.0273
21.9200 14.5827 0.0385
21.9400 14.5960 0.0347
21.9600 14.6094 0.0304
21.9800 14.6227 0.0408
22.0000 14.6361 0.0333
22.0200 14.6494 0.0319
22.0400 14.6627 0.0378
22.0600 14.6760 0.0373
22.0800 14.6894 0.0307
22.1000 14.7027 0.0408
22.1200 14.7161 0.0360
22.1400 14.7294 0.0340
22.1600 14.7427 0.0385
22.1800 14.7560 0.0377
22.2000 14.7693 0.0319
22.2200 14.7826 0.0414
22.2400 14.7960 0.0372
22.2600 14.8093 0.0354
22.2800 14.8227 0.0395
22.3000 14.8360 0.0408
22.3200 14.8493 0.0396
22.3400 14.8627 0.0360
22.3600 14.8761 0.0390
22.3800 14.8894 0.0383
22.4000 14.9027 0.0338
22.4200 14.9160 0.0462
22.4400 14.9294 0.0329
22.4600 14.9428 0.0344
22.4800 14.9561 0.0479
22.5000 14.9694 0.0314
22.5200 14.9827 0.0375
22.5400 14.9960 0.0475
22.5600 15.0093 0.0313
22.5800 15.0226 0.0316
22.6000 15.0359 0.0541
22.6200 15.0493 0.0324
22.6400 15.0626 0.0362
22.6600 15.0760 0.0494
22.6800 15.0893 0.0314
22.7000 15.1027 0.0368
22.7200 15.1160 0.0529
22.7400 15.1294 0.0251
22.7600 15.1427 0.0386
22.7800 15.1560 0.0494
22.8000 15.1694 0.0306
22.8200 15.1827 0.0367
22.8400 15.1960 0.0513
22.8600 15.2093 0.0265
22.8800 15.2227 0.0346
22.9000 15.2360 0.0477
22.9200 15.2493 0.0268
22.9400 15.2627 0.0389
22.9600 15.2760 0.0467
22.9800 15.2893 0.0340
23.0000 15.3027 0.0391
23.0200 15.3160 0.0436
23.0400 15.3293 0.0297
23.0600 15.3427 0.0458
23.0800 15.3560 0.0386
23.1000 15.3694 0.0298
23.1200 15.3827 0.0464
23.1400 15.3960 0.0414
23.1600 15.4094 0.0326
23.1800 15.4228 0.0451
23.2000 15.4361 0.0335
23.2200 15.4494 0.0384
23.2400 15.4627 0.0433
23.2600 15.4760 0.0330
23.2800 15.4893 0.0372
23.3000 15.5026 0.0406
23.3200 15.5159 0.0340
23.3400 15.5293 0.0396
23.3600 15.5426 0.0429
23.3800 15.5560 0.0277
23.4000 15.5693 0.0390
23.4200 15.5827 0.0412
23.4400 15.5961 0.0307
23.4600 15.6094 0.0398
23.4800 15.6228 0.0440
23.5000 15.6360 0.0331
23.5200 15.6494 0.0373
23.5400 15.6627 0.0370
23.5600 15.6761 0.0346
23.5800 15.6894 0.0400
23.6000 15.7027 0.0401
23.6200 15.7160 0.0321
23.6400 15.7294 0.0411
23.6600 15.7427 0.0371
23.6800 15.7560 0.0378
23.7000 15.7693 0.0388
23.7200 15.7826 0.0367
23.7400 15.7960 0.0383
23.7600 15.8093 0.0351
23.7800 15.8226 0.0374
23.8000 15.8360 0.0358
23.8200 15.8494 0.0410
23.8400 15.8628 0.0364
23.8600 15.8761 0.0355
23.8800 15.8894 0.0382
23.9000 15.9027 0.0376
23.9200 15.9160 0.0392
23.9400 15.9293 0.0380
23.9600 15.9426 0.0360
23.9800 15.9560 0.0431
24.0000 15.9693 0.0297
24.0200 15.9826 0.0416
24.0400 15.9960 0.0447
24.0600 16.0093 0.0302
24.0800 16.0227 0.0399
24.1000 16.0360 0.0459
24.1200 16.0494 0.0271
24.1400 16.0627 0.0463
24.1600 16.0760 0.0447
24.1800 16.0894 0.0244
24.2000 16.1027 0.0471
24.2200 16.1160 0.0445
24.2400 16.1293 0.0279
24.2600 16.1427 0.0481
24.2800 16.1561 0.0382
24.3000 16.1694 0.0282
24.3200 16.1827 0.0513
24.3400 16.1960 0.0387
24.3600 16.2094 0.0295
24.3800 16.2227 0.0475
24.4000 16.2360 0.0384
24.4200 16.2493 0.0315
24.4400 16.2626 0.0503
24.4600 16.2760 0.0317
24.4800 16.2893 0.0379
24.5000 16.3026 0.0471
24.5200 16.3160 0.0297
24.5400 16.3294 0.0400
24.5600 16.3427 0.0486
24.5800 16.3560 0.0309
24.6000 16.3694 0.0420
24.6200 16.3827 0.0472
24.6400 16.3961 0.0277
24.6600 16.4094 0.0433
24.6800 16.4227 0.0467
24.7000 16.4361 0.0333
24.7200 16.4494 0.0492
24.7400 16.4627 0.0456
24.7600 16.4760 0.0352
24.7800 16.4893 0.0585
24.8000 16.5026 0.0399
24.8200 16.5160 0.0397
24.8400 16.5293 0.0551
24.8600 16.5427 0.0428
24.8800 16.5560 0.0446
24.9000 16.5694 0.0539
24.9200 16.5827 0.0399
24.9400 16.5961 0.0457
24.9600 16.6094 0.0502
24.9800 16.6228 0.0439
25.0000 16.6361 0.0446
25.0200 16.6494 0.0488
25.0400 16.6627 0.0459
25.0600 16.6760 0.0486
25.0800 16.6893 0.0450
25.1000 16.7027 0.0483
25.1200 16.7160 0.0467
25.1400 16.7293 0.0459
25.1600 16.7427 0.0509
25.1800 16.7560 0.0397
25.2000 16.7693 0.0461
25.2200 16.7826 0.0518
25.2400 16.7960 0.0405
25.2600 16.8094 0.0414
25.2800 16.8227 0.0504
25.3000 16.8360 0.0405
25.3200 16.8494 0.0484
25.3400 16.8628 0.0462
25.3600 16.8761 0.0407
25.3800 16.8894 0.0435
25.4000 16.9027 0.0477
25.4200 16.9160 0.0449
25.4400 16.9294 0.0531
25.4600 16.9427 0.0436
25.4800 16.9560 0.0453
25.5000 16.9693 0.0495
25.5200 16.9826 0.0465
25.5400 16.9959 0.0447
25.5600 17.0093 0.0466
25.5800 17.0226 0.0464
25.6000 17.0360 0.0438
25.6200 17.0494 0.0476
25.6400 17.0628 0.0479
25.6600 17.0761 0.0426
25.6800 17.0894 0.0440
25.7000 17.1027 0.0456
25.7200 17.1161 0.0425
25.7400 17.1294 0.0483
25.7600 17.1427 0.0445
25.7800 17.1560 0.0434
25.8000 17.1694 0.0467
25.8200 17.1827 0.0459
25.8400 17.1960 0.0448
25.8600 17.2093 0.0522
25.8800 17.2226 0.0416
25.9000 17.2360 0.0431
25.9200 17.2493 0.0439
25.9400 17.2626 0.0446
25.9600 17.2760 0.0495
25.9800 17.2894 0.0484
26.0000 17.3028 0.0402
26.0200 17.3161 0.0465
26.0400 17.3294 0.0494
26.0600 17.3427 0.0397
26.0800 17.3561 0.0527
26.1000 17.3694 0.0478
26.1200 17.3827 0.0422
26.1400 17.3960 0.0501
26.1600 17.4093 0.0466
26.1800 17.4227 0.0435
26.2000 17.4360 0.0486
26.2200 17.4493 0.0481
26.2400 17.4626 0.0424
26.2600 17.4760 0.0480
26.2800 17.4894 0.0472
26.3000 17.5027 0.0444
26.3200 17.5160 0.0480
26.3400 17.5294 0.0450
26.3600 17.5427 0.0455
26.3800 17.5560 0.0430
26.4000 17.5693 0.0523
26.4200 17.5827 0.0504
26.4400 17.5961 0.0436
26.4600 17.6094 0.0509
26.4800 17.6227 0.0485
26.5000 17.6360 0.0461
26.5200 17.6494 0.0536
26.5400 17.6627 0.0515
26.5600 17.6760 0.0423
26.5800 17.6893 0.0561
26.6000 17.7026 0.0555
26.6200 17.7160 0.0425
26.6400 17.7293 0.0568
26.6600 17.7426 0.0541
26.6800 17.7560 0.0383
26.7000 17.7694 0.0617
26.7200 17.7828 0.0511
26.7400 17.7961 0.0449
26.7600 17.8094 0.0637
26.7800 17.8227 0.0533
26.8000 17.8361 0.0444
26.8200 17.8494 0.0685
26.8400 17.8627 0.0504
26.8600 17.8760 0.0465
26.8800 17.8893 0.0695
26.9000 17.9027 0.0482
26.9200 17.9159 0.0523
26.9400 17.9293 0.0702
26.9600 17.9426 0.0487
26.9800 17.9560 0.0531
27.0000 17.9693 0.0675
27.0200 17.9826 0.0478
27.0400 17.9960 0.0581
27.0600 18.0094 0.0621
27.0800 18.0227 0.0480
27.1000 18.0361 0.0561
27.1200 18.0494 0.0664
27.1400 18.0627 0.0489
27.1600 18.0761 0.0589
27.1800 18.0894 0.0577
27.2000 18.1027 0.0538
27.2200 18.1160 0.0621
27.2400 18.1293 0.0561
27.2600 18.1427 0.0495
27.2800 18.1560 0.0610
27.3000 18.1693 0.0536
27.3200 18.1826 0.0547
27.3400 18.1960 0.0558
27.3600 18.2093 0.0480
27.3800 18.2227 0.0578
27.4000 18.2360 0.0542
27.4200 18.2494 0.0502
27.4400 18.2627 0.0546
27.4600 18.2760 0.0559
27.4800 18.2894 0.0495
27.5000 18.3027 0.0513
27.5200 18.3161 0.0541
27.5400 18.3294 0.0532
27.5600 18.3427 0.0489
27.5800 18.3561 0.0506
27.6000 18.3694 0.0526
27.6200 18.3827 0.0492
27.6400 18.3960 0.0435
27.6600 18.4093 0.0574
27.6800 18.4226 0.0487
27.7000 18.4360 0.0433
27.7200 18.4493 0.0548
27.7400 18.4627 0.0479
27.7600 18.4760 0.0423
27.7800 18.4894 0.0580
27.8000 18.5027 0.0458
27.8200 18.5161 0.0406
27.8400 18.5294 0.0582
27.8600 18.5427 0.0465
27.8800 18.5561 0.0446
27.9000 18.5694 0.0605
27.9200 18.5827 0.0481
27.9400 18.5960 0.0499
27.9600 18.6093 0.0641
27.9800 18.6227 0.0388
28.0000 18.6360 0.0532
28.0200 18.6493 0.0596
28.0400 18.6627 0.0443
28.0600 18.6760 0.0529
28.0800 18.6893 0.0571
28.1000 18.7026 0.0413
28.1200 18.7160 0.0540
28.1400 18.7293 0.0552
28.1600 18.7427 0.0466
28.1800 18.7561 0.0501
28.2000 18.7694 0.0554
28.2200 18.7827 0.0507
28.2400 18.7961 0.0526
28.2600 18.8094 0.0559
28.2800 18.8227 0.0527
28.3000 18.8360 0.0518
28.3200 18.8493 0.0568
28.3400 18.8627 0.0548
28.3600 18.8760 0.0501
28.3800 18.8893 0.0629
28.4000 18.9026 0.0514
28.4200 18.9160 0.0497
28.4400 18.9293 0.0640
28.4600 18.9427 0.0542
28.4800 18.9560 0.0475
28.5000 18.9694 0.0666
28.5200 18.9827 0.0565
28.5400 18.9960 0.0483
28.5600 19.0094 0.0671
28.5800 19.0227 0.0596
28.6000 19.0361 0.0517
28.6200 19.0494 0.0688
28.6400 19.0627 0.0540
28.6600 19.0760 0.0589
28.6800 19.0894 0.0684
28.7000 19.1027 0.0514
28.7200 19.1160 0.0635
28.7400 19.1293 0.0698
28.7600 19.1426 0.0590
28.7800 19.1559 0.0628
28.8000 19.1693 0.0714
28.8200 19.1826 0.0596
28.8400 19.1960 0.0677
28.8600 19.2094 0.0650
28.8800 19.2228 0.0655
28.9000 19.2361 0.0683
28.9200 19.2494 0.0666
28.9400 19.2628 0.0668
28.9600 19.2761 0.0760
28.9800 19.2894 0.0654
29.0000 19.3027 0.0734
29.0200 19.3160 0.0769
29.0400 19.3293 0.0672
29.0600 19.3427 0.0692
29.0800 19.3560 0.0742
29.1000 19.3693 0.0681
29.1200 19.3827 0.0662
29.1400 19.3960 0.0702
29.1600 19.4094 0.0614
29.1800 19.4227 0.0630
29.2000 19.4360 0.0677
29.2200 19.4494 0.0581
29.2400 19.4628 0.0647
29.2600 19.4761 0.0616
29.2800 19.4894 0.0607
29.3000 19.5027 0.0633
29.3200 19.5160 0.0599
29.3400 19.5294 0.0672
29.3600 19.5427 0.0573
29.3800 19.5560 0.0611
29.4000 19.5693 0.0621
29.4200 19.5827 0.0580
29.4400 19.5960 0.0607
29.4600 19.6093 0.0673
29.4800 19.6226 0.0583
29.5000 19.6360 0.0645
29.5200 19.6493 0.0650
29.5400 19.6627 0.0578
29.5600 19.6760 0.0649
29.5800 19.6894 0.0677
29.6000 19.7027 0.0589
29.6200 19.7161 0.0646
29.6400 19.7294 0.0677
29.6600 19.7427 0.0611
29.6800 19.7560 0.0680
29.7000 19.7694 0.0608
29.7200 19.7827 0.0635
29.7400 19.7960 0.0660
29.7600 19.8093 0.0657
29.7800 19.8227 0.0627
29.8000 19.8360 0.0692
29.8200 19.8493 0.0664
29.8400 19.8626 0.0601
29.8600 19.8760 0.0723
29.8800 19.8893 0.0664
29.9000 19.9026 0.0595
29.9200 19.9160 0.0679
29.9400 19.9294 0.0674
29.9600 19.9427 0.0586
29.9800 19.9561 0.0656
30.0000 19.9694 0.0604
30.0200 19.9827 0.0612
30.0400 19.9961 0.0727
30.0600 20.0094 0.0579
30.0800 20.0227 0.0636
30.1000 20.0360 0.0732
30.1200 20.0493 0.0565
30.1400 20.0627 0.0697
30.1600 20.0760 0.0710
30.1800 20.0893 0.0577
30.2000 20.1027 0.0710
30.2200 20.1160 0.0734
30.2400 20.1293 0.0559
30.2600 20.1427 0.0733
30.2800 20.1560 0.0744
30.3000 20.1693 0.0596
30.3200 20.1827 0.0696
30.3400 20.1961 0.0701
30.3600 20.2094 0.0577
30.3800 20.2227 0.0768
30.4000 20.2361 0.0655
30.4200 20.2494 0.0610
30.4400 20.2627 0.0721
30.4600 20.2760 0.0644
30.4800 20.2893 0.0629
30.5000 20.3027 0.0741
30.5200 20.3160 0.0647
30.5400 20.3293 0.0625
30.5600 20.3426 0.0748
30.5800 20.3560 0.0613
30.6000 20.3693 0.0641
30.6200 20.3826 0.0686
30.6400 20.3960 0.0657
30.6600 20.4094 0.0668
30.6800 20.4228 0.0662
30.7000 20.4361 0.0653
30.7200 20.4494 0.0661
30.7400 20.4627 0.0701
30.7600 20.4760 0.0690
30.7800 20.4894 0.0598
30.8000 20.5027 0.0679
30.8200 20.5160 0.0680
30.8400 20.5293 0.0634
30.8600 20.5427 0.0699
30.8800 20.5560 0.0724
30.9000 20.5693 0.0589
30.9200 20.5826 0.0708
30.9400 20.5960 0.0775
30.9600 20.6093 0.0617
30.9800 20.6226 0.0739
31.0000 20.6360 0.0751
31.0200 20.6493 0.0587
31.0400 20.6627 0.0866
31.0600 20.6761 0.1282
31.0800 20.6894 0.1297
31.1000 20.7027 0.1457
31.1200 20.7161 0.1297
31.1400 20.7294 0.1005
31.1600 20.7427 0.1146
31.1800 20.7560 0.1091
31.2000 20.7693 0.0947
31.2200 20.7826 0.1164
31.2400 20.7960 0.1070
31.2600 20.8093 0.0907
31.2800 20.8226 0.1118
31.3000 20.8360 0.1123
31.3200 20.8494 0.0957
31.3400 20.8627 0.1158
31.3600 20.8760 0.1156
31.3800 20.8894 0.1063
31.4000 20.9027 0.1199
31.4200 20.9161 0.1091
31.4400 20.9294 0.1087
31.4600 20.9427 0.1153
31.4800 20.9560 0.1122
31.5000 20.9694 0.1131
31.5200 20.9827 0.1187
31.5400 20.9960 0.1137
31.5600 21.0094 0.1154
31.5800 21.0227 0.1153
31.6000 21.0361 0.1166
31.6200 21.0494 0.1097
31.6400 21.0627 0.1173
31.6600 21.0760 0.1180
31.6800 21.0893 0.1092
31.7000 21.1027 0.1132
31.7200 21.1160 0.1157
31.7400 21.1293 0.1057
31.7600 21.1427 0.1144
31.7800 21.1560 0.1111
31.8000 21.1694 0.1077
31.8200 21.1827 0.1136
31.8400 21.1960 0.1146
31.8600 21.2094 0.1038
31.8800 21.2227 0.1111
31.9000 21.2360 0.1178
31.9200 21.2494 0.1062
31.9400 21.2627 0.1190
31.9600 21.2760 0.1140
31.9800 21.2893 0.1044
32.0000 21.3026 0.1148
32.0200 21.3160 0.1191
32.0400 21.3293 0.1031
32.0600 21.3427 0.1121
32.0800 21.3560 0.1075
32.1000 21.3693 0.1059
32.1200 21.3827 0.1132
32.1400 21.3961 0.1079
32.1600 21.4094 0.1069
32.1800 21.4227 0.1177
32.2000 21.4361 0.1096
32.2200 21.4494 0.1010
32.2400 21.4627 0.1181
32.2600 21.4760 0.1052
32.2800 21.4893 0.1019
32.3000 21.5027 0.1154
32.3200 21.5160 0.1103
32.3400 21.5293 0.1121
32.3600 21.5426 0.1138
32.3800 21.5559 0.1071
32.4000 21.5693 0.1090
32.4200 21.5827 0.1067
32.4400 21.5960 0.1084
32.4600 21.6093 0.1063
32.4800 21.6227 0.1109
32.5000 21.6360 0.1044
32.5200 21.6494 0.1071
32.5400 21.6627 0.1055
32.5600 21.6761 0.1073
32.5800 21.6894 0.1055
32.6000 21.7028 0.1042
32.6200 21.7161 0.1139
32.6400 21.7294 0.1031
32.6600 21.7427 0.1075
32.6800 21.7560 0.1135
32.7000 21.7693 0.0998
32.7200 21.7826 0.1094
32.7400 21.7959 0.1116
32.7600 21.8093 0.1003
32.7800 21.8226 0.1037
32.8000 21.8360 0.1065
32.8200 21.8493 0.1024
32.8400 21.8627 0.1003
32.8600 21.8761 0.1003
32.8800 21.8894 0.0950
32.9000 21.9027 0.1065
32.9200 21.9160 0.0964
32.9400 21.9294 0.1015
32.9600 21.9427 0.1033
32.9800 21.9560 0.0977
33.0000 21.9694 0.1075
33.0200 21.9827 0.1014
33.0400 21.9961 0.0956
33.0600 22.0094 0.1046
33.0800 22.0227 0.0995
33.1000 22.0360 0.0971
33.1200 22.0493 0.0994
33.1400 22.0627 0.0999
33.1600 22.0760 0.0994
33.1800 22.0893 0.1014
33.2000 22.1027 0.0985
33.2200 22.1161 0.0952
33.2400 22.1294 0.1047
33.2600 22.1427 0.0949
33.2800 22.1560 0.0991
33.3000 22.1694 0.1035
33.3200 22.1827 0.0927
33.3400 22.1960 0.0979
33.3600 22.2093 0.1040
33.3800 22.2226 0.0936
33.4000 22.2360 0.0971
33.4200 22.2493 0.1007
33.4400 22.2626 0.0945
33.4600 22.2760 0.0950
33.4800 22.2893 0.1031
33.5000 22.3027 0.0904
33.5200 22.3160 0.0983
33.5400 22.3293 0.1033
33.5600 22.3427 0.0970
33.5800 22.3560 0.0982
33.6000 22.3694 0.0979
33.6200 22.3827 0.0993
33.6400 22.3960 0.0981
33.6600 22.4094 0.1019
33.6800 22.4227 0.0934
33.7000 22.4361 0.1010
33.7200 22.4494 0.1002
33.7400 22.4627 0.0945
33.7600 22.4761 0.1019
33.7800 22.4894 0.0994
33.8000 22.5027 0.0988
33.8200 22.5160 0.1045
33.8400 22.5293 0.1008
33.8600 22.5426 0.1016
33.8800 22.5560 0.0973
33.9000 22.5693 0.1071
33.9200 22.5827 0.1001
33.9400 22.5961 0.0963
33.9600 22.6094 0.1076
33.9800 22.6227 0.0988
34.0000 22.6361 0.1002
34.0200 22.6494 0.1063
34.0400 22.6628 0.1031
34.0600 22.6761 0.0969
34.0800 22.6894 0.1081
34.1000 22.7027 0.1053
34.1200 22.7160 0.0988
34.1400 22.7293 0.1091
34.1600 22.7426 0.1038
34.1800 22.7559 0.0973
34.2000 22.7693 0.1083
34.2200 22.7826 0.0987
34.2400 22.7960 0.1033
34.2600 22.8093 0.1024
34.2800 22.8227 0.1059
34.3000 22.8361 0.1025
34.3200 22.8494 0.0978
34.3400 22.8628 0.1030
34.3600 22.8761 0.1062
34.3800 22.8894 0.0971
34.4000 22.9028 0.1033
34.4200 22.9161 0.1132
34.4400 22.9293 0.0901
34.4600 22.9427 0.1064
34.4800 22.9560 0.1160
34.5000 22.9693 0.0868
34.5200 22.9826 0.1103
34.5400 22.9960 0.1166
34.5600 23.0093 0.0852
34.5800 23.0226 0.1093
34.6000 23.0360 0.1125
34.6200 23.0493 0.0914
34.6400 23.0627 0.1080
34.6600 23.0760 0.1124
34.6800 23.0894 0.0933
34.7000 23.1027 0.1054
34.7200 23.1160 0.1067
34.7400 23.1294 0.1010
34.7600 23.1427 0.1047
34.7800 23.1561 0.1050
34.8000 23.1694 0.1040
34.8200 23.1827 0.1010
34.8400 23.1960 0.1037
34.8600 23.2094 0.1089
34.8800 23.2226 0.1027
34.9000 23.2359 0.0987
34.9200 23.2493 0.1095
34.9400 23.2627 0.1037
34.9600 23.2760 0.0962
34.9800 23.2893 0.1096
35.0000 23.3027 0.1037
35.0200 23.3161 0.0964
35.0400 23.3294 0.1147
35.0600 23.3427 0.0958
35.0800 23.3561 0.0918
35.1000 23.3694 0.1180
35.1200 23.3827 0.1016
35.1400 23.3960 0.0884
35.1600 23.4093 0.1177
35.1800 23.4227 0.1044
35.2000 23.4360 0.0918
35.2200 23.4494 0.1070
35.2400 23.4627 0.1082
35.2600 23.4760 0.0921
35.2800 23.4893 0.1123
35.3000 23.5027 0.1089
35.3200 23.5160 0.0909
35.3400 23.5293 0.1085
35.3600 23.5427 0.1084
35.3800 23.5560 0.0945
35.4000 23.5694 0.1058
35.4200 23.5827 0.1130
35.4400 23.5960 0.0979
35.4600 23.6094 0.1029
35.4800 23.6228 0.1088
35.5000 23.6361 0.1036
35.5200 23.6494 0.0984
35.5400 23.6627 0.1126
35.5600 23.6760 0.0996
35.5800 23.6894 0.0963
35.6000 23.7027 0.1112
35.6200 23.7160 0.1099
35.6400 23.7293 0.0972
35.6600 23.7427 0.1120
35.6800 23.7560 0.1015
35.7000 23.7693 0.1006
35.7200 23.7827 0.1157
35.7400 23.7960 0.1022
35.7600 23.8094 0.1016
35.7800 23.8227 0.1087
35.8000 23.8360 0.1055
35.8200 23.8494 0.1090
35.8400 23.8627 0.1085
35.8600 23.8761 0.0989
35.8800 23.8894 0.1110
35.9000 23.9027 0.1055
35.9200 23.9160 0.1028
35.9400 23.9294 0.1128
35.9600 23.9427 0.1007
35.9800 23.9559 0.1019
36.0000 23.9693 0.1107
36.0200 23.9826 0.0953
36.0400 23.9959 0.1052
36.0600 24.0093 0.1114
36.0800 24.0227 0.1005
36.1000 24.0360 0.1012
36.1200 24.0494 0.1119
36.1400 24.0628 0.0939
36.1600 24.0761 0.1074
36.1800 24.0894 0.1103
36.2000 24.1028 0.0920
36.2200 24.1161 0.1103
36.2400 24.1293 0.1097
36.2600 24.1426 0.0963
36.2800 24.1560 0.1083
36.3000 24.1693 0.1034
36.3200 24.1826 0.0945
36.3400 24.1960 0.1098
36.3600 24.2093 0.0999
36.3800 24.2227 0.1043
36.4000 24.2360 0.1028
36.4200 24.2494 0.1015
36.4400 24.2627 0.1068
36.4600 24.2761 0.1036
36.4800 24.2894 0.1001
36.5000 24.3027 0.1067
36.5200 24.3160 0.1010
36.5400 24.3294 0.1014
36.5600 24.3427 0.1078
36.5800 24.3561 0.0970
36.6000 24.3694 0.1031
36.6200 24.3827 0.1068
36.6400 24.3960 0.0917
36.6600 24.4093 0.1073
36.6800 24.4226 0.1060
36.7000 24.4360 0.0981
36.7200 24.4493 0.1112
36.7400 24.4627 0.1050
36.7600 24.4760 0.1011
36.7800 24.4893 0.1072
36.8000 24.5027 0.1042
36.8200 24.5160 0.0998
36.8400 24.5294 0.1071
36.8600 24.5427 0.1007
36.8800 24.5560 0.1090
36.9000 24.5694 0.1007
36.9200 24.5827 0.1036
36.9400 24.5961 0.1104
36.9600 24.6094 0.0989
36.9800 24.6227 0.1064
37.0000 24.6360 0.1105
37.0200 24.6494 0.0974
37.0400 24.6627 0.1093
37.0600 24.6760 0.1160
37.0800 24.6893 0.0999
37.1000 24.7027 0.1064
37.1200 24.7160 0.1163
37.1400 24.7293 0.0957
37.1600 24.7427 0.1061
37.1800 24.7560 0.1177
37.2000 24.7694 0.0983
37.2200 24.7827 0.1104
37.2400 24.7961 0.1150
37.2600 24.8094 0.1017
37.2800 24.8227 0.1043
37.3000 24.8361 0.1089
37.3200 24.8493 0.0993
37.3400 24.8627 0.1143
37.3600 24.8760 0.1084
37.3800 24.8894 0.0965
37.4000 24.9027 0.1113
37.4200 24.9160 0.1073
37.4400 24.9293 0.0976
37.4600 24.9427 0.1159
37.4800 24.9560 0.1038
37.5000 24.9693 0.0985
37.5200 24.9826 0.1116
37.5400 24.9960 0.1055
37.5600 25.0094 0.1027
37.5800 25.0227 0.1060
37.6000 25.0360 0.1070
37.6200 25.0494 0.0992
37.6400 25.0627 0.1084
37.6600 25.0761 0.1063
37.6800 25.0894 0.1066
37.7000 25.1027 0.1119
37.7200 25.1160 0.1041
37.7400 25.1294 0.0993
37.7600 25.1427 0.1070
37.7800 25.1560 0.1107
37.8000 25.1693 0.0997
37.8200 25.1826 0.1016
37.8400 25.1960 0.1118
37.8600 25.2093 0.0957
37.8800 25.2227 0.1039
37.9000 25.2361 0.1128
37.9200 25.2494 0.0967
37.9400 25.2627 0.1046
37.9600 25.2761 0.1101
37.9800 25.2894 0.0964
38.0000 25.3027 0.1040
38.0200 25.3161 0.1074
38.0400 25.3294 0.0965
38.0600 25.3427 0.1074
38.0800 25.3560 0.1093
38.1000 25.3694 0.0991
38.1200 25.3827 0.1058
38.1400 25.3960 0.1064
38.1600 25.4093 0.0993
38.1800 25.4226 0.1091
38.2000 25.4360 0.1014
38.2200 25.4493 0.1006
38.2400 25.4626 0.1043
38.2600 25.4760 0.1057
38.2800 25.4894 0.0958
38.3000 25.5027 0.1041
38.3200 25.5161 0.1053
38.3400 25.5294 0.0981
38.3600 25.5427 0.1038
38.3800 25.5561 0.1059
38.4000 25.5694 0.0962
38.4200 25.5826 0.1042
38.4400 25.5960 0.1047
38.4600 25.6093 0.1018
38.4800 25.6226 0.1030
38.5000 25.6360 0.1042
38.5200 25.6493 0.1013
38.5400 25.6627 0.1016
38.5600 25.6760 0.1079
38.5800 25.6894 0.0947
38.6000 25.7027 0.1075
38.6200 25.7160 0.1074
38.6400 25.7294 0.0945
38.6600 25.7427 0.0996
38.6800 25.7560 0.1119
38.7000 25.7694 0.0977
38.7200 25.7827 0.1020
38.7400 25.7961 0.1075
38.7600 25.8094 0.0966
38.7800 25.8227 0.1010
38.8000 25.8360 0.1096
38.8200 25.8494 0.0978
38.8400 25.8627 0.0977
38.8600 25.8760 0.1114
38.8800 25.8893 0.1001
38.9000 25.9026 0.0971
38.9200 25.9160 0.1109
38.9400 25.9293 0.0959
38.9600 25.9426 0.0984
38.9800 25.9560 0.1147
39.0000 25.9694 0.0915
39.0200 25.9827 0.1009
39.0400 25.9960 0.1110
39.0600 26.0093 0.0927
39.0800 26.0227 0.1025
39.1000 26.0361 0.1123
39.1200 26.0494 0.0946
39.1400 26.0627 0.1043
39.1600 26.0760 0.1095
39.1800 26.0894 0.0948
39.2000 26.1027 0.1064
39.2200 26.1160 0.1094
39.2400 26.1293 0.0940
39.2600 26.1426 0.1071
39.2800 26.1560 0.1065
39.3000 26.1693 0.0946
39.3200 26.1826 0.1073
39.3400 26.1960 0.1066
39.3600 26.2094 0.1014
39.3800 26.2228 0.0992
39.4000 26.2361 0.1104
39.4200 26.2494 0.1005
39.4400 26.2628 0.0968
39.4600 26.2761 0.1051
39.4800 26.2894 0.1072
39.5000 26.3027 0.0992
39.5200 26.3160 0.1043
39.5400 26.3293 0.1048
39.5600 26.3427 0.0978
39.5800 26.3560 0.1057
39.6000 26.3693 0.1067
39.6200 26.3826 0.0973
39.6400 26.3960 0.1114
39.6600 26.4094 0.1019
39.6800 26.4227 0.0952
39.7000 26.4360 0.1116
39.7200 26.4494 0.1049
39.7400 26.4627 0.0928
39.7600 26.4761 0.1084
39.7800 26.4894 0.1055
39.8000 26.5027 0.0938
39.8200 26.5161 0.1093
39.8400 26.5294 0.1050
39.8600 26.5427 0.0976
39.8800 26.5560 0.1060
39.9000 26.5693 0.1070
39.9200 26.5827 0.0993
39.9400 26.5959 0.1055
39.9600 26.6092 0.1058
39.9800 26.6226 0.0998
40.0000 26.6360 0.1057
40.0200 26.6493 0.1067
40.0400 26.6627 0.0973
40.0600 26.6760 0.1073
40.0800 26.6894 0.1038
40.1000 26.7028 0.0997
40.1200 26.7161 0.1060
40.1400 26.7294 0.1033
40.1600 26.7427 0.1032
40.1800 26.7561 0.1045
40.2000 26.7694 0.1019
40.2200 26.7827 0.1024
40.2400 26.7960 0.1030
40.2600 26.8093 0.1043
40.2800 26.8227 0.1031
40.3000 26.8360 0.1066
40.3200 26.8493 0.1040
40.3400 26.8626 0.1013
40.3600 26.8760 0.1086
40.3800 26.8893 0.1032
40.4000 26.9026 0.1049
40.4200 26.9160 0.1036
40.4400 26.9294 0.1054
40.4600 26.9427 0.1005
40.4800 26.9560 0.1058
40.5000 26.9694 0.1025
40.5200 26.9827 0.1016
40.5400 26.9961 0.1073
40.5600 27.0094 0.1009
40.5800 27.0227 0.1009
40.6000 27.0360 0.1092
40.6200 27.0493 0.1032
40.6400 27.0627 0.1024
40.6600 27.0760 0.1062
40.6800 27.0893 0.1044
40.7000 27.1026 0.1015
40.7200 27.1160 0.1057
40.7400 27.1294 0.1016
40.7600 27.1427 0.1010
40.7800 27.1560 0.1082
40.8000 27.1694 0.1005
40.8200 27.1827 0.1033
40.8400 27.1960 0.1033
40.8600 27.2093 0.1057
40.8800 27.2227 0.1015
40.9000 27.2361 0.0997
40.9200 27.2494 0.1043
40.9400 27.2627 0.1101
40.9600 27.2760 0.0977
40.9800 27.2894 0.0997
41.0000 27.3027 0.1042
41.0200 27.3160 0.0984
41.0400 27.3293 0.1054
41.0600 27.3426 0.1050
41.0800 27.3560 0.0933
41.1000 27.3693 0.1068
41.1200 27.3826 0.1012
41.1400 27.3960 0.0968
41.1600 27.4094 0.1126
41.1800 27.4228 0.0979
41.2000 27.4361 0.0932
41.2200 27.4494 0.1072
41.2400 27.4627 0.1003
41.2600 27.4761 0.0952
41.2800 27.4894 0.1101
41.3000 27.5027 0.0972
41.3200 27.5160 0.0968
41.3400 27.5293 0.1078
41.3600 27.5427 0.0942
41.3800 27.5560 0.0985
41.4000 27.5693 0.1093
41.4200 27.5826 0.0953
41.4400 27.5960 0.0980
41.4600 27.6093 0.1052
41.4800 27.6226 0.0993
41.5000 27.6360 0.0986
41.5200 27.6494 0.1049
41.5400 27.6628 0.0964
41.5600 27.6761 0.0986
41.5800 27.6894 0.1047
41.6000 27.7027 0.0940
41.6200 27.7161 0.1055
41.6400 27.7294 0.0969
41.6600 27.7427 0.0980
41.6800 27.7560 0.1036
41.7000 27.7693 0.1045
41.7200 27.7827 0.0958
41.7400 27.7960 0.1008
41.7600 27.8093 0.1038
41.7800 27.8226 0.1008
41.8000 27.8360 0.1014
41.8200 27.8493 0.1004
41.8400 27.8627 0.1000
41.8600 27.8760 0.1029
41.8800 27.8894 0.0989
41.9000 27.9027 0.1022
41.9200 27.9161 0.1028
41.9400 27.9294 0.0990
41.9600 27.9427 0.1054
41.9800 27.9561 0.1009
42.0000 27.9694 0.0991
42.0200 27.9827 0.1098
42.0400 27.9960 0.0989
42.0600 28.0094 0.0999
42.0800 28.0227 0.1128
42.1000 28.0360 0.0914
42.1200 28.0493 0.1010
42.1400 28.0626 0.1101
42.1600 28.0760 0.0961
42.1800 28.0893 0.0996
42.2000 28.1027 0.1082
42.2200 28.1160 0.0934
42.2400 28.1294 0.1067
42.2600 28.1428 0.1048
42.2800 28.1561 0.0894
42.3000 28.1694 0.1041
42.3200 28.1827 0.1072
42.3400 28.1961 0.0891
42.3600 28.2094 0.1054
42.3800 28.2227 0.1065
42.4000 28.2360 0.0922
42.4200 28.2493 0.1101
42.4400 28.2627 0.1014
42.4600 28.2760 0.0889
42.4800 28.2893 0.1046
42.5000 28.3027 0.1069
42.5200 28.3160 0.0874
42.5400 28.3293 0.1071
42.5600 28.3426 0.1013
42.5800 28.3560 0.0917
42.6000 28.3693 0.1034
42.6200 28.3827 0.1011
42.6400 28.3961 0.0872
42.6600 28.4094 0.1046
42.6800 28.4227 0.0991
42.7000 28.4361 0.0923
42.7200 28.4494 0.1058
42.7400 28.4627 0.0989
42.7600 28.4760 0.0920
42.7800 28.4893 0.1060
42.8000 28.5027 0.0984
42.8200 28.5160 0.0920
42.8400 28.5293 0.1062
42.8600 28.5426 0.1001
42.8800 28.5560 0.0956
42.9000 28.5693 0.1019
42.9200 28.5827 0.1034
42.9400 28.5960 0.0891
42.9600 28.6094 0.1024
42.9800 28.6227 0.1050
43.0000 28.6360 0.0939
43.0200 28.6494 0.1012
43.0400 28.6627 0.1044
43.0600 28.6761 0.0891
43.0800 28.6894 0.1024
43.1000 28.7027 0.1033
43.1200 28.7160 0.0934
43.1400 28.7293 0.1018
43.1600 28.7427 0.1048
43.1800 28.7560 0.0886
43.2000 28.7693 0.1037
43.2200 28.7826 0.1033
43.2400 28.7959 0.0946
43.2600 28.8093 0.1002
43.2800 28.8226 0.1051
43.3000 28.8359 0.0934
43.3200 28.8493 0.1033
43.3400 28.8627 0.1076
43.3600 28.8761 0.0865
43.3800 28.8895 0.1028
43.4000 28.9028 0.1075
43.4200 28.9161 0.0949
43.4400 28.9295 0.1021
43.4600 28.9427 0.1044
43.4800 28.9560 0.0939
43.5000 28.9693 0.1012
43.5200 28.9826 0.1001
43.5400 28.9960 0.0988
43.5600 29.0093 0.0993
43.5800 29.0226 0.1049
43.6000 29.0360 0.0957
43.6200 29.0494 0.0960
43.6400 29.0627 0.1030
43.6600 29.0760 0.0991
43.6800 29.0894 0.0948
43.7000 29.1028 0.1028
43.7200 29.1161 0.0968
43.7400 29.1294 0.0956
43.7600 29.1427 0.1059
43.7800 29.1561 0.0989
43.8000 29.1694 0.0978
43.8200 29.1827 0.0977
43.8400 29.1960 0.0969
43.8600 29.2093 0.0986
43.8800 29.2227 0.1037
43.9000 29.2360 0.0933
43.9200 29.2493 0.0995
43.9400 29.2626 0.1020
43.9600 29.2760 0.0940
43.9800 29.2893 0.0947
44.0000 29.3027 0.1052
44.0200 29.3160 0.0973
44.0400 29.3294 0.0999
44.0600 29.3427 0.1006
44.0800 29.3561 0.0961
44.1000 29.3694 0.0998
44.1200 29.3827 0.1059
44.1400 29.3961 0.0957
44.1600 29.4094 0.0962
44.1800 29.4227 0.1046
44.2000 29.4360 0.0933
44.2200 29.4493 0.0976
44.2400 29.4627 0.1049
44.2600 29.4760 0.0967
44.2800 29.4893 0.0970
44.3000 29.5026 0.1052
44.3200 29.5160 0.0930
44.3400 29.5293 0.1007
44.3600 29.5426 0.1017
44.3800 29.5560 0.0909
44.4000 29.5693 0.1021
44.4200 29.5827 0.0991
44.4400 29.5961 0.0883
44.4600 29.6094 0.1009
44.4800 29.6227 0.0974
44.5000 29.6361 0.0906
44.5200 29.6494 0.0993
44.5400 29.6627 0.0984
44.5600 29.6760 0.0963
44.5800 29.6893 0.1016
44.6000 29.7027 0.0906
44.6200 29.7160 0.0967
44.6400 29.7293 0.1068
44.6600 29.7427 0.0890
44.6800 29.7560 0.1022
44.7000 29.7693 0.1020
44.7200 29.7827 0.0900
44.7400 29.7960 0.1017
44.7600 29.8093 0.1003
44.7800 29.8227 0.0954
44.8000 29.8361 0.1005
44.8200 29.8494 0.0945
44.8400 29.8627 0.1009
44.8600 29.8761 0.1032
44.8800 29.8894 0.0926
44.9000 29.9027 0.0997
44.9200 29.9160 0.1043
44.9400 29.9293 0.0929
44.9600 29.9427 0.1036
44.9800 29.9560 0.1011
45.0000 29.9693 0.0900
45.0200 29.9826 0.1048
45.0400 29.9960 0.0998
45.0600 30.0093 0.0929
45.0800 30.0227 0.1017
45.1000 30.0360 0.0995
45.1200 30.0494 0.0935
45.1400 30.0628 0.1019
45.1600 30.0761 0.0952
45.1800 30.0894 0.0948
45.2000 30.1027 0.1028
45.2200 30.1160 0.1014
45.2400 30.1294 0.0902
45.2600 30.1427 0.1016
45.2800 30.1560 0.0986
45.3000 30.1693 0.0988
45.3200 30.1826 0.0982
45.3400 30.1960 0.1002
45.3600 30.2093 0.0940
45.3800 30.2226 0.0962
45.4000 30.2360 0.1016
45.4200 30.2493 0.0943
45.4400 30.2626 0.0970
45.4600 30.2760 0.0975
45.4800 30.2893 0.0902
45.5000 30.3027 0.0991
45.5200 30.3161 0.1007
45.5400 30.3294 0.0914
45.5600 30.3427 0.0974
45.5800 30.3561 0.1021
45.6000 30.3694 0.0949
45.6200 30.3827 0.0962
45.6400 30.3960 0.1065
45.6600 30.4093 0.0916
45.6800 30.4226 0.1036
45.7000 30.4360 0.1019
45.7200 30.4493 0.0923
45.7400 30.4626 0.1005
45.7600 30.4760 0.1025
45.7800 30.4893 0.0907
45.8000 30.5027 0.1031
45.8200 30.5160 0.1003
45.8400 30.5294 0.0904
45.8600 30.5427 0.1014
45.8800 30.5561 0.1000
45.9000 30.5694 0.0899
45.9200 30.5827 0.0971
45.9400 30.5960 0.1026
45.9600 30.6094 0.0925
45.9800 30.6227 0.0996
46.0000 30.6361 0.1014
46.0200 30.6494 0.0941
46.0400 30.6627 0.0994
46.0600 30.6761 0.1038
46.0800 30.6894 0.0909
46.1000 30.7026 0.1015
46.1200 30.7160 0.0980
46.1400 30.7293 0.0969
46.1600 30.7427 0.0959
46.1800 30.7560 0.0958
46.2000 30.7693 0.0976
46.2200 30.7827 0.0983
46.2400 30.7960 0.0938
46.2600 30.8094 0.1000
46.2800 30.8227 0.0966
46.3000 30.8360 0.0963
46.3200 30.8494 0.1000
46.3400 30.8628 0.0944
46.3600 30.8760 0.0984
46.3800 30.8894 0.1022
46.4000 30.9027 0.0910
46.4200 30.9161 0.0945
46.4400 30.9294 0.1062
46.4600 30.9427 0.0902
46.4800 30.9560 0.1003
46.5000 30.9693 0.1059
46.5200 30.9826 0.0878
46.5400 30.9960 0.1023
46.5600 31.0093 0.1039
46.5800 31.0227 0.0881
46.6000 31.0361 0.1043
46.6200 31.0494 0.0971
46.6400 31.0627 0.0879
46.6600 31.0760 0.1034
46.6800 31.0894 0.0968
46.7000 31.1027 0.0865
46.7200 31.1160 0.1074
46.7400 31.1293 0.0973
46.7600 31.1427 0.0904
46.7800 31.1560 0.1067
46.8000 31.1694 0.0981
46.8200 31.1826 0.0876
46.8400 31.1960 0.1006
46.8600 31.2093 0.0970
46.8800 31.2227 0.0900
46.9000 31.2360 0.1048
46.9200 31.2493 0.0933
46.9400 31.2627 0.0895
46.9600 31.2760 0.1034
46.9800 31.2894 0.0951
47.0000 31.3027 0.0893
47.0200 31.3160 0.1019
47.0400 31.3294 0.0965
47.0600 31.3427 0.0871
47.0800 31.3561 0.0980
47.1000 31.3694 0.1030
47.1200 31.3827 0.0885
47.1400 31.3960 0.0989
47.1600 31.4093 0.0973
47.1800 31.4226 0.0903
47.2000 31.4359 0.0999
47.2200 31.4493 0.1032
47.2400 31.4626 0.0849
47.2600 31.4760 0.1009
47.2800 31.4893 0.1038
47.3000 31.5027 0.0823
47.3200 31.5161 0.1031
47.3400 31.5294 0.1022
47.3600 31.5427 0.0869
47.3800 31.5560 0.1018
47.4000 31.5694 0.1009
47.4200 31.5827 0.0857
47.4400 31.5960 0.1045
47.4600 31.6094 0.0991
47.4800 31.6227 0.0879
47.5000 31.6360 0.1050
47.5200 31.6493 0.0988
47.5400 31.6627 0.0891
47.5600 31.6760 0.1029
47.5800 31.6893 0.0972
47.6000 31.7027 0.0952
47.6200 31.7160 0.0985
47.6400 31.7293 0.1015
47.6600 31.7427 0.0920
47.6800 31.7561 0.0964
47.7000 31.7694 0.0976
47.7200 31.7827 0.0955
47.7400 31.7961 0.0966
47.7600 31.8094 0.0988
47.7800 31.8228 0.0931
47.8000 31.8361 0.0899
47.8200 31.8493 0.1044
47.8400 31.8627 0.0950
47.8600 31.8760 0.0941
47.8800 31.8893 0.1000
47.9000 31.9026 0.0919
47.9200 31.9160 0.0930
47.9400 31.9293 0.1084
47.9600 31.9427 0.0883
47.9800 31.9560 0.0948
48.0000 31.9693 0.1080
48.0200 31.9827 0.0879
48.0400 31.9960 0.0958
48.0600 32.0094 0.1043
48.0800 32.0227 0.0873
48.1000 32.0360 0.0990
48.1200 32.0494 0.1038
48.1400 32.0627 0.0837
48.1600 32.0761 0.1001
48.1800 32.0894 0.1047
48.2000 32.1027 0.0820
48.2200 32.1161 0.1006
48.2400 32.1294 0.1030
48.2600 32.1427 0.0800
48.2800 32.1559 0.1026
48.3000 32.1693 0.1030
48.3200 32.1826 0.0851
48.3400 32.1960 0.1013
48.3600 32.2093 0.0999
48.3800 32.2227 0.0892
48.4000 32.2361 0.1040
48.4200 32.2494 0.0973
48.4400 32.2627 0.0881
48.4600 32.2761 0.1044
48.4800 32.2894 0.1009
48.5000 32.3028 0.0859
48.5200 32.3161 0.1003
48.5400 32.3294 0.1038
48.5600 32.3427 0.0899
48.5800 32.3560 0.0993
48.6000 32.3693 0.0987
48.6200 32.3826 0.0924
48.6400 32.3959 0.1049
48.6600 32.4093 0.0994
48.6800 32.4226 0.0871
48.7000 32.4360 0.1020
48.7200 32.4493 0.0967
48.7400 32.4627 0.0939
48.7600 32.4761 0.0985
48.7800 32.4894 0.0938
48.8000 32.5028 0.0924
48.8200 32.5161 0.1045
48.8400 32.5294 0.0919
48.8600 32.5428 0.0938
48.8800 32.5561 0.0978
48.9000 32.5693 0.0947
48.9200 32.5827 0.0954
48.9400 32.5960 0.0978
48.9600 32.6094 0.0952
48.9800 32.6227 0.0939
49.0000 32.6360 0.0976
49.0200 32.6493 0.0988
49.0400 32.6627 0.0927
49.0600 32.6760 0.0929
49.0800 32.6893 0.0978
49.1000 32.7027 0.0960
49.1200 32.7160 0.0955
49.1400 32.7294 0.0962
49.1600 32.7427 0.0969
49.1800 32.7560 0.0933
49.2000 32.7694 0.0999
49.2200 32.7827 0.0909
49.2400 32.7960 0.0972
49.2600 32.8094 0.0994
49.2800 32.8227 0.0951
49.3000 32.8360 0.0919
49.3200 32.8494 0.1019
49.3400 32.8627 0.0934
49.3600 32.8759 0.0944
49.3800 32.8893 0.1001
49.4000 32.9026 0.0930
49.4200 32.9160 0.0908
49.4400 32.9293 0.0991
49.4600 32.9427 0.0960
49.4800 32.9561 0.0917
49.5000 32.9694 0.0954
49.5200 32.9827 0.0942
49.5400 32.9960 0.0957
49.5600 33.0094 0.0970
49.5800 33.0227 0.0976
49.6000 33.0360 0.0952
49.6200 33.0493 0.0987
49.6400 33.0626 0.0950
49.6600 33.0760 0.0933
49.6800 33.0893 0.0975
49.7000 33.1027 0.0981
49.7200 33.1160 0.0911
49.7400 33.1293 0.0997
49.7600 33.1427 0.0972
49.7800 33.1560 0.0941
49.8000 33.1693 0.0974
49.8200 33.1827 0.0958
49.8400 33.1960 0.0935
49.8600 33.2094 0.0958
49.8800 33.2227 0.0966
49.9000 33.2360 0.0948
49.9200 33.2494 0.1002
49.9400 33.2628 0.0985
49.9600 33.2761 0.0895
49.9800 33.2894 0.0967
50.0000 33.3027 0.0991
50.0200 33.3160 0.0891
50.0400 33.3294 0.1005
50.0600 33.3427 0.0970
50.0800 33.3560 0.0908
50.1000 33.3693 0.0923
50.1200 33.3826 0.0977
50.1400 33.3960 0.0904
50.1600 33.4093 0.0965
50.1800 33.4227 0.0969
50.2000 33.4360 0.0854
50.2200 33.4494 0.0947
50.2400 33.4627 0.1011
50.2600 33.4760 0.0894
50.2800 33.4894 0.0937
50.3000 33.5027 0.0964
50.3200 33.5161 0.0903
50.3400 33.5294 0.0954
50.3600 33.5427 0.0975
50.3800 33.5560 0.0934
50.4000 33.5694 0.0930
50.4200 33.5827 0.0974
50.4400 33.5960 0.0931
50.4600 33.6093 0.0956
50.4800 33.6226 0.0938
50.5000 33.6359 0.0954
50.5200 33.6493 0.0912
50.5400 33.6626 0.0975
50.5600 33.6760 0.0929
50.5800 33.6894 0.0946
50.6000 33.7028 0.0961
50.6200 33.7161 0.0923
50.6400 33.7294 0.0910
50.6600 33.7428 0.0970
50.6800 33.7561 0.0942
50.7000 33.7694 0.0947
50.7200 33.7826 0.0996
50.7400 33.7960 0.0912
50.7600 33.8093 0.0899
50.7800 33.8226 0.0994
50.8000 33.8360 0.0967
50.8200 33.8493 0.0915
50.8400 33.8627 0.0985
50.8600 33.8760 0.0901
50.8800 33.8894 0.0959
50.9000 33.9027 0.0984
50.9200 33.9161 0.0910
50.9400 33.9294 0.0937
50.9600 33.9427 0.0990
50.9800 33.9560 0.0914
51.0000 33.9693 0.0947
51.0200 33.9827 0.0957
51.0400 33.9960 0.0925
51.0600 34.0093 0.0967
51.0800 34.0227 0.1002
51.1000 34.0360 0.0958
51.1200 34.0493 0.0916
51.1400 34.0627 0.0952
51.1600 34.0760 0.0980
51.1800 34.0893 0.0891
51.2000 34.1027 0.1004
51.2200 34.1160 0.0975
51.2400 34.1294 0.0883
51.2600 34.1427 0.1020
51.2800 34.1561 0.0975
51.3000 34.1694 0.0858
51.3200 34.1827 0.0973
51.3400 34.1960 0.1023
51.3600 34.2094 0.0836
51.3800 34.2227 0.1006
51.4000 34.2361 0.0974
51.4200 34.2494 0.0863
51.4400 34.2627 0.1013
51.4600 34.2760 0.0986
51.4800 34.2894 0.0833
51.5000 34.3027 0.1037
51.5200 34.3160 0.0975
51.5400 34.3293 0.0837
51.5600 34.3426 0.1032
51.5800 34.3560 0.0956
51.6000 34.3693 0.0786
51.6200 34.3827 0.1081
51.6400 34.3960 0.0961
51.6600 34.4094 0.0811
51.6800 34.4228 0.1038
51.7000 34.4361 0.0943
51.7200 34.4494 0.0844
51.7400 34.4628 0.1035
51.7600 34.4761 0.0953
51.7800 34.4893 0.0841
51.8000 34.5026 0.1067
51.8200 34.5160 0.0938
51.8400 34.5294 0.0887
51.8600 34.5427 0.1054
51.8800 34.5560 0.0941
51.9000 34.5693 0.0922
51.9200 34.5826 0.1030
51.9400 34.5960 0.0875
51.9600 34.6093 0.0971
51.9800 34.6226 0.1011
52.0000 34.6360 0.0966
52.0200 34.6493 0.0901
52.0400 34.6627 0.1030
52.0600 34.6760 0.0949
52.0800 34.6894 0.0927
52.1000 34.7027 0.1018
52.1200 34.7161 0.0955
52.1400 34.7294 0.0943
52.1600 34.7427 0.0957
52.1800 34.7560 0.0977
52.2000 34.7693 0.0952
52.2200 34.7827 0.0988
52.2400 34.7960 0.0976
52.2600 34.8093 0.0933
52.2800 34.8226 0.0949
52.3000 34.8360 0.0936
52.3200 34.8493 0.0931
52.3400 34.8627 0.1034
52.3600 34.8760 0.0905
52.3800 34.8894 0.0952
52.4000 34.9028 0.0919
52.4200 34.9160 0.0948
52.4400 34.9294 0.0941
52.4600 34.9427 0.0960
52.4800 34.9561 0.0947
52.5000 34.9694 0.0921
52.5200 34.9827 0.0974
52.5400 34.9960 0.0968
52.5600 35.0094 0.0949
52.5800 35.0227 0.0934
52.6000 35.0360 0.0997
52.6200 35.0493 0.0905
52.6400 35.0626 0.0929
52.6600 35.0760 0.1008
52.6800 35.0893 0.0924
52.7000 35.1026 0.0947
52.7200 35.1160 0.1006
52.7400 35.1294 0.0879
52.7600 35.1427 0.0979
52.7800 35.1560 0.0958
52.8000 35.1694 0.0926
52.8200 35.1827 0.0982
52.8400 35.1961 0.0975
52.8600 35.2094 0.0900
52.8800 35.2226 0.0991
52.9000 35.2360 0.0940
52.9200 35.2493 0.0927
52.9400 35.2626 0.0962
52.9600 35.2760 0.0971
52.9800 35.2893 0.0930
53.0000 35.3027 0.0957
53.0200 35.3161 0.0958
53.0400 35.3294 0.0922
53.0600 35.3427 0.0933
53.0800 35.3560 0.0979
53.1000 35.3694 0.0918
53.1200 35.3827 0.0906
53.1400 35.3960 0.1042
53.1600 35.4094 0.0859
53.1800 35.4227 0.0965
53.2000 35.4361 0.1012
53.2200 35.4494 0.0868
53.2400 35.4627 0.0950
53.2600 35.4760 0.1039
53.2800 35.4894 0.0882
53.3000 35.5027 0.0942
53.3200 35.5160 0.0985
53.3400 35.5293 0.0872
53.3600 35.5426 0.0937
53.3800 35.5560 0.0991
53.4000 35.5693 0.0847
53.4200 35.5826 0.0978
53.4400 35.5960 0.0982
53.4600 35.6094 0.0854
53.4800 35.6227 0.0943
53.5000 35.6360 0.0949
53.5200 35.6494 0.0944
53.5400 35.6627 0.0951
53.5600 35.6761 0.0992
53.5800 35.6894 0.0886
53.6000 35.7027 0.0927
53.6200 35.7160 0.0982
53.6400 35.7294 0.0941
53.6600 35.7427 0.0900
53.6800 35.7560 0.0961
53.7000 35.7693 0.0951
53.7200 35.7826 0.0923
53.7400 35.7960 0.0950
53.7600 35.8093 0.0980
53.7800 35.8227 0.0843
53.8000 35.8360 0.0996
53.8200 35.8494 0.0937
53.8400 35.8627 0.0881
53.8600 35.8761 0.0999
53.8800 35.8894 0.0929
53.9000 35.9027 0.0892
53.9200 35.9161 0.1000
53.9400 35.9294 0.0955
53.9600 35.9427 0.0871
53.9800 35.9560 0.1020
54.0000 35.9693 0.0911
54.0200 35.9827 0.0893
54.0400 35.9960 0.1038
54.0600 36.0093 0.0907
54.0800 36.0226 0.0874
54.1000 36.0360 0.1058
54.1200 36.0494 0.0861
54.1400 36.0627 0.0932
54.1600 36.0760 0.1051
54.1800 36.0894 0.0916
54.2000 36.1027 0.0900
54.2200 36.1160 0.1006
54.2400 36.1294 0.0890
54.2600 36.1427 0.0993
54.2800 36.1561 0.0928
54.3000 36.1694 0.0922
54.3200 36.1827 0.1005
54.3400 36.1960 0.0917
54.3600 36.2094 0.0970
54.3800 36.2227 0.0974
54.4000 36.2360 0.0919
54.4200 36.2493 0.0991
54.4400 36.2626 0.0961
54.4600 36.2760 0.0888
54.4800 36.2893 0.0964
54.5000 36.3027 0.0899
54.5200 36.3160 0.0909
54.5400 36.3294 0.0961
54.5600 36.3428 0.0927
54.5800 36.3561 0.0889
54.6000 36.3694 0.1051
54.6200 36.3827 0.0866
54.6400 36.3961 0.0928
54.6600 36.4094 0.1065
54.6800 36.4227 0.0829
54.7000 36.4360 0.0932
54.7200 36.4493 0.1036
54.7400 36.4627 0.0817
54.7600 36.4760 0.0987
54.7800 36.4893 0.1047
54.8000 36.5026 0.0824
54.8200 36.5160 0.0984
54.8400 36.5293 0.0986
54.8600 36.5427 0.0835
54.8800 36.5560 0.0993
54.9000 36.5694 0.0964
54.9200 36.5827 0.0798
54.9400 36.5960 0.0993
54.9600 36.6094 0.0939
54.9800 36.6227 0.0912
55.0000 36.6361 0.0948
55.0200 36.6494 0.0926
55.0400 36.6627 0.0929
55.0600 36.6760 0.0931
55.0800 36.6893 0.0909
55.1000 36.7026 0.0958
55.1200 36.7160 0.0929
55.1400 36.7293 0.0985
55.1600 36.7426 0.0940
55.1800 36.7560 0.0912
55.2000 36.7693 0.1007
55.2200 36.7827 0.0939
55.2400 36.7960 0.0875
55.2600 36.8093 0.1057
55.2800 36.8227 0.0979
55.3000 36.8360 0.0828
55.3200 36.8493 0.1092
55.3400 36.8627 0.0901
55.3600 36.8760 0.0872
55.3800 36.8894 0.1034
55.4000 36.9027 0.0916
55.4200 36.9160 0.0890
55.4400 36.9294 0.1047
55.4600 36.9427 0.0891
55.4800 36.9560 0.0900
55.5000 36.9693 0.1055
55.5200 36.9826 0.0852
55.5400 36.9959 0.0940
55.5600 37.0093 0.1057
55.5800 37.0226 0.0892
55.6000 37.0360 0.0988
55.6200 37.0494 0.1032
55.6400 37.0628 0.0858
55.6600 37.0761 0.0956
55.6800 37.0894 0.1063
55.7000 37.1027 0.0899
55.7200 37.1161 0.0969
55.7400 37.1294 0.1056
55.7600 37.1427 0.0881
55.7800 37.1560 0.1001
55.8000 37.1693 0.1026
55.8200 37.1827 0.0900
55.8400 37.1960 0.0981
55.8600 37.2093 0.1010
55.8800 37.2226 0.0924
55.9000 37.2360 0.0992
55.9200 37.2493 0.0949
55.9400 37.2626 0.0965
55.9600 37.2760 0.0983
55.9800 37.2894 0.0934
56.0000 37.3027 0.0967
56.0200 37.3161 0.0985
56.0400 37.3294 0.0935
56.0600 37.3427 0.1041
56.0800 37.3561 0.0922
56.1000 37.3694 0.0924
56.1200 37.3827 0.1029
56.1400 37.3960 0.0916
56.1600 37.4093 0.0980
56.1800 37.4227 0.1027
56.2000 37.4360 0.0885
56.2200 37.4493 0.0950
56.2400 37.4626 0.0988
56.2600 37.4760 0.0870
56.2800 37.4893 0.1054
56.3000 37.5027 0.0955
56.3200 37.5160 0.0875
56.3400 37.5293 0.1011
56.3600 37.5427 0.0957
56.3800 37.5561 0.0859
56.4000 37.5694 0.1050
56.4200 37.5827 0.0917
56.4400 37.5961 0.0870
56.4600 37.6094 0.1024
56.4800 37.6227 0.0969
56.5000 37.6360 0.0895
56.5200 37.6493 0.1008
56.5400 37.6627 0.0977
56.5600 37.6760 0.0876
56.5800 37.6893 0.1003
56.6000 37.7026 0.1000
56.6200 37.7160 0.0922
56.6400 37.7293 0.0976
56.6600 37.7427 0.0992
56.6800 37.7560 0.0884
56.7000 37.7694 0.1007
56.7200 37.7827 0.0947
56.7400 37.7961 0.0908
56.7600 37.8094 0.0987
56.7800 37.8227 0.0972
56.8000 37.8361 0.0884
56.8200 37.8494 0.1021
56.8400 37.8627 0.0953
56.8600 37.8760 0.0929
56.8800 37.8893 0.1036
56.9000 37.9027 0.0991
56.9200 37.9160 0.0875
56.9400 37.9293 0.1035
56.9600 37.9426 0.0985
56.9800 37.9560 0.0894
57.0000 37.9693 0.1069
57.0200 37.9826 0.0946
57.0400 37.9960 0.0928
57.0600 38.0093 0.1030
57.0800 38.0227 0.0964
57.1000 38.0361 0.0925
57.1200 38.0494 0.1021
57.1400 38.0627 0.0945
57.1600 38.0761 0.0954
57.1800 38.0895 0.0993
57.2000 38.1028 0.0962
57.2200 38.1160 0.0922
57.2400 38.1293 0.1022
57.2600 38.1427 0.0943
57.2800 38.1560 0.0984
57.3000 38.1693 0.0973
57.3200 38.1826 0.1003
57.3400 38.1960 0.0964
57.3600 38.2093 0.0968
57.3800 38.2226 0.0980
57.4000 38.2360 0.0978
57.4200 38.2493 0.0963
57.4400 38.2627 0.0998
57.4600 38.2761 0.0961
57.4800 38.2894 0.0972
57.5000 38.3027 0.1012
57.5200 38.3161 0.0949
57.5400 38.3294 0.0960
57.5600 38.3427 0.0992
57.5800 38.3560 0.0963
57.6000 38.3694 0.0968
57.6200 38.3827 0.0995
57.6400 38.3960 0.0927
57.6600 38.4093 0.0990
57.6800 38.4226 0.0949
57.7000 38.4359 0.0945
57.7200 38.4493 0.0952
57.7400 38.4626 0.0987
57.7600 38.4759 0.0936
57.7800 38.4893 0.0957
57.8000 38.5027 0.0940
57.8200 38.5161 0.1013
57.8400 38.5294 0.0961
57.8600 38.5427 0.0918
57.8800 38.5561 0.0995
57.9000 38.5694 0.0926
57.9200 38.5827 0.0951
57.9400 38.5960 0.0979
57.9600 38.6093 0.0957
57.9800 38.6226 0.1011
58.0000 38.6360 0.0982
58.0200 38.6493 0.0935
58.0400 38.6626 0.1040
58.0600 38.6760 0.0954
58.0800 38.6894 0.0934
58.1000 38.7027 0.1005
58.1200 38.7160 0.0993
58.1400 38.7294 0.0954
58.1600 38.7428 0.1004
58.1800 38.7561 0.0941
58.2000 38.7694 0.0990
58.2200 38.7827 0.0977
58.2400 38.7960 0.1018
58.2600 38.8094 0.0940
58.2800 38.8227 0.0968
58.3000 38.8360 0.0996
58.3200 38.8493 0.0913
58.3400 38.8627 0.0988
58.3600 38.8760 0.1015
58.3800 38.8893 0.0928
58.4000 38.9026 0.0959
58.4200 38.9160 0.1024
58.4400 38.9293 0.0916
58.4600 38.9427 0.0957
58.4800 38.9560 0.1011
58.5000 38.9694 0.0950
58.5200 38.9828 0.1003
58.5400 38.9961 0.0992
58.5600 39.0094 0.0889
58.5800 39.0227 0.1055
58.6000 39.0360 0.0963
58.6200 39.0494 0.0923
58.6400 39.0627 0.1012
58.6600 39.0760 0.0954
58.6800 39.0893 0.0957
58.7000 39.1027 0.1009
58.7200 39.1160 0.0941
58.7400 39.1293 0.0942
58.7600 39.1426 0.1009
58.7800 39.1560 0.0963
58.8000 39.1693 0.0994
58.8200 39.1827 0.0963
58.8400 39.1960 0.0943
58.8600 39.2093 0.0991
58.8800 39.2227 0.0950
58.9000 39.2361 0.0961
58.9200 39.2494 0.0974
58.9400 39.2627 0.0959
58.9600 39.2761 0.1036
58.9800 39.2894 0.0951
59.0000 39.3027 0.0936
59.0200 39.3160 0.0996
59.0400 39.3293 0.1027
59.0600 39.3427 0.0938
59.0800 39.3560 0.1021
59.1000 39.3693 0.0961
59.1200 39.3826 0.1003
59.1400 39.3960 0.0990
59.1600 39.4093 0.0929
59.1800 39.4227 0.0983
59.2000 39.4360 0.1016
59.2200 39.4493 0.0956
59.2400 39.4627 0.0959
59.2600 39.4760 0.1031
59.2800 39.4894 0.0943
59.3000 39.5027 0.0950
59.3200 39.5161 0.1037
59.3400 39.5294 0.0966
59.3600 39.5428 0.0958
59.3800 39.5560 0.1035
59.4000 39.5693 0.0950
59.4200 39.5827 0.0986
59.4400 39.5960 0.1020
59.4600 39.6093 0.0926
59.4800 39.6226 0.0985
59.5000 39.6360 0.1049
59.5200 39.6493 0.0861
59.5400 39.6627 0.1005
59.5600 39.6760 0.1025
59.5800 39.6893 0.0912
59.6000 39.7027 0.0975
59.6200 39.7161 0.1008
59.6400 39.7294 0.0869
59.6600 39.7427 0.1028
59.6800 39.7560 0.1021
59.7000 39.7694 0.0906
59.7200 39.7827 0.0956
59.7400 39.7960 0.0990
59.7600 39.8093 0.0976
59.7800 39.8227 0.0953
59.8000 39.8360 0.1006
59.8200 39.8493 0.0909
59.8400 39.8626 0.0966
59.8600 39.8760 0.1013
59.8800 39.8893 0.0946
59.9000 39.9026 0.0919
59.9200 39.9160 0.1011
59.9400 39.9293 0.0909
59.9600 39.9427 0.0963
59.9800 39.9561 0.0984
60.0000 39.9694 0.0911
60.0200 39.9827 0.0914
60.0400 39.9960 0.0965
60.0470 40.0006 0.0773
