Raw Data
Time Displacement Force
(s) (mm) (N)
0.0000 0.0000 -0.0070
0.0200 0.0001 0.0105
0.0400 0.0022 0.0735
0.0600 0.0101 0.0673
0.0800 0.0220 -0.0143
0.1000 0.0345 -0.0030
0.1200 0.0472 0.0261
0.1400 0.0606 -0.0037
0.1600 0.0747 0.0050
0.1800 0.0888 0.0095
0.2000 0.1027 -0.0062
0.2200 0.1163 0.0017
0.2400 0.1296 0.0123
0.2600 0.1429 -0.0024
0.2800 0.1563 0.0084
0.3000 0.1697 0.0154
0.3200 0.1830 -0.0027
0.3400 0.1964 0.0097
0.3600 0.2097 0.0082
0.3800 0.2230 -0.0027
0.4000 0.2364 0.0196
0.4200 0.2497 0.0001
0.4400 0.2630 -0.0008
0.4600 0.2763 0.0121
0.4800 0.2897 0.0071
0.5000 0.3030 -0.0054
0.5200 0.3164 0.0124
0.5400 0.3297 0.0059
0.5600 0.3430 -0.0030
0.5800 0.3564 0.0127
0.6000 0.3697 0.0031
0.6200 0.3830 -0.0020
0.6400 0.3964 0.0162
0.6600 0.4098 -0.0031
0.6800 0.4231 0.0034
0.7000 0.4364 0.0132
0.7200 0.4497 -0.0030
0.7400 0.4631 0.0013
0.7600 0.4764 0.0095
0.7800 0.4897 0.0016
0.8000 0.5030 0.0002
0.8200 0.5164 0.0124
0.8400 0.5297 0.0045
0.8600 0.5431 -0.0002
0.8800 0.5564 0.0132
0.9000 0.5697 0.0053
0.9200 0.5830 -0.0016
0.9400 0.5963 0.0101
0.9600 0.6097 0.0015
0.9800 0.6230 0.0021
1.0000 0.6364 0.0102
1.0200 0.6497 0.0075
1.0400 0.6631 0.0037
1.0600 0.6764 0.0131
1.0800 0.6898 0.0044
1.1000 0.7031 0.0062
1.1200 0.7164 0.0079
1.1400 0.7297 0.0005
1.1600 0.7431 0.0092
1.1800 0.7564 0.0107
1.2000 0.7697 0.0040
1.2200 0.7831 0.0051
1.2400 0.7964 0.0115
1.2600 0.8097 0.0040
1.2800 0.8230 0.0093
1.3000 0.8364 0.0017
1.3200 0.8497 0.0075
1.3400 0.8630 0.0109
1.3600 0.8764 0.0021
1.3800 0.8897 0.0084
1.4000 0.9031 0.0133
1.4200 0.9164 -0.0023
1.4400 0.9297 0.0103
1.4600 0.9431 0.0141
1.4800 0.9564 -0.0005
1.5000 0.9698 0.0104
1.5200 0.9831 0.0065
1.5400 0.9964 0.0026
1.5600 1.0096 0.0146
1.5800 1.0229 0.0095
1.6000 1.0363 0.0026
1.6200 1.0496 0.0119
1.6400 1.0630 0.0047
1.6600 1.0764 0.0048
1.6800 1.0897 0.0086
1.7000 1.1031 0.0083
1.7200 1.1165 0.0050
1.7400 1.1298 0.0077
1.7600 1.1432 0.0081
1.7800 1.1565 0.0074
1.8000 1.1698 0.0074
1.8200 1.1831 0.0130
1.8400 1.1964 0.0057
1.8600 1.2098 0.0083
1.8800 1.2231 0.0093
1.9000 1.2364 0.0062
1.9200 1.2497 0.0090
1.9400 1.2631 0.0118
1.9600 1.2764 -0.0002
1.9800 1.2897 0.0152
2.0000 1.3030 0.0162
2.0200 1.3163 0.0049
2.0400 1.3297 0.0109
2.0600 1.3430 0.0175
2.0800 1.3563 0.0070
2.1000 1.3697 0.0121
2.1200 1.3831 0.0160
2.1400 1.3965 0.0031
2.1600 1.4098 0.0114
2.1800 1.4231 0.0138
2.2000 1.4365 0.0081
2.2200 1.4498 0.0067
2.2400 1.4630 0.0187
2.2600 1.4763 0.0062
2.2800 1.4897 0.0096
2.3000 1.5030 0.0155
2.3200 1.5163 0.0085
2.3400 1.5296 0.0119
2.3600 1.5430 0.0161
2.3800 1.5564 0.0039
2.4000 1.5698 0.0147
2.4200 1.5831 0.0142
2.4400 1.5964 0.0032
2.4600 1.6098 0.0139
2.4800 1.6231 0.0183
2.5000 1.6364 0.0044
2.5200 1.6497 0.0135
2.5400 1.6631 0.0213
2.5600 1.6764 0.0028
2.5800 1.6898 0.0149
2.6000 1.7031 0.0125
2.6200 1.7164 0.0026
2.6400 1.7298 0.0146
2.6600 1.7431 0.0140
2.6800 1.7564 0.0008
2.7000 1.7697 0.0174
2.7200 1.7830 0.0160
2.7400 1.7964 0.0047
2.7600 1.8097 0.0181
2.7800 1.8230 0.0199
2.8000 1.8363 0.0011
2.8200 1.8497 0.0159
2.8400 1.8631 0.0142
2.8600 1.8764 0.0063
2.8800 1.8897 0.0161
2.9000 1.9031 0.0124
2.9200 1.9164 0.0073
2.9400 1.9298 0.0146
2.9600 1.9431 0.0169
2.9800 1.9564 0.0048
3.0000 1.9697 0.0204
3.0200 1.9831 0.0089
3.0400 1.9964 0.0045
3.0600 2.0097 0.0147
3.0800 2.0230 0.0160
3.1000 2.0363 0.0031
3.1200 2.0497 0.0197
3.1400 2.0630 0.0114
3.1600 2.0764 0.0065
3.1800 2.0897 0.0187
3.2000 2.1031 0.0133
3.2200 2.1165 0.0057
3.2400 2.1298 0.0211
3.2600 2.1431 0.0109
3.2800 2.1564 0.0077
3.3000 2.1698 0.0196
3.3200 2.1831 0.0113
3.3400 2.1964 0.0081
3.3600 2.2097 0.0169
3.3800 2.2231 0.0157
3.4000 2.2364 0.0094
3.4200 2.2497 0.0169
3.4400 2.2630 0.0114
3.4600 2.2764 0.0083
3.4800 2.2897 0.0129
3.5000 2.3031 0.0160
3.5200 2.3164 0.0097
3.5400 2.3297 0.0145
3.5600 2.3431 0.0134
3.5800 2.3564 0.0158
3.6000 2.3698 0.0167
3.6200 2.3831 0.0144
3.6400 2.3965 0.0100
3.6600 2.4098 0.0159
3.6800 2.4231 0.0089
3.7000 2.4364 0.0118
3.7200 2.4497 0.0155
3.7400 2.4631 0.0109
3.7600 2.4764 0.0104
3.7800 2.4897 0.0187
3.8000 2.5030 0.0104
3.8200 2.5163 0.0151
3.8400 2.5297 0.0154
3.8600 2.5430 0.0052
3.8800 2.5563 0.0138
3.9000 2.5697 0.0115
3.9200 2.5831 0.0080
3.9400 2.5965 0.0108
3.9600 2.6098 0.0150
3.9800 2.6231 0.0108
4.0000 2.6364 0.0146
4.0200 2.6498 0.0134
4.0400 2.6631 0.0123
4.0600 2.6764 0.0124
4.0800 2.6897 0.0168
4.1000 2.7030 0.0087
4.1200 2.7164 0.0149
4.1400 2.7297 0.0137
4.1600 2.7430 0.0135
4.1800 2.7563 0.0132
4.2000 2.7697 0.0143
4.2200 2.7830 0.0157
4.2400 2.7963 0.0200
4.2600 2.8097 0.0154
4.2800 2.8231 0.0115
4.3000 2.8364 0.0127
4.3200 2.8498 0.0160
4.3400 2.8631 0.0142
4.3600 2.8764 0.0172
4.3800 2.8898 0.0230
4.4000 2.9031 0.0099
4.4200 2.9164 0.0162
4.4400 2.9297 0.0205
4.4600 2.9430 0.0125
4.4800 2.9564 0.0118
4.5000 2.9697 0.0248
4.5200 2.9830 0.0160
4.5400 2.9963 0.0093
4.5600 3.0097 0.0202
4.5800 3.0231 0.0170
4.6000 3.0364 0.0131
4.6200 3.0497 0.0231
4.6400 3.0631 0.0169
4.6600 3.0764 0.0117
4.6800 3.0897 0.0206
4.7000 3.1030 0.0162
4.7200 3.1164 0.0085
4.7400 3.1298 0.0177
4.7600 3.1431 0.0160
4.7800 3.1564 0.0140
4.8000 3.1698 0.0201
4.8200 3.1831 0.0166
4.8400 3.1965 0.0123
4.8600 3.2097 0.0125
4.8800 3.2230 0.0243
4.9000 3.2363 0.0106
4.9200 3.2497 0.0133
4.9400 3.2630 0.0182
4.9600 3.2763 0.0137
4.9800 3.2897 0.0181
5.0000 3.3031 0.0232
5.0200 3.3165 0.0165
5.0400 3.3298 0.0155
5.0600 3.3431 0.0173
5.0800 3.3565 0.0143
5.1000 3.3698 0.0181
5.1200 3.3831 0.0187
5.1400 3.3964 0.0084
5.1600 3.4097 0.0171
5.1800 3.4230 0.0188
5.2000 3.4364 0.0136
5.2200 3.4497 0.0242
5.2400 3.4630 0.0163
5.2600 3.4763 0.0157
5.2800 3.4897 0.0155
5.3000 3.5030 0.0122
5.3200 3.5164 0.0142
5.3400 3.5297 0.0219
5.3600 3.5431 0.0074
5.3800 3.5564 0.0168
5.4000 3.5698 0.0224
5.4200 3.5831 0.0163
5.4400 3.5964 0.0168
5.4600 3.6098 0.0196
5.4800 3.6231 0.0087
5.5000 3.6364 0.0171
5.5200 3.6497 0.0180
5.5400 3.6630 0.0127
5.5600 3.6764 0.0178
5.5800 3.6897 0.0148
5.6000 3.7030 0.0151
5.6200 3.7163 0.0211
5.6400 3.7297 0.0132
5.6600 3.7430 0.0141
5.6800 3.7564 0.0229
5.7000 3.7697 0.0087
5.7200 3.7831 0.0168
5.7400 3.7964 0.0254
5.7600 3.8098 0.0064
5.7800 3.8231 0.0118
5.8000 3.8364 0.0258
5.8200 3.8498 0.0079
5.8400 3.8631 0.0226
5.8600 3.8764 0.0250
5.8800 3.8898 0.0069
5.9000 3.9031 0.0198
5.9200 3.9164 0.0221
5.9400 3.9297 0.0049
5.9600 3.9430 0.0222
5.9800 3.9563 0.0168
6.0000 3.9697 0.0147
6.0200 3.9831 0.0235
6.0400 3.9964 0.0165
6.0600 4.0097 0.0138
6.0800 4.0231 0.0215
6.1000 4.0365 0.0121
6.1200 4.0498 0.0108
6.1400 4.0631 0.0241
6.1600 4.0764 0.0104
6.1800 4.0898 0.0157
6.2000 4.1031 0.0172
6.2200 4.1164 0.0111
6.2400 4.1297 0.0182
6.2600 4.1430 0.0171
6.2800 4.1564 0.0068
6.3000 4.1697 0.0202
6.3200 4.1830 0.0125
6.3400 4.1963 0.0135
6.3600 4.2097 0.0170
6.3800 4.2230 0.0119
6.4000 4.2363 0.0168
6.4200 4.2497 0.0183
6.4400 4.2631 0.0116
6.4600 4.2764 0.0174
6.4800 4.2898 0.0164
6.5000 4.3031 0.0143
6.5200 4.3164 0.0140
6.5400 4.3298 0.0172
6.5600 4.3431 0.0146
6.5800 4.3564 0.0181
6.6000 4.3697 0.0149
6.6200 4.3830 0.0176
6.6400 4.3964 0.0241
6.6600 4.4097 0.0068
6.6800 4.4230 0.0152
6.7000 4.4363 0.0184
6.7200 4.4497 0.0097
6.7400 4.4630 0.0099
6.7600 4.4763 0.0165
6.7800 4.4897 0.0089
6.8000 4.5031 0.0175
6.8200 4.5164 0.0216
6.8400 4.5298 0.0078
6.8600 4.5431 0.0132
6.8800 4.5564 0.0227
6.9000 4.5698 0.0077
6.9200 4.5831 0.0147
6.9400 4.5964 0.0224
6.9600 4.6097 0.0083
6.9800 4.6230 0.0145
7.0000 4.6364 0.0248
7.0200 4.6497 0.0106
7.0400 4.6630 0.0163
7.0600 4.6763 0.0252
7.0800 4.6896 0.0087
7.1000 4.7030 0.0185
7.1200 4.7163 0.0207
7.1400 4.7297 0.0145
7.1600 4.7431 0.0124
7.1800 4.7565 0.0228
7.2000 4.7698 0.0141
7.2200 4.7832 0.0181
7.2400 4.7965 0.0229
7.2600 4.8098 0.0124
7.2800 4.8231 0.0111
7.3000 4.8364 0.0238
7.3200 4.8497 0.0143
7.3400 4.8630 0.0166
7.3600 4.8764 0.0198
7.3800 4.8897 0.0128
7.4000 4.9030 0.0214
7.4200 4.9163 0.0189
7.4400 4.9297 0.0113
7.4600 4.9431 0.0140
7.4800 4.9564 0.0243
7.5000 4.9698 0.0076
7.5200 4.9831 0.0159
7.5400 4.9965 0.0263
7.5600 5.0098 0.0118
7.5800 5.0231 0.0143
7.6000 5.0364 0.0304
7.6200 5.0498 0.0144
7.6400 5.0631 0.0120
7.6600 5.0764 0.0247
7.6800 5.0897 0.0184
7.7000 5.1030 0.0152
7.7200 5.1164 0.0281
7.7400 5.1297 0.0127
7.7600 5.1430 0.0127
7.7800 5.1563 0.0305
7.8000 5.1697 0.0266
7.8200 5.1830 0.0090
7.8400 5.1964 0.0266
7.8600 5.2097 0.0224
7.8800 5.2231 0.0089
7.9000 5.2365 0.0245
7.9200 5.2498 0.0196
7.9400 5.2631 0.0148
7.9600 5.2764 0.0281
7.9800 5.2898 0.0178
8.0000 5.3031 0.0110
8.0200 5.3164 0.0299
8.0400 5.3297 0.0139
8.0600 5.3430 0.0145
8.0800 5.3564 0.0236
8.1000 5.3697 0.0151
8.1200 5.3830 0.0225
8.1400 5.3963 0.0235
8.1600 5.4097 0.0118
8.1800 5.4230 0.0225
8.2000 5.4364 0.0229
8.2200 5.4497 0.0077
8.2400 5.4630 0.0239
8.2600 5.4764 0.0255
8.2800 5.4898 0.0066
8.3000 5.5031 0.0221
8.3200 5.5164 0.0193
8.3400 5.5298 0.0154
8.3600 5.5431 0.0279
8.3800 5.5564 0.0156
8.4000 5.5697 0.0203
8.4200 5.5830 0.0208
8.4400 5.5964 0.0244
8.4600 5.6097 0.0164
8.4800 5.6230 0.0222
8.5000 5.6363 0.0246
8.5200 5.6497 0.0224
8.5400 5.6630 0.0188
8.5600 5.6764 0.0248
8.5800 5.6897 0.0273
8.6000 5.7030 0.0206
8.6200 5.7164 0.0235
8.6400 5.7298 0.0250
8.6600 5.7431 0.0212
8.6800 5.7564 0.0245
8.7000 5.7698 0.0205
8.7200 5.7831 0.0194
8.7400 5.7965 0.0230
8.7600 5.8098 0.0252
8.7800 5.8230 0.0227
8.8000 5.8364 0.0191
8.8200 5.8497 0.0223
8.8400 5.8630 0.0171
8.8600 5.8763 0.0222
8.8800 5.8897 0.0194
8.9000 5.9030 0.0183
8.9200 5.9164 0.0193
8.9400 5.9297 0.0212
8.9600 5.9431 0.0168
8.9800 5.9565 0.0240
9.0000 5.9698 0.0243
9.0200 5.9831 0.0153
9.0400 5.9964 0.0216
9.0600 6.0097 0.0249
9.0800 6.0231 0.0135
9.1000 6.0364 0.0239
9.1200 6.0497 0.0156
9.1400 6.0630 0.0168
9.1600 6.0764 0.0302
9.1800 6.0897 0.0204
9.2000 6.1030 0.0130
9.2200 6.1163 0.0271
9.2400 6.1297 0.0209
9.2600 6.1430 0.0120
9.2800 6.1564 0.0268
9.3000 6.1697 0.0197
9.3200 6.1830 0.0180
9.3400 6.1964 0.0217
9.3600 6.2098 0.0175
9.3800 6.2231 0.0206
9.4000 6.2364 0.0247
9.4200 6.2498 0.0203
9.4400 6.2631 0.0184
9.4600 6.2764 0.0173
9.4800 6.2897 0.0201
9.5000 6.3030 0.0240
9.5200 6.3163 0.0167
9.5400 6.3297 0.0157
9.5600 6.3430 0.0298
9.5800 6.3563 0.0141
9.6000 6.3697 0.0246
9.6200 6.3831 0.0260
9.6400 6.3964 0.0135
9.6600 6.4097 0.0231
9.6800 6.4231 0.0164
9.7000 6.4364 0.0147
9.7200 6.4498 0.0208
9.7400 6.4631 0.0221
9.7600 6.4764 0.0156
9.7800 6.4897 0.0191
9.8000 6.5031 0.0185
9.8200 6.5164 0.0201
9.8400 6.5297 0.0200
9.8600 6.5431 0.0202
9.8800 6.5564 0.0188
9.9000 6.5698 0.0167
9.9200 6.5831 0.0125
9.9400 6.5964 0.0224
9.9600 6.6097 0.0177
9.9800 6.6230 0.0156
10.0000 6.6364 0.0143
10.0200 6.6497 0.0174
10.0400 6.6630 0.0170
10.0600 6.6764 0.0218
10.0800 6.6897 0.0222
10.1000 6.7031 0.0091
10.1200 6.7164 0.0186
10.1400 6.7298 0.0188
10.1600 6.7431 0.0182
10.1800 6.7565 0.0166
10.2000 6.7698 0.0193
10.2200 6.7831 0.0159
10.2400 6.7964 0.0172
10.2600 6.8097 0.0177
10.2800 6.8231 0.0176
10.3000 6.8364 0.0184
10.3200 6.8497 0.0132
10.3400 6.8630 0.0207
10.3600 6.8764 0.0221
10.3800 6.8897 0.0109
10.4000 6.9030 0.0296
10.4200 6.9164 0.0125
10.4400 6.9298 0.0061
10.4600 6.9431 0.0243
10.4800 6.9564 0.0100
10.5000 6.9698 0.0078
10.5200 6.9831 0.0292
10.5400 6.9964 0.0109
10.5600 7.0097 0.0122
10.5800 7.0230 0.0296
10.6000 7.0364 0.0119
10.6200 7.0497 0.0170
10.6400 7.0630 0.0172
10.6600 7.0764 0.0120
10.6800 7.0897 0.0150
10.7000 7.1031 0.0199
10.7200 7.1164 0.0133
10.7400 7.1297 0.0243
10.7600 7.1430 0.0173
10.7800 7.1564 0.0146
10.8000 7.1697 0.0241
10.8200 7.1831 0.0144
10.8400 7.1964 0.0125
10.8600 7.2098 0.0255
10.8800 7.2231 0.0109
10.9000 7.2365 0.0140
10.9200 7.2498 0.0217
10.9400 7.2631 0.0208
10.9600 7.2764 0.0187
10.9800 7.2897 0.0244
11.0000 7.3030 0.0166
11.0200 7.3163 0.0185
11.0400 7.3296 0.0227
11.0600 7.3430 0.0202
11.0800 7.3563 0.0129
11.1000 7.3697 0.0209
11.1200 7.3831 0.0206
11.1400 7.3964 0.0094
11.1600 7.4098 0.0260
11.1800 7.4231 0.0228
11.2000 7.4364 0.0114
11.2200 7.4497 0.0223
11.2400 7.4631 0.0198
11.2600 7.4765 0.0156
11.2800 7.4898 0.0183
11.3000 7.5031 0.0143
11.3200 7.5164 0.0224
11.3400 7.5297 0.0227
11.3600 7.5431 0.0085
11.3800 7.5564 0.0225
11.4000 7.5697 0.0280
11.4200 7.5830 -0.0006
11.4400 7.5964 0.0219
11.4600 7.6097 0.0276
11.4800 7.6230 0.0014
11.5000 7.6364 0.0172
11.5200 7.6498 0.0212
11.5400 7.6631 0.0138
11.5600 7.6764 0.0164
11.5800 7.6897 0.0179
11.6000 7.7031 0.0173
11.6200 7.7165 0.0192
11.6400 7.7298 0.0071
11.6600 7.7430 0.0222
11.6800 7.7564 0.0164
11.7000 7.7697 0.0105
11.7200 7.7830 0.0270
11.7400 7.7963 0.0121
11.7600 7.8097 0.0088
11.7800 7.8230 0.0306
11.8000 7.8364 0.0050
11.8200 7.8497 0.0163
11.8400 7.8630 0.0266
11.8600 7.8764 0.0065
11.8800 7.8897 0.0151
11.9000 7.9031 0.0201
11.9200 7.9164 0.0119
11.9400 7.9297 0.0243
11.9600 7.9431 0.0157
11.9800 7.9564 0.0058
12.0000 7.9698 0.0296
12.0200 7.9831 0.0141
12.0400 7.9964 0.0128
12.0600 8.0098 0.0240
12.0800 8.0231 0.0131
12.1000 8.0364 0.0126
12.1200 8.0496 0.0287
12.1400 8.0630 0.0208
12.1600 8.0763 0.0132
12.1800 8.0897 0.0194
12.2000 8.1030 0.0177
12.2200 8.1164 0.0216
12.2400 8.1298 0.0248
12.2600 8.1431 0.0135
12.2800 8.1565 0.0205
12.3000 8.1698 0.0221
12.3200 8.1831 0.0188
12.3400 8.1965 0.0201
12.3600 8.2098 0.0166
12.3800 8.2230 0.0212
12.4000 8.2364 0.0178
12.4200 8.2497 0.0190
12.4400 8.2630 0.0226
12.4600 8.2763 0.0139
12.4800 8.2896 0.0173
12.5000 8.3030 0.0278
12.5200 8.3163 0.0123
12.5400 8.3297 0.0163
12.5600 8.3430 0.0249
12.5800 8.3564 0.0115
12.6000 8.3698 0.0184
12.6200 8.3832 0.0289
12.6400 8.3965 0.0061
12.6600 8.4098 0.0192
12.6800 8.4231 0.0292
12.7000 8.4365 0.0108
12.7200 8.4498 0.0206
12.7400 8.4630 0.0274
12.7600 8.4764 0.0096
12.7800 8.4897 0.0183
12.8000 8.5030 0.0194
12.8200 8.5163 0.0136
12.8400 8.5296 0.0241
12.8600 8.5430 0.0192
12.8800 8.5564 0.0193
12.9000 8.5697 0.0203
12.9200 8.5831 0.0132
12.9400 8.5964 0.0161
12.9600 8.6098 0.0277
12.9800 8.6231 0.0121
13.0000 8.6364 0.0128
13.0200 8.6498 0.0261
13.0400 8.6631 0.0234
13.0600 8.6765 0.0140
13.0800 8.6898 0.0235
13.1000 8.7031 0.0184
13.1200 8.7164 0.0161
13.1400 8.7298 0.0223
13.1600 8.7431 0.0194
13.1800 8.7564 0.0193
13.2000 8.7697 0.0214
13.2200 8.7830 0.0209
13.2400 8.7964 0.0229
13.2600 8.8097 0.0187
13.2800 8.8231 0.0228
13.3000 8.8364 0.0234
13.3200 8.8498 0.0186
13.3400 8.8631 0.0200
13.3600 8.8764 0.0201
13.3800 8.8898 0.0230
13.4000 8.9031 0.0223
13.4200 8.9164 0.0260
13.4400 8.9298 0.0239
13.4600 8.9430 0.0246
13.4800 8.9563 0.0221
13.5000 8.9697 0.0248
13.5200 8.9830 0.0224
13.5400 8.9964 0.0203
13.5600 9.0097 0.0214
13.5800 9.0230 0.0193
13.6000 9.0364 0.0231
13.6200 9.0497 0.0271
13.6400 9.0630 0.0223
13.6600 9.0763 0.0229
13.6800 9.0897 0.0230
13.7000 9.1031 0.0179
13.7200 9.1165 0.0214
13.7400 9.1298 0.0214
13.7600 9.1431 0.0170
13.7800 9.1565 0.0190
13.8000 9.1698 0.0227
13.8200 9.1831 0.0181
13.8400 9.1964 0.0209
13.8600 9.2097 0.0218
13.8800 9.2231 0.0143
13.9000 9.2364 0.0147
13.9200 9.2497 0.0250
13.9400 9.2630 0.0130
13.9600 9.2764 0.0148
13.9800 9.2897 0.0236
14.0000 9.3030 0.0169
14.0200 9.3164 0.0165
14.0400 9.3297 0.0219
14.0600 9.3431 0.0088
14.0800 9.3564 0.0147
14.1000 9.3697 0.0214
14.1200 9.3831 0.0116
14.1400 9.3964 0.0082
14.1600 9.4098 0.0206
14.1800 9.4231 0.0110
14.2000 9.4364 0.0180
14.2200 9.4497 0.0211
14.2400 9.4631 0.0074
14.2600 9.4764 0.0176
14.2800 9.4897 0.0153
14.3000 9.5030 0.0080
14.3200 9.5163 0.0176
14.3400 9.5297 0.0171
14.3600 9.5430 0.0044
14.3800 9.5564 0.0232
14.4000 9.5697 0.0101
14.4200 9.5831 0.0080
14.4400 9.5965 0.0216
14.4600 9.6098 0.0106
14.4800 9.6231 0.0066
14.5000 9.6365 0.0226
14.5200 9.6498 0.0044
14.5400 9.6630 0.0089
14.5600 9.6763 0.0224
14.5800 9.6897 0.0099
14.6000 9.7030 0.0143
14.6200 9.7163 0.0196
14.6400 9.7297 0.0076
14.6600 9.7430 0.0133
14.6800 9.7564 0.0180
14.7000 9.7697 0.0016
14.7200 9.7831 0.0174
14.7400 9.7964 0.0197
14.7600 9.8098 0.0033
14.7800 9.8231 0.0128
14.8000 9.8365 0.0226
14.8200 9.8498 0.0056
14.8400 9.8631 0.0136
14.8600 9.8764 0.0208
14.8800 9.8898 0.0018
14.9000 9.9030 0.0129
14.9200 9.9164 0.0298
14.9400 9.9297 0.0033
14.9600 9.9431 0.0095
14.9800 9.9564 0.0250
15.0000 9.9697 0.0117
15.0200 9.9830 0.0108
15.0400 9.9964 0.0277
15.0600 10.0097 0.0071
15.0800 10.0230 0.0090
15.1000 10.0364 0.0241
15.1200 10.0498 0.0067
15.1400 10.0631 0.0131
15.1600 10.0764 0.0221
15.1800 10.0898 0.0158
15.2000 10.1031 0.0126
15.2200 10.1164 0.0196
15.2400 10.1298 0.0134
15.2600 10.1431 0.0191
15.2800 10.1564 0.0169
15.3000 10.1697 0.0145
15.3200 10.1831 0.0172
15.3400 10.1964 0.0136
15.3600 10.2097 0.0140
15.3800 10.2230 0.0225
15.4000 10.2363 0.0236
15.4200 10.2497 0.0188
15.4400 10.2630 0.0122
15.4600 10.2764 0.0206
15.4800 10.2897 0.0154
15.5000 10.3031 0.0093
15.5200 10.3165 0.0232
15.5400 10.3298 0.0154
15.5600 10.3431 0.0110
15.5800 10.3565 0.0282
15.6000 10.3698 0.0204
15.6200 10.3831 0.0152
15.6400 10.3964 0.0280
15.6600 10.4097 0.0150
15.6800 10.4231 0.0148
15.7000 10.4364 0.0235
15.7200 10.4497 0.0181
15.7400 10.4630 0.0118
15.7600 10.4764 0.0269
15.7800 10.4897 0.0142
15.8000 10.5030 0.0141
15.8200 10.5163 0.0296
15.8400 10.5297 0.0151
15.8600 10.5431 0.0071
15.8800 10.5564 0.0266
15.9000 10.5697 0.0190
15.9200 10.5831 0.0074
15.9400 10.5964 0.0271
15.9600 10.6098 0.0145
15.9800 10.6231 0.0104
16.0000 10.6364 0.0321
16.0200 10.6497 0.0156
16.0400 10.6631 0.0099
16.0600 10.6764 0.0295
16.0800 10.6897 0.0157
16.1000 10.7030 0.0123
16.1200 10.7164 0.0211
16.1400 10.7297 0.0181
16.1600 10.7430 0.0145
16.1800 10.7564 0.0232
16.2000 10.7697 0.0193
16.2200 10.7831 0.0174
16.2400 10.7965 0.0238
16.2600 10.8098 0.0211
16.2800 10.8231 0.0183
16.3000 10.8364 0.0179
16.3200 10.8498 0.0178
16.3400 10.8631 0.0202
16.3600 10.8764 0.0228
16.3800 10.8897 0.0250
16.4000 10.9031 0.0183
16.4200 10.9164 0.0224
16.4400 10.9297 0.0252
16.4600 10.9430 0.0154
16.4800 10.9563 0.0264
16.5000 10.9697 0.0204
16.5200 10.9830 0.0108
16.5400 10.9964 0.0253
16.5600 11.0097 0.0303
16.5800 11.0231 0.0127
16.6000 11.0364 0.0305
16.6200 11.0498 0.0223
16.6400 11.0631 0.0147
16.6600 11.0765 0.0267
16.6800 11.0898 0.0155
16.7000 11.1031 0.0179
16.7200 11.1163 0.0271
16.7400 11.1297 0.0172
16.7600 11.1430 0.0263
16.7800 11.1564 0.0223
16.8000 11.1697 0.0217
16.8200 11.1830 0.0239
16.8400 11.1964 0.0213
16.8600 11.2097 0.0183
16.8800 11.2231 0.0224
16.9000 11.2364 0.0267
16.9200 11.2497 0.0170
16.9400 11.2631 0.0237
16.9600 11.2764 0.0251
16.9800 11.2897 0.0230
17.0000 11.3030 0.0197
17.0200 11.3164 0.0236
17.0400 11.3298 0.0198
17.0600 11.3431 0.0200
17.0800 11.3564 0.0228
17.1000 11.3697 0.0201
17.1200 11.3831 0.0168
17.1400 11.3964 0.0290
17.1600 11.4097 0.0226
17.1800 11.4230 0.0184
17.2000 11.4363 0.0274
17.2200 11.4497 0.0198
17.2400 11.4630 0.0151
17.2600 11.4763 0.0294
17.2800 11.4897 0.0224
17.3000 11.5031 0.0156
17.3200 11.5164 0.0264
17.3400 11.5297 0.0208
17.3600 11.5431 0.0189
17.3800 11.5564 0.0290
17.4000 11.5698 0.0227
17.4200 11.5831 0.0127
17.4400 11.5964 0.0269
17.4600 11.6097 0.0283
17.4800 11.6231 0.0206
17.5000 11.6364 0.0184
17.5200 11.6497 0.0261
17.5400 11.6630 0.0180
17.5600 11.6763 0.0270
17.5800 11.6897 0.0235
17.6000 11.7030 0.0174
17.6200 11.7163 0.0225
17.6400 11.7297 0.0239
17.6600 11.7431 0.0156
17.6800 11.7564 0.0156
17.7000 11.7698 0.0289
17.7200 11.7831 0.0166
17.7400 11.7964 0.0208
17.7600 11.8098 0.0293
17.7800 11.8231 0.0212
17.8000 11.8364 0.0189
17.8200 11.8497 0.0267
17.8400 11.8630 0.0182
17.8600 11.8764 0.0227
17.8800 11.8897 0.0228
17.9000 11.9030 0.0180
17.9200 11.9164 0.0252
17.9400 11.9297 0.0284
17.9600 11.9431 0.0195
17.9800 11.9564 0.0280
18.0000 11.9697 0.0230
18.0200 11.9831 0.0234
18.0400 11.9964 0.0213
18.0600 12.0097 0.0229
18.0800 12.0231 0.0237
18.1000 12.0364 0.0221
18.1200 12.0498 0.0229
18.1400 12.0631 0.0279
18.1600 12.0764 0.0240
18.1800 12.0897 0.0242
18.2000 12.1031 0.0246
18.2200 12.1164 0.0229
18.2400 12.1297 0.0250
18.2600 12.1430 0.0272
18.2800 12.1563 0.0217
18.3000 12.1697 0.0228
18.3200 12.1830 0.0291
18.3400 12.1964 0.0266
18.3600 12.2097 0.0277
18.3800 12.2231 0.0249
18.4000 12.2365 0.0221
18.4200 12.2498 0.0262
18.4400 12.2631 0.0251
18.4600 12.2764 0.0211
18.4800 12.2898 0.0268
18.5000 12.3031 0.0211
18.5200 12.3164 0.0239
18.5400 12.3297 0.0314
18.5600 12.3430 0.0263
18.5800 12.3564 0.0213
18.6000 12.3697 0.0238
18.6200 12.3831 0.0310
18.6400 12.3964 0.0223
18.6600 12.4097 0.0229
18.6800 12.4230 0.0276
18.7000 12.4363 0.0277
18.7200 12.4497 0.0243
18.7400 12.4631 0.0275
18.7600 12.4765 0.0231
18.7800 12.4898 0.0209
18.8000 12.5031 0.0269
18.8200 12.5164 0.0185
18.8400 12.5298 0.0234
18.8600 12.5431 0.0329
18.8800 12.5564 0.0105
18.9000 12.5697 0.0250
18.9200 12.5830 0.0353
18.9400 12.5964 0.0173
18.9600 12.6097 0.0234
18.9800 12.6230 0.0318
19.0000 12.6363 0.0176
19.0200 12.6497 0.0242
19.0400 12.6630 0.0269
19.0600 12.6764 0.0143
19.0800 12.6897 0.0292
19.1000 12.7030 0.0267
19.1200 12.7164 0.0165
19.1400 12.7297 0.0311
19.1600 12.7430 0.0229
19.1800 12.7564 0.0197
19.2000 12.7697 0.0318
19.2200 12.7831 0.0198
19.2400 12.7964 0.0248
19.2600 12.8097 0.0270
19.2800 12.8231 0.0245
19.3000 12.8364 0.0248
19.3200 12.8497 0.0285
19.3400 12.8630 0.0218
19.3600 12.8763 0.0241
19.3800 12.8897 0.0225
19.4000 12.9030 0.0248
19.4200 12.9163 0.0234
19.4400 12.9297 0.0180
19.4600 12.9431 0.0261
19.4800 12.9565 0.0255
19.5000 12.9698 0.0168
19.5200 12.9831 0.0258
19.5400 12.9965 0.0269
19.5600 13.0098 0.0109
19.5800 13.0231 0.0255
19.6000 13.0364 0.0233
19.6200 13.0497 0.0093
19.6400 13.0630 0.0287
19.6600 13.0764 0.0194
19.6800 13.0897 0.0084
19.7000 13.1030 0.0352
19.7200 13.1163 0.0141
19.7400 13.1297 0.0097
19.7600 13.1430 0.0316
19.7800 13.1563 0.0107
19.8000 13.1697 0.0053
19.8200 13.1831 0.0344
19.8400 13.1964 0.0093
19.8600 13.2098 0.0093
19.8800 13.2231 0.0347
19.9000 13.2364 0.0051
19.9200 13.2498 0.0140
19.9400 13.2631 0.0298
19.9600 13.2764 0.0066
19.9800 13.2897 0.0120
20.0000 13.3030 0.0286
20.0200 13.3164 0.0068
20.0400 13.3297 0.0213
20.0600 13.3430 0.0267
20.0800 13.3563 0.0109
20.1000 13.3697 0.0198
20.1200 13.3831 0.0247
20.1400 13.3964 0.0092
20.1600 13.4097 0.0262
20.1800 13.4231 0.0216
20.2000 13.4364 0.0139
20.2200 13.4498 0.0210
20.2400 13.4631 0.0254
20.2600 13.4764 0.0178
20.2800 13.4898 0.0250
20.3000 13.5031 0.0302
20.3200 13.5164 0.0220
20.3400 13.5297 0.0239
20.3600 13.5431 0.0281
20.3800 13.5564 0.0275
20.4000 13.5697 0.0242
20.4200 13.5830 0.0247
20.4400 13.5963 0.0246
20.4600 13.6097 0.0290
20.4800 13.6230 0.0315
20.5000 13.6364 0.0254
20.5200 13.6497 0.0247
20.5400 13.6631 0.0315
20.5600 13.6765 0.0201
20.5800 13.6898 0.0280
20.6000 13.7031 0.0291
20.6200 13.7164 0.0270
20.6400 13.7298 0.0264
20.6600 13.7431 0.0324
20.6800 13.7564 0.0274
20.7000 13.7697 0.0297
20.7200 13.7830 0.0285
20.7400 13.7964 0.0297
20.7600 13.8097 0.0270
20.7800 13.8230 0.0315
20.8000 13.8363 0.0269
20.8200 13.8497 0.0243
20.8400 13.8630 0.0318
20.8600 13.8764 0.0264
20.8800 13.8897 0.0284
20.9000 13.9031 0.0297
20.9200 13.9164 0.0271
20.9400 13.9298 0.0281
20.9600 13.9431 0.0334
20.9800 13.9564 0.0245
21.0000 13.9698 0.0272
21.0200 13.9832 0.0319
21.0400 13.9964 0.0258
21.0600 14.0097 0.0225
21.0800 14.0230 0.0385
21.1000 14.0364 0.0241
21.1200 14.0497 0.0280
21.1400 14.0630 0.0352
21.1600 14.0763 0.0237
21.1800 14.0897 0.0307
21.2000 14.1030 0.0353
21.2200 14.1163 0.0220
21.2400 14.1297 0.0298
21.2600 14.1430 0.0364
21.2800 14.1564 0.0261
21.3000 14.1698 0.0289
21.3200 14.1831 0.0328
21.3400 14.1964 0.0321
21.3600 14.2098 0.0341
21.3800 14.2231 0.0319
21.4000 14.2364 0.0321
21.4200 14.2497 0.0378
21.4400 14.2631 0.0339
21.4600 14.2764 0.0329
21.4800 14.2897 0.0348
21.5000 14.3030 0.0407
21.5200 14.3163 0.0319
21.5400 14.3296 0.0337
21.5600 14.3430 0.0379
21.5800 14.3563 0.0372
21.6000 14.3697 0.0360
21.6200 14.3830 0.0406
21.6400 14.3964 0.0344
21.6600 14.4098 0.0328
21.6800 14.4231 0.0400
21.7000 14.4365 0.0381
21.7200 14.4498 0.0319
21.7400 14.4631 0.0389
21.7600 14.4764 0.0364
21.7800 14.4897 0.0308
21.8000 14.5030 0.0488
21.8200 14.5163 0.0363
21.8400 14.5297 0.0294
21.8600 14.5430 0.0407
21.8800 14.5563 0.0425
21.9000 14.5697 0.0332
21.9200 14.5830 0.0382
21.9400 14.5964 0.0360
21.9600 14.6097 0.0385
21.9800 14.6231 0.0355
22.0000 14.6364 0.0371
22.0200 14.6498 0.0392
22.0400 14.6631 0.0361
22.0600 14.6764 0.0307
22.0800 14.6897 0.0406
22.1000 14.7031 0.0325
22.1200 14.7164 0.0331
22.1400 14.7297 0.0402
22.1600 14.7430 0.0331
22.1800 14.7564 0.0365
22.2000 14.7697 0.0382
22.2200 14.7830 0.0339
22.2400 14.7963 0.0451
22.2600 14.8097 0.0394
22.2800 14.8231 0.0313
22.3000 14.8364 0.0424
22.3200 14.8497 0.0399
22.3400 14.8631 0.0364
22.3600 14.8764 0.0426
22.3800 14.8898 0.0363
22.4000 14.9031 0.0346
22.4200 14.9164 0.0471
22.4400 14.9298 0.0358
22.4600 14.9431 0.0388
22.4800 14.9565 0.0436
22.5000 14.9697 0.0364
22.5200 14.9830 0.0394
22.5400 14.9964 0.0420
22.5600 15.0097 0.0397
22.5800 15.0230 0.0366
22.6000 15.0363 0.0421
22.6200 15.0497 0.0374
22.6400 15.0630 0.0415
22.6600 15.0764 0.0378
22.6800 15.0897 0.0385
22.7000 15.1030 0.0417
22.7200 15.1164 0.0396
22.7400 15.1298 0.0384
22.7600 15.1431 0.0381
22.7800 15.1564 0.0401
22.8000 15.1698 0.0461
22.8200 15.1831 0.0310
22.8400 15.1964 0.0359
22.8600 15.2097 0.0441
22.8800 15.2230 0.0365
22.9000 15.2364 0.0406
22.9200 15.2497 0.0433
22.9400 15.2630 0.0380
22.9600 15.2764 0.0364
22.9800 15.2897 0.0442
23.0000 15.3030 0.0369
23.0200 15.3164 0.0344
23.0400 15.3297 0.0468
23.0600 15.3430 0.0299
23.0800 15.3564 0.0411
23.1000 15.3698 0.0453
23.1200 15.3831 0.0227
23.1400 15.3964 0.0484
23.1600 15.4098 0.0483
23.1800 15.4231 0.0254
23.2000 15.4365 0.0410
23.2200 15.4498 0.0445
23.2400 15.4631 0.0232
23.2600 15.4764 0.0474
23.2800 15.4897 0.0387
23.3000 15.5030 0.0296
23.3200 15.5163 0.0508
23.3400 15.5296 0.0329
23.3600 15.5430 0.0283
23.3800 15.5564 0.0521
23.4000 15.5697 0.0335
23.4200 15.5831 0.0298
23.4400 15.5964 0.0411
23.4600 15.6098 0.0348
23.4800 15.6231 0.0319
23.5000 15.6364 0.0405
23.5200 15.6498 0.0384
23.5400 15.6631 0.0289
23.5600 15.6765 0.0362
23.5800 15.6897 0.0340
23.6000 15.7030 0.0361
23.6200 15.7164 0.0404
23.6400 15.7297 0.0357
23.6600 15.7430 0.0312
23.6800 15.7563 0.0456
23.7000 15.7697 0.0379
23.7200 15.7830 0.0323
23.7400 15.7963 0.0441
23.7600 15.8097 0.0379
23.7800 15.8230 0.0295
23.8000 15.8364 0.0437
23.8200 15.8498 0.0372
23.8400 15.8631 0.0343
23.8600 15.8764 0.0471
23.8800 15.8898 0.0390
23.9000 15.9031 0.0292
23.9200 15.9164 0.0412
23.9400 15.9297 0.0404
23.9600 15.9430 0.0308
23.9800 15.9563 0.0475
24.0000 15.9697 0.0348
24.0200 15.9830 0.0336
24.0400 15.9963 0.0448
24.0600 16.0097 0.0409
24.0800 16.0230 0.0321
24.1000 16.0364 0.0457
24.1200 16.0497 0.0380
24.1400 16.0631 0.0297
24.1600 16.0764 0.0442
24.1800 16.0898 0.0420
24.2000 16.1031 0.0288
24.2200 16.1164 0.0481
24.2400 16.1297 0.0363
24.2600 16.1431 0.0339
24.2800 16.1564 0.0483
24.3000 16.1698 0.0370
24.3200 16.1831 0.0378
24.3400 16.1964 0.0443
24.3600 16.2098 0.0333
24.3800 16.2231 0.0304
24.4000 16.2364 0.0477
24.4200 16.2497 0.0377
24.4400 16.2630 0.0327
24.4600 16.2764 0.0465
24.4800 16.2897 0.0358
24.5000 16.3030 0.0373
24.5200 16.3164 0.0502
24.5400 16.3298 0.0309
24.5600 16.3431 0.0402
24.5800 16.3564 0.0481
24.6000 16.3697 0.0383
24.6200 16.3831 0.0408
24.6400 16.3965 0.0496
24.6600 16.4098 0.0360
24.6800 16.4231 0.0447
24.7000 16.4364 0.0494
24.7200 16.4498 0.0352
24.7400 16.4631 0.0465
24.7600 16.4764 0.0477
24.7800 16.4897 0.0376
24.8000 16.5030 0.0465
24.8200 16.5164 0.0488
24.8400 16.5297 0.0440
24.8600 16.5430 0.0482
24.8800 16.5564 0.0438
24.9000 16.5698 0.0453
24.9200 16.5831 0.0474
24.9400 16.5964 0.0471
24.9600 16.6098 0.0472
24.9800 16.6231 0.0508
25.0000 16.6365 0.0371
25.0200 16.6498 0.0547
25.0400 16.6630 0.0491
25.0600 16.6764 0.0432
25.0800 16.6897 0.0530
25.1000 16.7030 0.0471
25.1200 16.7163 0.0452
25.1400 16.7297 0.0565
25.1600 16.7430 0.0463
25.1800 16.7564 0.0434
25.2000 16.7697 0.0563
25.2200 16.7830 0.0472
25.2400 16.7964 0.0416
25.2600 16.8097 0.0597
25.2800 16.8231 0.0448
25.3000 16.8364 0.0409
25.3200 16.8498 0.0621
25.3400 16.8631 0.0420
25.3600 16.8765 0.0437
25.3800 16.8898 0.0586
25.4000 16.9031 0.0427
25.4200 16.9164 0.0459
25.4400 16.9297 0.0585
25.4600 16.9430 0.0394
25.4800 16.9563 0.0478
25.5000 16.9696 0.0591
25.5200 16.9830 0.0431
25.5400 16.9963 0.0428
25.5600 17.0097 0.0570
25.5800 17.0230 0.0481
25.6000 17.0364 0.0458
25.6200 17.0498 0.0488
25.6400 17.0631 0.0457
25.6600 17.0764 0.0450
25.6800 17.0897 0.0504
25.7000 17.1031 0.0494
25.7200 17.1165 0.0444
25.7400 17.1298 0.0482
25.7600 17.1431 0.0437
25.7800 17.1564 0.0440
25.8000 17.1697 0.0495
25.8200 17.1831 0.0481
25.8400 17.1964 0.0398
25.8600 17.2097 0.0448
25.8800 17.2230 0.0456
25.9000 17.2363 0.0391
25.9200 17.2497 0.0458
25.9400 17.2630 0.0503
25.9600 17.2764 0.0357
25.9800 17.2898 0.0456
26.0000 17.3032 0.0452
26.0200 17.3165 0.0406
26.0400 17.3298 0.0467
26.0600 17.3431 0.0429
26.0800 17.3565 0.0353
26.1000 17.3698 0.0428
26.1200 17.3830 0.0503
26.1400 17.3964 0.0392
26.1600 17.4097 0.0430
26.1800 17.4230 0.0487
26.2000 17.4363 0.0379
26.2200 17.4497 0.0418
26.2400 17.4630 0.0493
26.2600 17.4764 0.0395
26.2800 17.4897 0.0430
26.3000 17.5031 0.0432
26.3200 17.5164 0.0379
26.3400 17.5297 0.0423
26.3600 17.5431 0.0495
26.3800 17.5564 0.0332
26.4000 17.5697 0.0449
26.4200 17.5831 0.0479
26.4400 17.5964 0.0358
26.4600 17.6098 0.0406
26.4800 17.6231 0.0542
26.5000 17.6364 0.0364
26.5200 17.6498 0.0438
26.5400 17.6631 0.0527
26.5600 17.6764 0.0361
26.5800 17.6897 0.0456
26.6000 17.7030 0.0521
26.6200 17.7163 0.0382
26.6400 17.7297 0.0495
26.6600 17.7430 0.0538
26.6800 17.7564 0.0356
26.7000 17.7698 0.0461
26.7200 17.7831 0.0519
26.7400 17.7965 0.0404
26.7600 17.8098 0.0462
26.7800 17.8231 0.0556
26.8000 17.8365 0.0400
26.8200 17.8498 0.0486
26.8400 17.8631 0.0491
26.8600 17.8764 0.0431
26.8800 17.8897 0.0487
26.9000 17.9030 0.0492
26.9200 17.9163 0.0410
26.9400 17.9296 0.0496
26.9600 17.9430 0.0502
26.9800 17.9563 0.0392
27.0000 17.9697 0.0483
27.0200 17.9830 0.0542
27.0400 17.9964 0.0412
27.0600 18.0098 0.0495
27.0800 18.0231 0.0492
27.1000 18.0365 0.0452
27.1200 18.0498 0.0487
27.1400 18.0631 0.0472
27.1600 18.0765 0.0477
27.1800 18.0898 0.0419
27.2000 18.1031 0.0542
27.2200 18.1164 0.0497
27.2400 18.1297 0.0463
27.2600 18.1431 0.0512
27.2800 18.1564 0.0498
27.3000 18.1697 0.0429
27.3200 18.1830 0.0536
27.3400 18.1964 0.0442
27.3600 18.2097 0.0398
27.3800 18.2231 0.0582
27.4000 18.2364 0.0429
27.4200 18.2497 0.0410
27.4400 18.2631 0.0569
27.4600 18.2764 0.0418
27.4800 18.2897 0.0438
27.5000 18.3031 0.0560
27.5200 18.3165 0.0405
27.5400 18.3298 0.0433
27.5600 18.3431 0.0534
27.5800 18.3564 0.0428
27.6000 18.3697 0.0427
27.6200 18.3831 0.0570
27.6400 18.3964 0.0378
27.6600 18.4097 0.0443
27.6800 18.4230 0.0541
27.7000 18.4364 0.0392
27.7200 18.4497 0.0443
27.7400 18.4631 0.0547
27.7600 18.4764 0.0390
27.7800 18.4898 0.0468
27.8000 18.5031 0.0534
27.8200 18.5164 0.0405
27.8400 18.5298 0.0481
27.8600 18.5431 0.0570
27.8800 18.5564 0.0404
27.9000 18.5698 0.0542
27.9200 18.5830 0.0523
27.9400 18.5963 0.0441
27.9600 18.6097 0.0519
27.9800 18.6231 0.0551
28.0000 18.6364 0.0493
28.0200 18.6497 0.0485
28.0400 18.6630 0.0600
28.0600 18.6764 0.0472
28.0800 18.6897 0.0477
28.1000 18.7030 0.0567
28.1200 18.7164 0.0499
28.1400 18.7297 0.0424
28.1600 18.7431 0.0512
28.1800 18.7564 0.0490
28.2000 18.7698 0.0523
28.2200 18.7831 0.0517
28.2400 18.7965 0.0462
28.2600 18.8098 0.0428
28.2800 18.8231 0.0550
28.3000 18.8364 0.0460
28.3200 18.8497 0.0440
28.3400 18.8631 0.0530
28.3600 18.8764 0.0475
28.3800 18.8897 0.0451
28.4000 18.9030 0.0551
28.4200 18.9163 0.0496
28.4400 18.9297 0.0437
28.4600 18.9430 0.0536
28.4800 18.9564 0.0461
28.5000 18.9697 0.0506
28.5200 18.9831 0.0572
28.5400 18.9964 0.0468
28.5600 19.0097 0.0452
28.5800 19.0231 0.0586
28.6000 19.0364 0.0521
28.6200 19.0498 0.0467
28.6400 19.0631 0.0583
28.6600 19.0764 0.0556
28.6800 19.0897 0.0497
28.7000 19.1031 0.0625
28.7200 19.1164 0.0523
28.7400 19.1297 0.0530
28.7600 19.1430 0.0589
28.7800 19.1563 0.0562
28.8000 19.1697 0.0523
28.8200 19.1830 0.0615
28.8400 19.1964 0.0596
28.8600 19.2097 0.0504
28.8800 19.2231 0.0624
28.9000 19.2365 0.0595
28.9200 19.2498 0.0561
28.9400 19.2631 0.0629
28.9600 19.2765 0.0610
28.9800 19.2898 0.0538
29.0000 19.3031 0.0592
29.0200 19.3164 0.0608
29.0400 19.3297 0.0589
29.0600 19.3430 0.0612
29.0800 19.3564 0.0590
29.1000 19.3697 0.0566
29.1200 19.3830 0.0629
29.1400 19.3964 0.0605
29.1600 19.4097 0.0572
29.1800 19.4231 0.0585
29.2000 19.4364 0.0630
29.2200 19.4497 0.0563
29.2400 19.4631 0.0553
29.2600 19.4765 0.0619
29.2800 19.4897 0.0600
29.3000 19.5031 0.0549
29.3200 19.5164 0.0631
29.3400 19.5297 0.0584
29.3600 19.5431 0.0501
29.3800 19.5564 0.0679
29.4000 19.5697 0.0610
29.4200 19.5830 0.0534
29.4400 19.5964 0.0642
29.4600 19.6097 0.0556
29.4800 19.6230 0.0506
29.5000 19.6363 0.0651
29.5200 19.6497 0.0539
29.5400 19.6630 0.0570
29.5600 19.6764 0.0646
29.5800 19.6897 0.0558
29.6000 19.7031 0.0538
29.6200 19.7164 0.0701
29.6400 19.7297 0.0538
29.6600 19.7431 0.0609
29.6800 19.7564 0.0661
29.7000 19.7698 0.0582
29.7200 19.7831 0.0627
29.7400 19.7964 0.0629
29.7600 19.8097 0.0582
29.7800 19.8231 0.0628
29.8000 19.8364 0.0619
29.8200 19.8497 0.0632
29.8400 19.8630 0.0654
29.8600 19.8763 0.0598
29.8800 19.8897 0.0690
29.9000 19.9030 0.0645
29.9200 19.9164 0.0625
29.9400 19.9297 0.0678
29.9600 19.9431 0.0582
29.9800 19.9565 0.0603
30.0000 19.9698 0.0705
30.0200 19.9831 0.0589
30.0400 19.9964 0.0621
30.0600 20.0098 0.0705
30.0800 20.0231 0.0527
30.1000 20.0364 0.0657
30.1200 20.0497 0.0746
30.1400 20.0631 0.0497
30.1600 20.0764 0.0654
30.1800 20.0897 0.0683
30.2000 20.1030 0.0499
30.2200 20.1164 0.0654
30.2400 20.1297 0.0658
30.2600 20.1430 0.0531
30.2800 20.1564 0.0646
30.3000 20.1697 0.0664
30.3200 20.1831 0.0489
30.3400 20.1964 0.0665
30.3600 20.2097 0.0617
30.3800 20.2231 0.0544
30.4000 20.2364 0.0614
30.4200 20.2498 0.0604
30.4400 20.2631 0.0495
30.4600 20.2764 0.0626
30.4800 20.2897 0.0629
30.5000 20.3031 0.0551
30.5200 20.3164 0.0611
30.5400 20.3297 0.0645
30.5600 20.3430 0.0527
30.5800 20.3563 0.0650
30.6000 20.3697 0.0649
30.6200 20.3830 0.0548
30.6400 20.3964 0.0652
30.6600 20.4097 0.0641
30.6800 20.4231 0.0552
30.7000 20.4365 0.0650
30.7200 20.4498 0.0658
30.7400 20.4631 0.0552
30.7600 20.4764 0.0661
30.7800 20.4898 0.0656
30.8000 20.5031 0.0601
30.8200 20.5164 0.0683
30.8400 20.5297 0.0691
30.8600 20.5430 0.0549
30.8800 20.5564 0.0683
30.9000 20.5697 0.0696
30.9200 20.5830 0.0609
30.9400 20.5963 0.0649
30.9600 20.6097 0.0742
30.9800 20.6230 0.0591
31.0000 20.6363 0.0682
31.0200 20.6497 0.0742
31.0400 20.6631 0.0824
31.0600 20.6765 0.1304
31.0800 20.6898 0.1467
31.1000 20.7031 0.1216
31.1200 20.7164 0.1194
31.1400 20.7298 0.1147
31.1600 20.7431 0.0940
31.1800 20.7564 0.1071
31.2000 20.7697 0.1124
31.2200 20.7830 0.0975
31.2400 20.7964 0.1019
31.2600 20.8097 0.1065
31.2800 20.8230 0.0886
31.3000 20.8364 0.1090
31.3200 20.8497 0.1140
31.3400 20.8631 0.0999
31.3600 20.8764 0.1141
31.3800 20.8897 0.1205
31.4000 20.9031 0.1013
31.4200 20.9165 0.1205
31.4400 20.9298 0.1166
31.4600 20.9431 0.1008
31.4800 20.9564 0.1184
31.5000 20.9697 0.1193
31.5200 20.9831 0.1077
31.5400 20.9964 0.1171
31.5600 21.0097 0.1209
31.5800 21.0231 0.1113
31.6000 21.0364 0.1183
31.6200 21.0497 0.1184
31.6400 21.0630 0.1108
31.6600 21.0764 0.1146
31.6800 21.0897 0.1187
31.7000 21.1030 0.1077
31.7200 21.1163 0.1148
31.7400 21.1297 0.1122
31.7600 21.1430 0.1066
31.7800 21.1564 0.1060
31.8000 21.1697 0.1158
31.8200 21.1831 0.1068
31.8400 21.1964 0.1096
31.8600 21.2098 0.1139
31.8800 21.2231 0.1075
31.9000 21.2364 0.1029
31.9200 21.2497 0.1197
31.9400 21.2631 0.1110
31.9600 21.2764 0.1066
31.9800 21.2897 0.1117
32.0000 21.3030 0.1065
32.0200 21.3163 0.1096
32.0400 21.3297 0.1094
32.0600 21.3430 0.1081
32.0800 21.3564 0.1047
32.1000 21.3697 0.1137
32.1200 21.3831 0.1058
32.1400 21.3964 0.1040
32.1600 21.4098 0.1090
32.1800 21.4231 0.1076
32.2000 21.4364 0.1022
32.2200 21.4498 0.1104
32.2400 21.4631 0.1054
32.2600 21.4764 0.1026
32.2800 21.4897 0.1105
32.3000 21.5030 0.1076
32.3200 21.5164 0.1018
32.3400 21.5297 0.1155
32.3600 21.5430 0.1062
32.3800 21.5563 0.1034
32.4000 21.5697 0.1100
32.4200 21.5830 0.1014
32.4400 21.5964 0.1048
32.4600 21.6097 0.1094
32.4800 21.6230 0.1019
32.5000 21.6364 0.1016
32.5200 21.6497 0.1084
32.5400 21.6631 0.1027
32.5600 21.6764 0.1013
32.5800 21.6898 0.1107
32.6000 21.7031 0.1021
32.6200 21.7164 0.1022
32.6400 21.7297 0.1088
32.6600 21.7431 0.1031
32.6800 21.7564 0.1007
32.7000 21.7697 0.1027
32.7200 21.7830 0.1057
32.7400 21.7963 0.0979
32.7600 21.8097 0.1051
32.7800 21.8230 0.1026
32.8000 21.8363 0.0996
32.8200 21.8497 0.1068
32.8400 21.8631 0.1028
32.8600 21.8765 0.0951
32.8800 21.8898 0.1058
32.9000 21.9031 0.1016
32.9200 21.9164 0.0958
32.9400 21.9298 0.1068
32.9600 21.9431 0.1017
32.9800 21.9564 0.1004
33.0000 21.9697 0.1035
33.0200 21.9831 0.0991
33.0400 21.9964 0.0981
33.0600 22.0098 0.1073
33.0800 22.0231 0.0975
33.1000 22.0364 0.0992
33.1200 22.0497 0.1043
33.1400 22.0630 0.1010
33.1600 22.0763 0.1000
33.1800 22.0897 0.1059
33.2000 22.1031 0.0999
33.2200 22.1164 0.0996
33.2400 22.1298 0.1013
33.2600 22.1431 0.1024
33.2800 22.1564 0.1007
33.3000 22.1698 0.1023
33.3200 22.1831 0.0988
33.3400 22.1964 0.0977
33.3600 22.2097 0.0964
33.3800 22.2230 0.1002
33.4000 22.2364 0.1035
33.4200 22.2497 0.0967
33.4400 22.2630 0.1001
33.4600 22.2763 0.0990
33.4800 22.2897 0.0949
33.5000 22.3030 0.0959
33.5200 22.3164 0.1060
33.5400 22.3297 0.0959
33.5600 22.3430 0.0979
33.5800 22.3564 0.1031
33.6000 22.3697 0.0941
33.6200 22.3830 0.0972
33.6400 22.3964 0.1066
33.6600 22.4097 0.0957
33.6800 22.4231 0.1011
33.7000 22.4364 0.1044
33.7200 22.4498 0.0947
33.7400 22.4631 0.1071
33.7600 22.4765 0.1067
33.7800 22.4897 0.0962
33.8000 22.5030 0.1035
33.8200 22.5163 0.1069
33.8400 22.5297 0.0957
33.8600 22.5430 0.0993
33.8800 22.5563 0.1048
33.9000 22.5697 0.1004
33.9200 22.5831 0.0987
33.9400 22.5965 0.1062
33.9600 22.6098 0.0961
33.9800 22.6231 0.1056
34.0000 22.6365 0.1064
34.0200 22.6498 0.0963
34.0400 22.6632 0.1038
34.0600 22.6765 0.1060
34.0800 22.6897 0.0989
34.1000 22.7030 0.1090
34.1200 22.7164 0.1060
34.1400 22.7297 0.0973
34.1600 22.7430 0.1084
34.1800 22.7563 0.1112
34.2000 22.7697 0.0986
34.2200 22.7830 0.1099
34.2400 22.7963 0.1091
34.2600 22.8097 0.0980
34.2800 22.8231 0.1124
34.3000 22.8364 0.1029
34.3200 22.8498 0.0943
34.3400 22.8631 0.1086
34.3600 22.8765 0.1090
34.3800 22.8898 0.0981
34.4000 22.9031 0.1097
34.4200 22.9164 0.1040
34.4400 22.9297 0.1036
34.4600 22.9430 0.1094
34.4800 22.9564 0.1060
34.5000 22.9697 0.0945
34.5200 22.9830 0.1109
34.5400 22.9963 0.1085
34.5600 23.0097 0.0919
34.5800 23.0230 0.1103
34.6000 23.0363 0.1116
34.6200 23.0497 0.0912
34.6400 23.0630 0.1159
34.6600 23.0764 0.1052
34.6800 23.0898 0.0909
34.7000 23.1031 0.1099
34.7200 23.1164 0.1068
34.7400 23.1298 0.0970
34.7600 23.1431 0.1124
34.7800 23.1564 0.1010
34.8000 23.1697 0.0970
34.8200 23.1831 0.1134
34.8400 23.1964 0.1013
34.8600 23.2097 0.0972
34.8800 23.2230 0.1066
34.9000 23.2363 0.1037
34.9200 23.2497 0.0956
34.9400 23.2630 0.1105
34.9600 23.2764 0.0987
34.9800 23.2897 0.0984
35.0000 23.3031 0.1045
35.0200 23.3164 0.1037
35.0400 23.3298 0.0976
35.0600 23.3431 0.1044
35.0800 23.3564 0.1060
35.1000 23.3698 0.0972
35.1200 23.3831 0.1001
35.1400 23.3964 0.1108
35.1600 23.4097 0.0970
35.1800 23.4230 0.1037
35.2000 23.4364 0.1096
35.2200 23.4497 0.0902
35.2400 23.4630 0.1058
35.2600 23.4763 0.1100
35.2800 23.4897 0.0916
35.3000 23.5030 0.1024
35.3200 23.5164 0.1104
35.3400 23.5297 0.0867
35.3600 23.5430 0.1101
35.3800 23.5564 0.1094
35.4000 23.5698 0.0919
35.4200 23.5831 0.1089
35.4400 23.5964 0.1037
35.4600 23.6098 0.0947
35.4800 23.6231 0.1109
35.5000 23.6365 0.1017
35.5200 23.6498 0.0975
35.5400 23.6631 0.1102
35.5600 23.6764 0.0984
35.5800 23.6897 0.1012
35.6000 23.7030 0.1086
35.6200 23.7164 0.1003
35.6400 23.7297 0.1036
35.6600 23.7430 0.1094
35.6800 23.7564 0.1011
35.7000 23.7697 0.1033
35.7200 23.7830 0.1033
35.7400 23.7964 0.1052
35.7600 23.8098 0.1016
35.7800 23.8231 0.1054
35.8000 23.8364 0.1001
35.8200 23.8498 0.1049
35.8400 23.8631 0.1043
35.8600 23.8764 0.1045
35.8800 23.8897 0.1039
35.9000 23.9031 0.1060
35.9200 23.9164 0.1050
35.9400 23.9297 0.1026
35.9600 23.9430 0.1059
35.9800 23.9563 0.1098
36.0000 23.9696 0.1010
36.0200 23.9830 0.1014
36.0400 23.9963 0.1088
36.0600 24.0097 0.1056
36.0800 24.0230 0.1056
36.1000 24.0364 0.1069
36.1200 24.0498 0.1027
36.1400 24.0632 0.1061
36.1600 24.0765 0.1083
36.1800 24.0898 0.1012
36.2000 24.1031 0.1065
36.2200 24.1164 0.1035
36.2400 24.1297 0.1050
36.2600 24.1430 0.1048
36.2800 24.1563 0.1061
36.3000 24.1697 0.1032
36.3200 24.1830 0.1072
36.3400 24.1963 0.1041
36.3600 24.2097 0.1047
36.3800 24.2230 0.1066
36.4000 24.2364 0.1082
36.4200 24.2497 0.1030
36.4400 24.2631 0.1085
36.4600 24.2764 0.1059
36.4800 24.2898 0.1030
36.5000 24.3031 0.1078
36.5200 24.3164 0.1043
36.5400 24.3297 0.1070
36.5600 24.3431 0.1034
36.5800 24.3564 0.1111
36.6000 24.3697 0.1044
36.6200 24.3830 0.1049
36.6400 24.3964 0.1056
36.6600 24.4097 0.1056
36.6800 24.4230 0.0995
36.7000 24.4363 0.1065
36.7200 24.4497 0.1051
36.7400 24.4631 0.1014
36.7600 24.4764 0.1076
36.7800 24.4897 0.1027
36.8000 24.5031 0.1030
36.8200 24.5164 0.1070
36.8400 24.5298 0.1015
36.8600 24.5431 0.1035
36.8800 24.5564 0.1065
36.9000 24.5698 0.1044
36.9200 24.5831 0.1039
36.9400 24.5964 0.1049
36.9600 24.6097 0.1053
36.9800 24.6230 0.1031
37.0000 24.6364 0.1040
37.0200 24.6497 0.1043
37.0400 24.6630 0.1044
37.0600 24.6763 0.1052
37.0800 24.6897 0.1072
37.1000 24.7030 0.1052
37.1200 24.7164 0.1076
37.1400 24.7297 0.1051
37.1600 24.7430 0.1064
37.1800 24.7564 0.1030
37.2000 24.7698 0.1077
37.2200 24.7831 0.1067
37.2400 24.7964 0.1044
37.2600 24.8098 0.1061
37.2800 24.8231 0.1094
37.3000 24.8364 0.1025
37.3200 24.8497 0.1086
37.3400 24.8630 0.1110
37.3600 24.8764 0.1060
37.3800 24.8897 0.1066
37.4000 24.9031 0.1065
37.4200 24.9164 0.1061
37.4400 24.9297 0.1093
37.4600 24.9430 0.1058
37.4800 24.9564 0.1078
37.5000 24.9697 0.1095
37.5200 24.9830 0.1007
37.5400 24.9964 0.1116
37.5600 25.0097 0.1061
37.5800 25.0231 0.1000
37.6000 25.0364 0.1103
37.6200 25.0497 0.1096
37.6400 25.0631 0.1000
37.6600 25.0765 0.1098
37.6800 25.0898 0.1032
37.7000 25.1031 0.1081
37.7200 25.1164 0.1060
37.7400 25.1297 0.1090
37.7600 25.1430 0.1034
37.7800 25.1563 0.1018
37.8000 25.1696 0.1104
37.8200 25.1830 0.1113
37.8400 25.1963 0.1007
37.8600 25.2097 0.1071
37.8800 25.2230 0.1123
37.9000 25.2364 0.1023
37.9200 25.2498 0.1120
37.9400 25.2631 0.1086
37.9600 25.2764 0.0998
37.9800 25.2898 0.1125
38.0000 25.3031 0.1104
38.0200 25.3165 0.0971
38.0400 25.3298 0.1135
38.0600 25.3431 0.1074
38.0800 25.3564 0.1031
38.1000 25.3697 0.1082
38.1200 25.3830 0.1086
38.1400 25.3963 0.1039
38.1600 25.4097 0.1151
38.1800 25.4230 0.1047
38.2000 25.4363 0.1011
38.2200 25.4497 0.1128
38.2400 25.4630 0.1014
38.2600 25.4764 0.0988
38.2800 25.4898 0.1126
38.3000 25.5031 0.1038
38.3200 25.5164 0.0958
38.3400 25.5298 0.1113
38.3600 25.5431 0.1071
38.3800 25.5564 0.0954
38.4000 25.5697 0.1134
38.4200 25.5830 0.1115
38.4400 25.5963 0.0964
38.4600 25.6097 0.1143
38.4800 25.6230 0.1038
38.5000 25.6363 0.1034
38.5200 25.6497 0.1125
38.5400 25.6631 0.1053
38.5600 25.6764 0.0987
38.5800 25.6897 0.1104
38.6000 25.7031 0.1047
38.6200 25.7164 0.1019
38.6400 25.7298 0.1076
38.6600 25.7431 0.1026
38.6800 25.7564 0.1029
38.7000 25.7697 0.1072
38.7200 25.7831 0.1005
38.7400 25.7964 0.1045
38.7600 25.8098 0.1056
38.7800 25.8231 0.0990
38.8000 25.8364 0.1071
38.8200 25.8498 0.1042
38.8400 25.8631 0.0998
38.8600 25.8764 0.1077
38.8800 25.8897 0.1061
38.9000 25.9030 0.0993
38.9200 25.9164 0.1085
38.9400 25.9297 0.1031
38.9600 25.9430 0.1062
38.9800 25.9564 0.1031
39.0000 25.9697 0.1023
39.0200 25.9831 0.1059
39.0400 25.9964 0.1026
39.0600 26.0097 0.1022
39.0800 26.0231 0.1108
39.1000 26.0364 0.1003
39.1200 26.0497 0.1045
39.1400 26.0631 0.1067
39.1600 26.0764 0.0998
39.1800 26.0898 0.1067
39.2000 26.1031 0.1053
39.2200 26.1164 0.0986
39.2400 26.1297 0.1086
39.2600 26.1430 0.1090
39.2800 26.1563 0.0964
39.3000 26.1697 0.1110
39.3200 26.1830 0.1062
39.3400 26.1964 0.0951
39.3600 26.2098 0.1109
39.3800 26.2231 0.1065
39.4000 26.2364 0.0929
39.4200 26.2498 0.1107
39.4400 26.2631 0.1035
39.4600 26.2765 0.0969
39.4800 26.2897 0.1115
39.5000 26.3030 0.1078
39.5200 26.3164 0.0929
39.5400 26.3297 0.1160
39.5600 26.3431 0.1019
39.5800 26.3564 0.0936
39.6000 26.3697 0.1162
39.6200 26.3830 0.1031
39.6400 26.3964 0.0983
39.6600 26.4097 0.1127
39.6800 26.4231 0.1004
39.7000 26.4364 0.1047
39.7200 26.4498 0.1130
39.7400 26.4631 0.0968
39.7600 26.4764 0.1042
39.7800 26.4898 0.1083
39.8000 26.5031 0.0986
39.8200 26.5165 0.1030
39.8400 26.5298 0.1059
39.8600 26.5431 0.0957
39.8800 26.5564 0.1096
39.9000 26.5697 0.1011
39.9200 26.5830 0.0989
39.9400 26.5963 0.1121
39.9600 26.6096 0.1005
39.9800 26.6230 0.0999
40.0000 26.6363 0.1121
40.0200 26.6497 0.0971
40.0400 26.6630 0.1067
40.0600 26.6764 0.1046
40.0800 26.6898 0.1006
40.1000 26.7031 0.1106
40.1200 26.7164 0.1022
40.1400 26.7297 0.0991
40.1600 26.7431 0.1112
40.1800 26.7564 0.1014
40.2000 26.7698 0.0963
40.2200 26.7831 0.1162
40.2400 26.7964 0.1002
40.2600 26.8097 0.1026
40.2800 26.8231 0.1131
40.3000 26.8364 0.1005
40.3200 26.8497 0.1014
40.3400 26.8630 0.1143
40.3600 26.8764 0.0988
40.3800 26.8897 0.1060
40.4000 26.9030 0.1101
40.4200 26.9164 0.0966
40.4400 26.9298 0.1113
40.4600 26.9431 0.1051
40.4800 26.9564 0.1002
40.5000 26.9697 0.1124
40.5200 26.9831 0.0983
40.5400 26.9965 0.1058
40.5600 27.0098 0.1139
40.5800 27.0231 0.0988
40.6000 27.0364 0.1112
40.6200 27.0497 0.1057
40.6400 27.0630 0.0985
40.6600 27.0764 0.1136
40.6800 27.0897 0.1050
40.7000 27.1030 0.0968
40.7200 27.1164 0.1182
40.7400 27.1297 0.0967
40.7600 27.1430 0.1069
40.7800 27.1564 0.1188
40.8000 27.1697 0.0920
40.8200 27.1831 0.1015
40.8400 27.1964 0.1160
40.8600 27.2097 0.0945
40.8800 27.2230 0.1094
40.9000 27.2364 0.1098
40.9200 27.2498 0.0896
40.9400 27.2631 0.1148
40.9600 27.2764 0.1053
40.9800 27.2898 0.0944
41.0000 27.3031 0.1158
41.0200 27.3164 0.0955
41.0400 27.3297 0.0983
41.0600 27.3430 0.1154
41.0800 27.3564 0.0947
41.1000 27.3697 0.1038
41.1200 27.3830 0.1081
41.1400 27.3964 0.0995
41.1600 27.4098 0.1025
41.1800 27.4231 0.1069
41.2000 27.4365 0.0952
41.2200 27.4498 0.1072
41.2400 27.4631 0.1033
41.2600 27.4765 0.0975
41.2800 27.4898 0.1095
41.3000 27.5031 0.0989
41.3200 27.5164 0.0989
41.3400 27.5297 0.1095
41.3600 27.5430 0.0968
41.3800 27.5564 0.0985
41.4000 27.5697 0.1074
41.4200 27.5830 0.1002
41.4400 27.5964 0.0971
41.4600 27.6097 0.1050
41.4800 27.6230 0.1021
41.5000 27.6364 0.0985
41.5200 27.6497 0.1034
41.5400 27.6631 0.1013
41.5600 27.6765 0.1029
41.5800 27.6898 0.0991
41.6000 27.7031 0.1074
41.6200 27.7164 0.1012
41.6400 27.7298 0.0969
41.6600 27.7431 0.1057
41.6800 27.7564 0.1018
41.7000 27.7697 0.0991
41.7200 27.7830 0.1041
41.7400 27.7964 0.0971
41.7600 27.8097 0.1014
41.7800 27.8230 0.1070
41.8000 27.8364 0.0983
41.8200 27.8497 0.1001
41.8400 27.8631 0.1094
41.8600 27.8764 0.0964
41.8800 27.8897 0.0984
41.9000 27.9031 0.1045
41.9200 27.9164 0.0954
41.9400 27.9298 0.1035
41.9600 27.9431 0.1070
41.9800 27.9565 0.0971
42.0000 27.9698 0.1059
42.0200 27.9831 0.1039
42.0400 27.9964 0.1006
42.0600 28.0097 0.1092
42.0800 28.0231 0.0991
42.1000 28.0364 0.1004
42.1200 28.0497 0.1019
42.1400 28.0630 0.1015
42.1600 28.0763 0.1064
42.1800 28.0897 0.1061
42.2000 28.1030 0.0921
42.2200 28.1164 0.1048
42.2400 28.1298 0.1078
42.2600 28.1431 0.0944
42.2800 28.1565 0.1059
42.3000 28.1698 0.1061
42.3200 28.1831 0.0903
42.3400 28.1964 0.1070
42.3600 28.2097 0.0989
42.3800 28.2230 0.0902
42.4000 28.2363 0.1153
42.4200 28.2497 0.0919
42.4400 28.2631 0.0908
42.4600 28.2764 0.1083
42.4800 28.2897 0.0934
42.5000 28.3030 0.0995
42.5200 28.3164 0.1077
42.5400 28.3297 0.0909
42.5600 28.3430 0.1039
42.5800 28.3564 0.1054
42.6000 28.3697 0.0902
42.6200 28.3831 0.1029
42.6400 28.3964 0.1057
42.6600 28.4098 0.0887
42.6800 28.4231 0.1063
42.7000 28.4365 0.1052
42.7200 28.4498 0.0861
42.7400 28.4631 0.1043
42.7600 28.4764 0.1034
42.7800 28.4897 0.0924
42.8000 28.5030 0.1051
42.8200 28.5164 0.1004
42.8400 28.5297 0.0901
42.8600 28.5430 0.1085
42.8800 28.5563 0.0946
42.9000 28.5697 0.0975
42.9200 28.5830 0.1057
42.9400 28.5964 0.0931
42.9600 28.6097 0.0950
42.9800 28.6231 0.1118
43.0000 28.6364 0.0948
43.0200 28.6497 0.0972
43.0400 28.6631 0.1081
43.0600 28.6764 0.0971
43.0800 28.6898 0.0929
43.1000 28.7031 0.1068
43.1200 28.7164 0.1008
43.1400 28.7297 0.0986
43.1600 28.7431 0.1025
43.1800 28.7564 0.1022
43.2000 28.7697 0.0963
43.2200 28.7830 0.1026
43.2400 28.7963 0.1049
43.2600 28.8097 0.0949
43.2800 28.8230 0.0968
43.3000 28.8363 0.1121
43.3200 28.8497 0.0918
43.3400 28.8631 0.0940
43.3600 28.8765 0.1092
43.3800 28.8898 0.0864
43.4000 28.9031 0.1064
43.4200 28.9165 0.1055
43.4400 28.9298 0.0880
43.4600 28.9431 0.1067
43.4800 28.9564 0.1108
43.5000 28.9697 0.0898
43.5200 28.9830 0.1090
43.5400 28.9963 0.1043
43.5600 29.0097 0.0889
43.5800 29.0230 0.1089
43.6000 29.0364 0.1034
43.6200 29.0497 0.0881
43.6400 29.0631 0.1117
43.6600 29.0764 0.0958
43.6800 29.0898 0.0987
43.7000 29.1031 0.1062
43.7200 29.1165 0.0957
43.7400 29.1298 0.0987
43.7600 29.1431 0.1034
43.7800 29.1564 0.0932
43.8000 29.1698 0.1019
43.8200 29.1831 0.1048
43.8400 29.1964 0.0905
43.8600 29.2097 0.1071
43.8800 29.2230 0.1018
43.9000 29.2364 0.0898
43.9200 29.2497 0.1074
43.9400 29.2630 0.1002
43.9600 29.2763 0.0932
43.9800 29.2897 0.1096
44.0000 29.3030 0.0947
44.0200 29.3164 0.1018
44.0400 29.3297 0.1032
44.0600 29.3431 0.0963
44.0800 29.3564 0.1001
44.1000 29.3698 0.1074
44.1200 29.3831 0.0931
44.1400 29.3964 0.1031
44.1600 29.4098 0.1091
44.1800 29.4231 0.0893
44.2000 29.4364 0.1051
44.2200 29.4497 0.1075
44.2400 29.4630 0.0905
44.2600 29.4764 0.1072
44.2800 29.4897 0.1040
44.3000 29.5030 0.0931
44.3200 29.5163 0.1102
44.3400 29.5297 0.0979
44.3600 29.5430 0.0966
44.3800 29.5564 0.1067
44.4000 29.5697 0.1033
44.4200 29.5831 0.0942
44.4400 29.5965 0.1019
44.4600 29.6098 0.1004
44.4800 29.6231 0.0995
44.5000 29.6364 0.0967
44.5200 29.6498 0.1069
44.5400 29.6631 0.1011
44.5600 29.6764 0.0941
44.5800 29.6897 0.1081
44.6000 29.7031 0.1004
44.6200 29.7164 0.0954
44.6400 29.7297 0.1046
44.6600 29.7430 0.0995
44.6800 29.7563 0.0986
44.7000 29.7697 0.1051
44.7200 29.7830 0.0955
44.7400 29.7964 0.0973
44.7600 29.8097 0.1009
44.7800 29.8231 0.0977
44.8000 29.8364 0.0999
44.8200 29.8498 0.1076
44.8400 29.8631 0.0936
44.8600 29.8764 0.1047
44.8800 29.8898 0.1016
44.9000 29.9031 0.0906
44.9200 29.9164 0.1090
44.9400 29.9297 0.1072
44.9600 29.9430 0.0905
44.9800 29.9564 0.1027
45.0000 29.9697 0.0995
45.0200 29.9830 0.0978
45.0400 29.9963 0.1022
45.0600 30.0097 0.1021
45.0800 30.0230 0.0989
45.1000 30.0364 0.0988
45.1200 30.0497 0.1032
45.1400 30.0631 0.1014
45.1600 30.0765 0.0969
45.1800 30.0898 0.0957
45.2000 30.1031 0.0972
45.2200 30.1164 0.0979
45.2400 30.1298 0.1054
45.2600 30.1431 0.0969
45.2800 30.1564 0.0957
45.3000 30.1697 0.0998
45.3200 30.1830 0.0989
45.3400 30.1964 0.0956
45.3600 30.2097 0.1064
45.3800 30.2230 0.0954
45.4000 30.2363 0.0939
45.4200 30.2497 0.1001
45.4400 30.2630 0.0991
45.4600 30.2764 0.0992
45.4800 30.2897 0.1035
45.5000 30.3031 0.0893
45.5200 30.3165 0.0969
45.5400 30.3298 0.1063
45.5600 30.3431 0.0900
45.5800 30.3565 0.0983
45.6000 30.3698 0.1068
45.6200 30.3831 0.0896
45.6400 30.3964 0.0923
45.6600 30.4097 0.1100
45.6800 30.4230 0.0942
45.7000 30.4363 0.0966
45.7200 30.4497 0.1065
45.7400 30.4630 0.0911
45.7600 30.4763 0.0933
45.7800 30.4897 0.1117
45.8000 30.5031 0.0892
45.8200 30.5164 0.0958
45.8400 30.5297 0.1104
45.8600 30.5431 0.0902
45.8800 30.5564 0.0931
45.9000 30.5698 0.1117
45.9200 30.5831 0.0976
45.9400 30.5964 0.0958
45.9600 30.6098 0.1056
45.9800 30.6231 0.0942
46.0000 30.6364 0.0996
46.0200 30.6497 0.1118
46.0400 30.6631 0.0968
46.0600 30.6764 0.0975
46.0800 30.6897 0.1035
46.1000 30.7030 0.0967
46.1200 30.7164 0.0988
46.1400 30.7297 0.1018
46.1600 30.7430 0.1003
46.1800 30.7563 0.0980
46.2000 30.7697 0.1015
46.2200 30.7830 0.1002
46.2400 30.7964 0.0993
46.2600 30.8098 0.0944
46.2800 30.8231 0.1048
46.3000 30.8364 0.0995
46.3200 30.8498 0.0991
46.3400 30.8631 0.1008
46.3600 30.8764 0.0927
46.3800 30.8897 0.1024
46.4000 30.9031 0.1055
46.4200 30.9164 0.0925
46.4400 30.9297 0.0967
46.4600 30.9430 0.1071
46.4800 30.9563 0.0916
46.5000 30.9697 0.1026
46.5200 30.9830 0.1032
46.5400 30.9963 0.0919
46.5600 31.0097 0.1021
46.5800 31.0231 0.1025
46.6000 31.0365 0.0871
46.6200 31.0498 0.1081
46.6400 31.0631 0.1015
46.6600 31.0764 0.0837
46.6800 31.0898 0.1046
46.7000 31.1031 0.1046
46.7200 31.1164 0.0842
46.7400 31.1297 0.1084
46.7600 31.1430 0.0949
46.7800 31.1564 0.0903
46.8000 31.1697 0.1107
46.8200 31.1830 0.0959
46.8400 31.1963 0.0894
46.8600 31.2097 0.1080
46.8800 31.2231 0.0924
46.9000 31.2364 0.0911
46.9200 31.2497 0.1152
46.9400 31.2631 0.0866
46.9600 31.2764 0.0904
46.9800 31.2898 0.1111
47.0000 31.3031 0.0847
47.0200 31.3164 0.0968
47.0400 31.3298 0.1085
47.0600 31.3431 0.0830
47.0800 31.3564 0.1011
47.1000 31.3697 0.1007
47.1200 31.3831 0.0877
47.1400 31.3964 0.0972
47.1600 31.4097 0.1055
47.1800 31.4230 0.0934
47.2000 31.4363 0.0955
47.2200 31.4496 0.0960
47.2400 31.4630 0.0956
47.2600 31.4764 0.0944
47.2800 31.4897 0.0998
47.3000 31.5031 0.0971
47.3200 31.5164 0.0907
47.3400 31.5298 0.0945
47.3600 31.5431 0.1013
47.3800 31.5564 0.0922
47.4000 31.5698 0.0961
47.4200 31.5831 0.1005
47.4400 31.5964 0.0870
47.4600 31.6097 0.0963
47.4800 31.6230 0.1049
47.5000 31.6364 0.0955
47.5200 31.6497 0.0911
47.5400 31.6630 0.1033
47.5600 31.6764 0.0907
47.5800 31.6897 0.0964
47.6000 31.7030 0.1063
47.6200 31.7163 0.0882
47.6400 31.7297 0.0915
47.6600 31.7431 0.1069
47.6800 31.7565 0.0843
47.7000 31.7698 0.0968
47.7200 31.7831 0.1026
47.7400 31.7964 0.0857
47.7600 31.8098 0.0940
47.7800 31.8231 0.0948
47.8000 31.8364 0.0880
47.8200 31.8497 0.1053
47.8400 31.8630 0.0979
47.8600 31.8764 0.0806
47.8800 31.8897 0.1044
47.9000 31.9030 0.1009
47.9200 31.9163 0.0853
47.9400 31.9297 0.0988
47.9600 31.9430 0.0972
47.9800 31.9564 0.0881
48.0000 31.9697 0.0955
48.0200 31.9830 0.0969
48.0400 31.9964 0.0973
48.0600 32.0097 0.0946
48.0800 32.0230 0.0919
48.1000 32.0364 0.0936
48.1200 32.0497 0.1002
48.1400 32.0631 0.0888
48.1600 32.0764 0.0966
48.1800 32.0897 0.0960
48.2000 32.1031 0.0900
48.2200 32.1164 0.0998
48.2400 32.1298 0.0907
48.2600 32.1430 0.0930
48.2800 32.1563 0.0988
48.3000 32.1697 0.0963
48.3200 32.1830 0.0886
48.3400 32.1963 0.1006
48.3600 32.2097 0.1013
48.3800 32.2230 0.0917
48.4000 32.2364 0.0914
48.4200 32.2498 0.0951
48.4400 32.2631 0.0952
48.4600 32.2764 0.0964
48.4800 32.2898 0.0924
48.5000 32.3032 0.0981
48.5200 32.3165 0.1021
48.5400 32.3297 0.0977
48.5600 32.3430 0.0921
48.5800 32.3564 0.1029
48.6000 32.3697 0.0939
48.6200 32.3830 0.0951
48.6400 32.3963 0.0994
48.6600 32.4097 0.0941
48.6800 32.4230 0.0972
48.7000 32.4363 0.0974
48.7200 32.4497 0.0940
48.7400 32.4631 0.0947
48.7600 32.4764 0.0997
48.7800 32.4898 0.0856
48.8000 32.5031 0.0953
48.8200 32.5165 0.0950
48.8400 32.5298 0.0987
48.8600 32.5431 0.0932
48.8800 32.5564 0.0863
48.9000 32.5697 0.1002
48.9200 32.5830 0.0952
48.9400 32.5964 0.0857
48.9600 32.6097 0.1041
48.9800 32.6230 0.0952
49.0000 32.6363 0.0860
49.0200 32.6497 0.0963
49.0400 32.6630 0.0967
49.0600 32.6764 0.0866
49.0800 32.6897 0.1096
49.1000 32.7030 0.0873
49.1200 32.7164 0.0817
49.1400 32.7298 0.1142
49.1600 32.7431 0.0854
49.1800 32.7564 0.0819
49.2000 32.7698 0.1186
49.2200 32.7831 0.0848
49.2400 32.7964 0.0870
49.2600 32.8097 0.1151
49.2800 32.8231 0.0815
49.3000 32.8364 0.0943
49.3200 32.8497 0.1081
49.3400 32.8630 0.0849
49.3600 32.8763 0.0902
49.3800 32.8896 0.1034
49.4000 32.9030 0.0872
49.4200 32.9164 0.0966
49.4400 32.9297 0.1014
49.4600 32.9431 0.0867
49.4800 32.9564 0.0977
49.5000 32.9698 0.0923
49.5200 32.9831 0.0922
49.5400 32.9964 0.1007
49.5600 33.0098 0.0942
49.5800 33.0231 0.0946
49.6000 33.0364 0.0953
49.6200 33.0497 0.0958
49.6400 33.0630 0.0952
49.6600 33.0764 0.0991
49.6800 33.0897 0.0907
49.7000 33.1030 0.0966
49.7200 33.1163 0.1001
49.7400 33.1297 0.0858
49.7600 33.1430 0.1047
49.7800 33.1564 0.0928
49.8000 33.1697 0.0882
49.8200 33.1830 0.1029
49.8400 33.1964 0.0932
49.8600 33.2098 0.0895
49.8800 33.2231 0.1048
49.9000 33.2364 0.0965
49.9200 33.2498 0.0862
49.9400 33.2631 0.0992
49.9600 33.2765 0.0970
49.9800 33.2898 0.0850
50.0000 33.3031 0.1022
50.0200 33.3164 0.0962
50.0400 33.3297 0.0859
50.0600 33.3431 0.0938
50.0800 33.3564 0.0949
50.1000 33.3697 0.0942
50.1200 33.3830 0.0948
50.1400 33.3964 0.0979
50.1600 33.4097 0.0876
50.1800 33.4230 0.0956
50.2000 33.4364 0.0930
50.2200 33.4498 0.0939
50.2400 33.4631 0.0882
50.2600 33.4764 0.0955
50.2800 33.4897 0.0934
50.3000 33.5031 0.0891
50.3200 33.5164 0.0934
50.3400 33.5297 0.0958
50.3600 33.5431 0.0928
50.3800 33.5564 0.0940
50.4000 33.5698 0.0937
50.4200 33.5831 0.0934
50.4400 33.5963 0.1023
50.4600 33.6097 0.0949
50.4800 33.6230 0.0846
50.5000 33.6363 0.1005
50.5200 33.6497 0.0933
50.5400 33.6630 0.0866
50.5600 33.6764 0.1030
50.5800 33.6898 0.0902
50.6000 33.7031 0.0870
50.6200 33.7165 0.1002
50.6400 33.7298 0.0948
50.6600 33.7431 0.0889
50.6800 33.7564 0.1009
50.7000 33.7697 0.0914
50.7200 33.7830 0.0951
50.7400 33.7964 0.0994
50.7600 33.8097 0.0925
50.7800 33.8230 0.0928
50.8000 33.8363 0.0974
50.8200 33.8497 0.0879
50.8400 33.8631 0.0958
50.8600 33.8764 0.0975
50.8800 33.8897 0.0904
50.9000 33.9031 0.0970
50.9200 33.9164 0.0966
50.9400 33.9298 0.0916
50.9600 33.9431 0.0925
50.9800 33.9564 0.0948
51.0000 33.9697 0.0919
51.0200 33.9831 0.0952
51.0400 33.9964 0.0960
51.0600 34.0097 0.0939
51.0800 34.0230 0.0913
51.1000 34.0364 0.0983
51.1200 34.0497 0.0888
51.1400 34.0630 0.0894
51.1600 34.0763 0.0976
51.1800 34.0897 0.0956
51.2000 34.1030 0.0894
51.2200 34.1164 0.0979
51.2400 34.1297 0.0956
51.2600 34.1431 0.0892
51.2800 34.1564 0.0947
51.3000 34.1698 0.0967
51.3200 34.1831 0.0839
51.3400 34.1964 0.0893
51.3600 34.2098 0.1010
51.3800 34.2231 0.0900
51.4000 34.2365 0.0885
51.4200 34.2498 0.1017
51.4400 34.2631 0.0942
51.4600 34.2764 0.0872
51.4800 34.2897 0.1021
51.5000 34.3031 0.0884
51.5200 34.3163 0.0812
51.5400 34.3296 0.1001
51.5600 34.3430 0.1069
51.5800 34.3564 0.0715
51.6000 34.3697 0.0821
51.6200 34.3830 0.1128
51.6400 34.3964 0.0860
51.6600 34.4098 0.0795
51.6800 34.4231 0.1009
51.7000 34.4365 0.0817
51.7200 34.4498 0.0937
51.7400 34.4631 0.1049
51.7600 34.4764 0.0784
51.7800 34.4897 0.0784
51.8000 34.5030 0.1061
51.8200 34.5164 0.0948
51.8400 34.5297 0.0782
51.8600 34.5431 0.0956
51.8800 34.5564 0.1010
51.9000 34.5697 0.0869
51.9200 34.5830 0.0918
51.9400 34.5964 0.1062
51.9600 34.6097 0.0862
51.9800 34.6230 0.0875
52.0000 34.6364 0.1071
52.0200 34.6497 0.0908
52.0400 34.6631 0.0863
52.0600 34.6764 0.0985
52.0800 34.6897 0.0936
52.1000 34.7031 0.0917
52.1200 34.7165 0.0990
52.1400 34.7298 0.0899
52.1600 34.7431 0.0884
52.1800 34.7564 0.1047
52.2000 34.7697 0.0872
52.2200 34.7830 0.0912
52.2400 34.7963 0.1061
52.2600 34.8097 0.0842
52.2800 34.8230 0.0919
52.3000 34.8364 0.1057
52.3200 34.8497 0.0878
52.3400 34.8630 0.0879
52.3600 34.8764 0.1038
52.3800 34.8898 0.0954
52.4000 34.9031 0.0877
52.4200 34.9164 0.0957
52.4400 34.9297 0.0943
52.4600 34.9431 0.0897
52.4800 34.9564 0.0944
52.5000 34.9697 0.0883
52.5200 34.9830 0.0965
52.5400 34.9964 0.0874
52.5600 35.0097 0.0906
52.5800 35.0231 0.0996
52.6000 35.0363 0.0910
52.6200 35.0497 0.0914
52.6400 35.0630 0.0928
52.6600 35.0764 0.0884
52.6800 35.0897 0.0982
52.7000 35.1030 0.0980
52.7200 35.1164 0.0866
52.7400 35.1298 0.0918
52.7600 35.1431 0.0931
52.7800 35.1564 0.0923
52.8000 35.1698 0.0934
52.8200 35.1831 0.0943
52.8400 35.1964 0.0919
52.8600 35.2097 0.0982
52.8800 35.2230 0.0892
52.9000 35.2363 0.0948
52.9200 35.2497 0.0939
52.9400 35.2630 0.0929
52.9600 35.2763 0.0946
52.9800 35.2897 0.0915
53.0000 35.3030 0.0978
53.0200 35.3164 0.0972
53.0400 35.3298 0.0882
53.0600 35.3431 0.0972
53.0800 35.3564 0.0943
53.1000 35.3698 0.0893
53.1200 35.3831 0.0915
53.1400 35.3964 0.0942
53.1600 35.4097 0.0895
53.1800 35.4231 0.0983
53.2000 35.4364 0.0926
53.2200 35.4498 0.0870
53.2400 35.4631 0.1035
53.2600 35.4764 0.0935
53.2800 35.4898 0.0894
53.3000 35.5031 0.1019
53.3200 35.5164 0.0973
53.3400 35.5297 0.0862
53.3600 35.5430 0.1036
53.3800 35.5564 0.0909
53.4000 35.5697 0.0873
53.4200 35.5830 0.1015
53.4400 35.5964 0.0995
53.4600 35.6097 0.0892
53.4800 35.6231 0.0961
53.5000 35.6364 0.0928
53.5200 35.6497 0.0958
53.5400 35.6631 0.0941
53.5600 35.6764 0.0933
53.5800 35.6898 0.0895
53.6000 35.7031 0.0991
53.6200 35.7164 0.0963
53.6400 35.7298 0.0898
53.6600 35.7431 0.0934
53.6800 35.7564 0.0985
53.7000 35.7697 0.0913
53.7200 35.7830 0.0874
53.7400 35.7963 0.0998
53.7600 35.8097 0.0927
53.7800 35.8230 0.0919
53.8000 35.8364 0.0940
53.8200 35.8498 0.0923
53.8400 35.8631 0.0869
53.8600 35.8764 0.1029
53.8800 35.8898 0.0930
53.9000 35.9031 0.0894
53.9200 35.9165 0.0958
53.9400 35.9298 0.0989
53.9600 35.9431 0.0924
53.9800 35.9564 0.0915
54.0000 35.9697 0.0964
54.0200 35.9830 0.0962
54.0400 35.9964 0.0899
54.0600 36.0097 0.0921
54.0800 36.0230 0.0936
54.1000 36.0364 0.0935
54.1200 36.0497 0.0950
54.1400 36.0631 0.0938
54.1600 36.0764 0.0980
54.1800 36.0897 0.0946
54.2000 36.1031 0.0914
54.2200 36.1164 0.0918
54.2400 36.1298 0.1011
54.2600 36.1431 0.0913
54.2800 36.1565 0.0855
54.3000 36.1698 0.1010
54.3200 36.1831 0.0972
54.3400 36.1964 0.0854
54.3600 36.2097 0.0962
54.3800 36.2231 0.0985
54.4000 36.2364 0.0887
54.4200 36.2497 0.0916
54.4400 36.2630 0.1023
54.4600 36.2763 0.0838
54.4800 36.2897 0.0968
54.5000 36.3030 0.0991
54.5200 36.3164 0.0851
54.5400 36.3298 0.0987
54.5600 36.3432 0.0960
54.5800 36.3565 0.0822
54.6000 36.3698 0.0941
54.6200 36.3831 0.1031
54.6400 36.3964 0.0840
54.6600 36.4098 0.0947
54.6800 36.4231 0.0998
54.7000 36.4364 0.0908
54.7200 36.4497 0.0949
54.7400 36.4630 0.0970
54.7600 36.4764 0.0861
54.7800 36.4897 0.1002
54.8000 36.5030 0.0930
54.8200 36.5163 0.0850
54.8400 36.5297 0.0984
54.8600 36.5430 0.0987
54.8800 36.5564 0.0830
54.9000 36.5697 0.0979
54.9200 36.5831 0.1025
54.9400 36.5964 0.0823
54.9600 36.6097 0.0953
54.9800 36.6231 0.1011
55.0000 36.6364 0.0884
55.0200 36.6498 0.0914
55.0400 36.6631 0.0947
55.0600 36.6764 0.0917
55.0800 36.6897 0.0956
55.1000 36.7030 0.0888
55.1200 36.7163 0.0912
55.1400 36.7296 0.1024
55.1600 36.7430 0.0912
55.1800 36.7563 0.0853
55.2000 36.7697 0.1035
55.2200 36.7830 0.0913
55.2400 36.7964 0.0868
55.2600 36.8097 0.0958
55.2800 36.8231 0.0924
55.3000 36.8364 0.0906
55.3200 36.8497 0.1003
55.3400 36.8631 0.0912
55.3600 36.8764 0.0944
55.3800 36.8898 0.0955
55.4000 36.9031 0.0935
55.4200 36.9164 0.0935
55.4400 36.9298 0.0948
55.4600 36.9431 0.0953
55.4800 36.9564 0.0936
55.5000 36.9697 0.0952
55.5200 36.9830 0.0958
55.5400 36.9963 0.0965
55.5600 37.0097 0.0902
55.5800 37.0230 0.0973
55.6000 37.0364 0.0972
55.6200 37.0497 0.0973
55.6400 37.0631 0.0966
55.6600 37.0765 0.0898
55.6800 37.0898 0.0955
55.7000 37.1031 0.0975
55.7200 37.1165 0.0877
55.7400 37.1298 0.1007
55.7600 37.1431 0.0971
55.7800 37.1564 0.0892
55.8000 37.1697 0.1005
55.8200 37.1831 0.0958
55.8400 37.1964 0.0895
55.8600 37.2097 0.1031
55.8800 37.2230 0.0988
55.9000 37.2363 0.0872
55.9200 37.2497 0.1015
55.9400 37.2630 0.0977
55.9600 37.2764 0.0910
55.9800 37.2897 0.0940
56.0000 37.3031 0.0980
56.0200 37.3164 0.0921
56.0400 37.3298 0.0956
56.0600 37.3431 0.0961
56.0800 37.3565 0.0964
56.1000 37.3698 0.0919
56.1200 37.3831 0.0959
56.1400 37.3964 0.0951
56.1600 37.4097 0.0976
56.1800 37.4231 0.0913
56.2000 37.4364 0.0920
56.2200 37.4497 0.0964
56.2400 37.4630 0.1003
56.2600 37.4763 0.0906
56.2800 37.4897 0.0924
56.3000 37.5030 0.1008
56.3200 37.5164 0.0878
56.3400 37.5297 0.0960
56.3600 37.5431 0.1015
56.3800 37.5564 0.0871
56.4000 37.5697 0.0944
56.4200 37.5831 0.1030
56.4400 37.5964 0.0869
56.4600 37.6098 0.0985
56.4800 37.6231 0.1011
56.5000 37.6364 0.0900
56.5200 37.6497 0.0944
56.5400 37.6631 0.1005
56.5600 37.6764 0.0869
56.5800 37.6897 0.1009
56.6000 37.7030 0.0956
56.6200 37.7163 0.0933
56.6400 37.7297 0.1023
56.6600 37.7430 0.0904
56.6800 37.7564 0.0954
56.7000 37.7697 0.1031
56.7200 37.7831 0.0928
56.7400 37.7965 0.0939
56.7600 37.8098 0.1021
56.7800 37.8231 0.0959
56.8000 37.8364 0.0936
56.8200 37.8498 0.0959
56.8400 37.8631 0.0965
56.8600 37.8764 0.0953
56.8800 37.8897 0.1002
56.9000 37.9030 0.0945
56.9200 37.9164 0.0932
56.9400 37.9297 0.1007
56.9600 37.9430 0.0981
56.9800 37.9563 0.0908
57.0000 37.9697 0.1032
57.0200 37.9830 0.0953
57.0400 37.9964 0.0947
57.0600 38.0097 0.0993
57.0800 38.0231 0.0963
57.1000 38.0365 0.0948
57.1200 38.0498 0.0991
57.1400 38.0631 0.0954
57.1600 38.0765 0.0965
57.1800 38.0898 0.0964
57.2000 38.1031 0.0939
57.2200 38.1164 0.0989
57.2400 38.1297 0.0994
57.2600 38.1430 0.0938
57.2800 38.1564 0.0960
57.3000 38.1697 0.1025
57.3200 38.1830 0.0966
57.3400 38.1963 0.0958
57.3600 38.2097 0.0984
57.3800 38.2230 0.0990
57.4000 38.2364 0.0916
57.4200 38.2497 0.0965
57.4400 38.2631 0.0991
57.4600 38.2764 0.0928
57.4800 38.2897 0.0933
57.5000 38.3031 0.1028
57.5200 38.3164 0.0899
57.5400 38.3298 0.0913
57.5600 38.3431 0.1003
57.5800 38.3564 0.0948
57.6000 38.3697 0.0953
57.6200 38.3831 0.0994
57.6400 38.3964 0.0914
57.6600 38.4097 0.0947
57.6800 38.4230 0.1035
57.7000 38.4363 0.0888
57.7200 38.4497 0.0989
57.7400 38.4630 0.1037
57.7600 38.4763 0.0849
57.7800 38.4897 0.1017
57.8000 38.5031 0.1018
57.8200 38.5165 0.0849
57.8400 38.5298 0.1034
57.8600 38.5431 0.0988
57.8800 38.5565 0.0886
57.9000 38.5698 0.0994
57.9200 38.5831 0.0997
57.9400 38.5964 0.0890
57.9600 38.6097 0.0977
57.9800 38.6230 0.0993
58.0000 38.6364 0.0935
58.0200 38.6497 0.1019
58.0400 38.6630 0.0964
58.0600 38.6764 0.0914
58.0800 38.6897 0.0971
58.1000 38.7031 0.0907
58.1200 38.7164 0.0971
58.1400 38.7297 0.0959
58.1600 38.7431 0.0918
58.1800 38.7565 0.0987
58.2000 38.7698 0.0897
58.2200 38.7831 0.0950
58.2400 38.7964 0.1015
58.2600 38.8098 0.0961
58.2800 38.8231 0.0934
58.3000 38.8364 0.1018
58.3200 38.8497 0.0923
58.3400 38.8631 0.0976
58.3600 38.8764 0.1008
58.3800 38.8897 0.0941
58.4000 38.9030 0.0979
58.4200 38.9164 0.1011
58.4400 38.9297 0.0915
58.4600 38.9431 0.0993
58.4800 38.9564 0.1020
58.5000 38.9697 0.0908
58.5200 38.9831 0.0957
58.5400 38.9965 0.0963
58.5600 39.0098 0.0924
58.5800 39.0231 0.1003
58.6000 39.0364 0.0968
58.6200 39.0498 0.0948
58.6400 39.0631 0.0991
58.6600 39.0764 0.0970
58.6800 39.0897 0.0960
58.7000 39.1030 0.0963
58.7200 39.1164 0.1007
58.7400 39.1297 0.0946
58.7600 39.1430 0.0910
58.7800 39.1563 0.1014
58.8000 39.1697 0.0986
58.8200 39.1830 0.0908
58.8400 39.1964 0.1043
58.8600 39.2097 0.0982
58.8800 39.2231 0.0903
58.9000 39.2365 0.1020
58.9200 39.2498 0.0981
58.9400 39.2631 0.0892
58.9600 39.2764 0.1096
58.9800 39.2898 0.0944
59.0000 39.3031 0.0914
59.0200 39.3164 0.1068
59.0400 39.3297 0.0948
59.0600 39.3430 0.0925
59.0800 39.3564 0.1046
59.1000 39.3697 0.0929
59.1200 39.3830 0.0975
59.1400 39.3964 0.1055
59.1600 39.4097 0.0914
59.1800 39.4230 0.0975
59.2000 39.4364 0.0980
59.2200 39.4497 0.0979
59.2400 39.4630 0.1021
59.2600 39.4764 0.0959
59.2800 39.4897 0.0897
59.3000 39.5031 0.1046
59.3200 39.5164 0.0925
59.3400 39.5298 0.0964
59.3600 39.5431 0.1071
59.3800 39.5564 0.0936
59.4000 39.5697 0.0934
59.4200 39.5830 0.1067
59.4400 39.5964 0.0954
59.4600 39.6097 0.0930
59.4800 39.6230 0.1062
59.5000 39.6363 0.0958
59.5200 39.6497 0.0913
59.5400 39.6630 0.1049
59.5600 39.6764 0.0965
59.5800 39.6897 0.0933
59.6000 39.7031 0.1038
59.6200 39.7165 0.0932
59.6400 39.7298 0.0980
59.6600 39.7431 0.1009
59.6800 39.7564 0.0975
59.7000 39.7698 0.0945
59.7200 39.7831 0.1009
59.7400 39.7964 0.0947
59.7600 39.8097 0.0979
59.7800 39.8230 0.1027
59.8000 39.8364 0.0936
59.8200 39.8497 0.0961
59.8400 39.8630 0.1007
59.8600 39.8763 0.0979
59.8800 39.8897 0.0951
59.9000 39.9030 0.0942
59.9200 39.9163 0.0989
59.9400 39.9297 0.0959
59.9600 39.9431 0.0941
59.9800 39.9565 0.0967
60.0000 39.9698 0.0938
60.0200 39.9831 0.0933
60.0400 39.9964 0.0954
60.0460 40.0003 0.0828
