Raw Data
Time Displacement Force
(s) (mm) (N)
0.0000 0.0000 -0.0001
0.0200 0.0001 0.0163
0.0400 0.0021 0.0797
0.0600 0.0097 0.0713
0.0800 0.0216 -0.0022
0.1000 0.0341 -0.0069
0.1200 0.0467 0.0276
0.1400 0.0601 0.0108
0.1600 0.0741 0.0040
0.1800 0.0884 0.0110
0.2000 0.1023 -0.0003
0.2200 0.1159 0.0000
0.2400 0.1293 0.0099
0.2600 0.1426 0.0102
0.2800 0.1559 0.0055
0.3000 0.1693 0.0077
0.3200 0.1826 0.0055
0.3400 0.1960 0.0093
0.3600 0.2093 -0.0014
0.3800 0.2227 0.0093
0.4000 0.2360 0.0038
0.4200 0.2493 0.0010
0.4400 0.2626 0.0108
0.4600 0.2759 0.0056
0.4800 0.2893 -0.0015
0.5000 0.3026 0.0091
0.5200 0.3160 0.0065
0.5400 0.3293 0.0028
0.5600 0.3426 0.0078
0.5800 0.3560 0.0093
0.6000 0.3693 -0.0049
0.6200 0.3827 0.0123
0.6400 0.3960 0.0115
0.6600 0.4094 -0.0046
0.6800 0.4227 0.0143
0.7000 0.4360 0.0083
0.7200 0.4494 -0.0014
0.7400 0.4627 0.0106
0.7600 0.4760 0.0107
0.7800 0.4894 -0.0002
0.8000 0.5027 0.0144
0.8200 0.5160 0.0108
0.8400 0.5293 -0.0014
0.8600 0.5427 0.0119
0.8800 0.5560 0.0086
0.9000 0.5692 0.0026
0.9200 0.5825 0.0151
0.9400 0.5959 0.0062
0.9600 0.6093 0.0016
0.9800 0.6226 0.0088
1.0000 0.6359 0.0156
1.0200 0.6493 -0.0018
1.0400 0.6627 0.0093
1.0600 0.6760 0.0137
1.0800 0.6893 0.0046
1.1000 0.7027 0.0085
1.1200 0.7160 0.0096
1.1400 0.7293 0.0031
1.1600 0.7426 0.0145
1.1800 0.7560 0.0123
1.2000 0.7693 0.0046
1.2200 0.7827 0.0141
1.2400 0.7960 0.0090
1.2600 0.8093 0.0034
1.2800 0.8226 0.0110
1.3000 0.8359 0.0120
1.3200 0.8493 -0.0016
1.3400 0.8626 0.0137
1.3600 0.8759 0.0098
1.3800 0.8893 0.0025
1.4000 0.9027 0.0132
1.4200 0.9160 0.0134
1.4400 0.9293 0.0057
1.4600 0.9427 0.0139
1.4800 0.9560 0.0116
1.5000 0.9694 0.0040
1.5200 0.9827 0.0150
1.5400 0.9960 0.0124
1.5600 1.0093 0.0017
1.5800 1.0226 0.0156
1.6000 1.0359 0.0085
1.6200 1.0492 0.0060
1.6400 1.0626 0.0148
1.6600 1.0759 0.0088
1.6800 1.0893 0.0101
1.7000 1.1026 0.0155
1.7200 1.1160 0.0103
1.7400 1.1294 0.0102
1.7600 1.1427 0.0172
1.7800 1.1561 0.0104
1.8000 1.1694 0.0113
1.8200 1.1827 0.0150
1.8400 1.1960 0.0120
1.8600 1.2094 0.0091
1.8800 1.2227 0.0172
1.9000 1.2360 0.0098
1.9200 1.2493 0.0137
1.9400 1.2627 0.0124
1.9600 1.2760 0.0160
1.9800 1.2893 0.0081
2.0000 1.3026 0.0149
2.0200 1.3159 0.0157
2.0400 1.3293 0.0156
2.0600 1.3426 0.0084
2.0800 1.3560 0.0141
2.1000 1.3693 0.0120
2.1200 1.3827 0.0093
2.1400 1.3960 0.0154
2.1600 1.4094 0.0147
2.1800 1.4227 0.0092
2.2000 1.4360 0.0095
2.2200 1.4494 0.0166
2.2400 1.4626 0.0074
2.2600 1.4759 0.0161
2.2800 1.4893 0.0145
2.3000 1.5026 0.0038
2.3200 1.5159 0.0115
2.3400 1.5293 0.0142
2.3600 1.5426 0.0069
2.3800 1.5560 0.0217
2.4000 1.5694 0.0108
2.4200 1.5827 0.0068
2.4400 1.5960 0.0146
2.4600 1.6093 0.0102
2.4800 1.6227 0.0081
2.5000 1.6359 0.0186
2.5200 1.6492 0.0041
2.5400 1.6626 0.0090
2.5600 1.6760 0.0174
2.5800 1.6894 0.0040
2.6000 1.7027 0.0127
2.6200 1.7160 0.0149
2.6400 1.7293 0.0079
2.6600 1.7427 0.0106
2.6800 1.7560 0.0117
2.7000 1.7693 0.0073
2.7200 1.7826 0.0162
2.7400 1.7960 0.0094
2.7600 1.8093 0.0094
2.7800 1.8226 0.0152
2.8000 1.8359 0.0120
2.8200 1.8493 0.0107
2.8400 1.8627 0.0159
2.8600 1.8760 0.0066
2.8800 1.8893 0.0122
2.9000 1.9027 0.0152
2.9200 1.9160 0.0106
2.9400 1.9294 0.0124
2.9600 1.9427 0.0187
2.9800 1.9560 0.0060
3.0000 1.9693 0.0169
3.0200 1.9827 0.0193
3.0400 1.9960 0.0076
3.0600 2.0093 0.0166
3.0800 2.0226 0.0199
3.1000 2.0359 0.0095
3.1200 2.0493 0.0150
3.1400 2.0626 0.0165
3.1600 2.0760 0.0099
3.1800 2.0893 0.0196
3.2000 2.1027 0.0162
3.2200 2.1161 0.0099
3.2400 2.1294 0.0178
3.2600 2.1427 0.0197
3.2800 2.1561 0.0047
3.3000 2.1694 0.0175
3.3200 2.1827 0.0188
3.3400 2.1960 0.0070
3.3600 2.2093 0.0181
3.3800 2.2226 0.0211
3.4000 2.2360 -0.0003
3.4200 2.2493 0.0228
3.4400 2.2626 0.0205
3.4600 2.2759 0.0059
3.4800 2.2893 0.0193
3.5000 2.3027 0.0153
3.5200 2.3160 0.0013
3.5400 2.3293 0.0247
3.5600 2.3427 0.0130
3.5800 2.3560 0.0018
3.6000 2.3694 0.0242
3.6200 2.3827 0.0084
3.6400 2.3960 0.0047
3.6600 2.4094 0.0199
3.6800 2.4227 0.0130
3.7000 2.4360 0.0069
3.7200 2.4493 0.0234
3.7400 2.4627 0.0092
3.7600 2.4760 0.0131
3.7800 2.4893 0.0228
3.8000 2.5026 0.0089
3.8200 2.5159 0.0091
3.8400 2.5293 0.0245
3.8600 2.5426 0.0076
3.8800 2.5559 0.0082
3.9000 2.5693 0.0235
3.9200 2.5827 0.0107
3.9400 2.5961 0.0034
3.9600 2.6094 0.0212
3.9800 2.6227 0.0125
4.0000 2.6360 0.0073
4.0200 2.6494 0.0208
4.0400 2.6627 0.0128
4.0600 2.6760 0.0114
4.0800 2.6893 0.0232
4.1000 2.7027 0.0115
4.1200 2.7160 0.0095
4.1400 2.7293 0.0258
4.1600 2.7426 0.0108
4.1800 2.7559 0.0128
4.2000 2.7693 0.0239
4.2200 2.7826 0.0098
4.2400 2.7959 0.0113
4.2600 2.8093 0.0231
4.2800 2.8227 0.0079
4.3000 2.8360 0.0149
4.3200 2.8493 0.0194
4.3400 2.8627 0.0121
4.3600 2.8760 0.0138
4.3800 2.8894 0.0202
4.4000 2.9027 0.0115
4.4200 2.9160 0.0147
4.4400 2.9293 0.0203
4.4600 2.9426 0.0130
4.4800 2.9560 0.0115
4.5000 2.9693 0.0191
4.5200 2.9826 0.0197
4.5400 2.9960 0.0096
4.5600 3.0093 0.0193
4.5800 3.0226 0.0220
4.6000 3.0360 0.0081
4.6200 3.0493 0.0210
4.6400 3.0627 0.0230
4.6600 3.0760 0.0055
4.6800 3.0893 0.0238
4.7000 3.1026 0.0187
4.7200 3.1160 0.0071
4.7400 3.1294 0.0198
4.7600 3.1427 0.0222
4.7800 3.1560 0.0048
4.8000 3.1694 0.0247
4.8200 3.1827 0.0207
4.8400 3.1960 0.0078
4.8600 3.2093 0.0239
4.8800 3.2226 0.0213
4.9000 3.2359 0.0036
4.9200 3.2492 0.0254
4.9400 3.2626 0.0145
4.9600 3.2759 0.0107
4.9800 3.2893 0.0205
5.0000 3.3027 0.0107
5.0200 3.3161 0.0097
5.0400 3.3294 0.0200
5.0600 3.3427 0.0095
5.0800 3.3561 0.0125
5.1000 3.3694 0.0212
5.1200 3.3827 0.0134
5.1400 3.3960 0.0126
5.1600 3.4093 0.0208
5.1800 3.4226 0.0169
5.2000 3.4360 0.0100
5.2200 3.4493 0.0190
5.2400 3.4626 0.0139
5.2600 3.4759 0.0122
5.2800 3.4893 0.0162
5.3000 3.5026 0.0209
5.3200 3.5159 0.0068
5.3400 3.5293 0.0142
5.3600 3.5427 0.0138
5.3800 3.5560 0.0082
5.4000 3.5694 0.0147
5.4200 3.5827 0.0245
5.4400 3.5960 0.0045
5.4600 3.6094 0.0110
5.4800 3.6227 0.0256
5.5000 3.6360 0.0091
5.5200 3.6493 0.0173
5.5400 3.6626 0.0207
5.5600 3.6760 0.0053
5.5800 3.6893 0.0171
5.6000 3.7026 0.0229
5.6200 3.7159 0.0085
5.6400 3.7293 0.0174
5.6600 3.7426 0.0192
5.6800 3.7560 0.0059
5.7000 3.7693 0.0178
5.7200 3.7827 0.0249
5.7400 3.7960 0.0065
5.7600 3.8094 0.0219
5.7800 3.8227 0.0212
5.8000 3.8360 0.0095
5.8200 3.8494 0.0217
5.8400 3.8627 0.0226
5.8600 3.8760 0.0068
5.8800 3.8893 0.0217
5.9000 3.9027 0.0191
5.9200 3.9160 0.0160
5.9400 3.9293 0.0221
5.9600 3.9426 0.0197
5.9800 3.9559 0.0132
6.0000 3.9693 0.0190
6.0200 3.9826 0.0188
6.0400 3.9960 0.0151
6.0600 4.0093 0.0198
6.0800 4.0227 0.0142
6.1000 4.0361 0.0148
6.1200 4.0494 0.0172
6.1400 4.0627 0.0202
6.1600 4.0760 0.0214
6.1800 4.0894 0.0166
6.2000 4.1027 0.0151
6.2200 4.1160 0.0195
6.2400 4.1293 0.0179
6.2600 4.1426 0.0169
6.2800 4.1560 0.0091
6.3000 4.1693 0.0160
6.3200 4.1826 0.0186
6.3400 4.1959 0.0170
6.3600 4.2093 0.0114
6.3800 4.2226 0.0185
6.4000 4.2359 0.0086
6.4200 4.2493 0.0099
6.4400 4.2626 0.0241
6.4600 4.2760 0.0074
6.4800 4.2894 0.0141
6.5000 4.3027 0.0215
6.5200 4.3160 0.0040
6.5400 4.3294 0.0153
6.5600 4.3427 0.0221
6.5800 4.3560 0.0070
6.6000 4.3693 0.0164
6.6200 4.3826 0.0223
6.6400 4.3960 0.0087
6.6600 4.4093 0.0165
6.6800 4.4226 0.0247
6.7000 4.4359 0.0055
6.7200 4.4493 0.0201
6.7400 4.4626 0.0179
6.7600 4.4759 0.0088
6.7800 4.4893 0.0185
6.8000 4.5026 0.0215
6.8200 4.5160 0.0082
6.8400 4.5293 0.0201
6.8600 4.5427 0.0164
6.8800 4.5560 0.0115
6.9000 4.5693 0.0213
6.9200 4.5827 0.0152
6.9400 4.5960 0.0110
6.9600 4.6093 0.0228
6.9800 4.6226 0.0182
7.0000 4.6360 0.0185
7.0200 4.6493 0.0191
7.0400 4.6626 0.0135
7.0600 4.6759 0.0192
7.0800 4.6892 0.0197
7.1000 4.7026 0.0142
7.1200 4.7159 0.0224
7.1400 4.7293 0.0179
7.1600 4.7427 0.0088
7.1800 4.7561 0.0241
7.2000 4.7694 0.0202
7.2200 4.7827 0.0154
7.2400 4.7961 0.0241
7.2600 4.8094 0.0178
7.2800 4.8227 0.0151
7.3000 4.8360 0.0222
7.3200 4.8493 0.0154
7.3400 4.8626 0.0198
7.3600 4.8759 0.0191
7.3800 4.8893 0.0157
7.4000 4.9026 0.0183
7.4200 4.9160 0.0235
7.4400 4.9293 0.0152
7.4600 4.9427 0.0162
7.4800 4.9560 0.0239
7.5000 4.9693 0.0184
7.5200 4.9827 0.0196
7.5400 4.9961 0.0202
7.5600 5.0094 0.0171
7.5800 5.0227 0.0183
7.6000 5.0360 0.0239
7.6200 5.0494 0.0196
7.6400 5.0627 0.0175
7.6600 5.0760 0.0215
7.6800 5.0893 0.0255
7.7000 5.1026 0.0126
7.7200 5.1160 0.0233
7.7400 5.1293 0.0205
7.7600 5.1426 0.0171
7.7800 5.1559 0.0215
7.8000 5.1693 0.0213
7.8200 5.1826 0.0189
7.8400 5.1960 0.0246
7.8600 5.2093 0.0210
7.8800 5.2227 0.0200
7.9000 5.2360 0.0238
7.9200 5.2494 0.0166
7.9400 5.2627 0.0199
7.9600 5.2760 0.0213
7.9800 5.2894 0.0147
8.0000 5.3027 0.0195
8.0200 5.3160 0.0254
8.0400 5.3293 0.0175
8.0600 5.3426 0.0273
8.0800 5.3560 0.0191
8.1000 5.3693 0.0185
8.1200 5.3826 0.0226
8.1400 5.3959 0.0256
8.1600 5.4093 0.0166
8.1800 5.4226 0.0237
8.2000 5.4360 0.0215
8.2200 5.4493 0.0172
8.2400 5.4626 0.0252
8.2600 5.4760 0.0258
8.2800 5.4894 0.0185
8.3000 5.5027 0.0194
8.3200 5.5160 0.0251
8.3400 5.5294 0.0239
8.3600 5.5427 0.0186
8.3800 5.5560 0.0247
8.4000 5.5693 0.0227
8.4200 5.5826 0.0158
8.4400 5.5960 0.0259
8.4600 5.6093 0.0214
8.4800 5.6226 0.0166
8.5000 5.6359 0.0290
8.5200 5.6493 0.0193
8.5400 5.6626 0.0182
8.5600 5.6760 0.0312
8.5800 5.6893 0.0186
8.6000 5.7026 0.0167
8.6200 5.7160 0.0303
8.6400 5.7294 0.0147
8.6600 5.7427 0.0139
8.6800 5.7560 0.0342
8.7000 5.7693 0.0136
8.7200 5.7827 0.0139
8.7400 5.7960 0.0318
8.7600 5.8093 0.0186
8.7800 5.8226 0.0177
8.8000 5.8360 0.0297
8.8200 5.8493 0.0093
8.8400 5.8626 0.0179
8.8600 5.8759 0.0262
8.8800 5.8892 0.0108
8.9000 5.9026 0.0183
8.9200 5.9160 0.0224
8.9400 5.9293 0.0144
8.9600 5.9427 0.0190
8.9800 5.9561 0.0252
9.0000 5.9694 0.0132
9.0200 5.9827 0.0150
9.0400 5.9960 0.0194
9.0600 6.0093 0.0182
9.0800 6.0227 0.0162
9.1000 6.0360 0.0278
9.1200 6.0493 0.0129
9.1400 6.0626 0.0163
9.1600 6.0759 0.0260
9.1800 6.0893 0.0137
9.2000 6.1026 0.0119
9.2200 6.1159 0.0246
9.2400 6.1292 0.0141
9.2600 6.1426 0.0134
9.2800 6.1559 0.0249
9.3000 6.1693 0.0155
9.3200 6.1826 0.0155
9.3400 6.1960 0.0254
9.3600 6.2094 0.0149
9.3800 6.2227 0.0149
9.4000 6.2360 0.0205
9.4200 6.2494 0.0100
9.4400 6.2627 0.0160
9.4600 6.2760 0.0216
9.4800 6.2893 0.0137
9.5000 6.3026 0.0147
9.5200 6.3159 0.0217
9.5400 6.3293 0.0144
9.5600 6.3426 0.0142
9.5800 6.3559 0.0208
9.6000 6.3693 0.0169
9.6200 6.3827 0.0073
9.6400 6.3960 0.0228
9.6600 6.4093 0.0117
9.6800 6.4227 0.0128
9.7000 6.4360 0.0203
9.7200 6.4494 0.0143
9.7400 6.4627 0.0115
9.7600 6.4760 0.0211
9.7800 6.4893 0.0131
9.8000 6.5027 0.0164
9.8200 6.5160 0.0227
9.8400 6.5293 0.0101
9.8600 6.5427 0.0178
9.8800 6.5560 0.0205
9.9000 6.5694 0.0089
9.9200 6.5827 0.0166
9.9400 6.5960 0.0232
9.9600 6.6093 0.0106
9.9800 6.6226 0.0147
10.0000 6.6360 0.0188
10.0200 6.6493 0.0113
10.0400 6.6626 0.0162
10.0600 6.6760 0.0209
10.0800 6.6894 0.0097
10.1000 6.7027 0.0127
10.1200 6.7160 0.0209
10.1400 6.7293 0.0171
10.1600 6.7427 0.0077
10.1800 6.7560 0.0209
10.2000 6.7693 0.0187
10.2200 6.7827 0.0142
10.2400 6.7960 0.0170
10.2600 6.8093 0.0216
10.2800 6.8227 0.0096
10.3000 6.8360 0.0203
10.3200 6.8493 0.0206
10.3400 6.8626 0.0069
10.3600 6.8760 0.0206
10.3800 6.8893 0.0212
10.4000 6.9026 0.0110
10.4200 6.9160 0.0230
10.4400 6.9294 0.0159
10.4600 6.9427 0.0076
10.4800 6.9560 0.0263
10.5000 6.9694 0.0129
10.5200 6.9827 0.0120
10.5400 6.9960 0.0241
10.5600 7.0093 0.0169
10.5800 7.0226 0.0125
10.6000 7.0359 0.0258
10.6200 7.0493 0.0139
10.6400 7.0626 0.0149
10.6600 7.0759 0.0184
10.6800 7.0893 0.0146
10.7000 7.1026 0.0159
10.7200 7.1160 0.0193
10.7400 7.1293 0.0172
10.7600 7.1426 0.0198
10.7800 7.1560 0.0112
10.8000 7.1693 0.0200
10.8200 7.1827 0.0195
10.8400 7.1960 0.0128
10.8600 7.2093 0.0180
10.8800 7.2227 0.0189
10.9000 7.2361 0.0101
10.9200 7.2494 0.0198
10.9400 7.2627 0.0214
10.9600 7.2760 0.0119
10.9800 7.2893 0.0254
11.0000 7.3026 0.0143
11.0200 7.3159 0.0166
11.0400 7.3292 0.0197
11.0600 7.3426 0.0156
11.0800 7.3559 0.0155
11.1000 7.3693 0.0206
11.1200 7.3826 0.0148
11.1400 7.3960 0.0138
11.1600 7.4094 0.0186
11.1800 7.4227 0.0126
11.2000 7.4360 0.0159
11.2200 7.4493 0.0222
11.2400 7.4627 0.0121
11.2600 7.4760 0.0157
11.2800 7.4894 0.0155
11.3000 7.5027 0.0149
11.3200 7.5160 0.0189
11.3400 7.5293 0.0159
11.3600 7.5427 0.0127
11.3800 7.5560 0.0180
11.4000 7.5693 0.0187
11.4200 7.5826 0.0158
11.4400 7.5960 0.0198
11.4600 7.6093 0.0147
11.4800 7.6226 0.0160
11.5000 7.6360 0.0193
11.5200 7.6494 0.0121
11.5400 7.6627 0.0146
11.5600 7.6760 0.0221
11.5800 7.6893 0.0126
11.6000 7.7027 0.0164
11.6200 7.7161 0.0188
11.6400 7.7294 0.0152
11.6600 7.7426 0.0157
11.6800 7.7559 0.0219
11.7000 7.7693 0.0166
11.7200 7.7826 0.0170
11.7400 7.7959 0.0190
11.7600 7.8093 0.0220
11.7800 7.8226 0.0174
11.8000 7.8360 0.0152
11.8200 7.8493 0.0208
11.8400 7.8626 0.0156
11.8600 7.8760 0.0171
11.8800 7.8893 0.0151
11.9000 7.9027 0.0213
11.9200 7.9160 0.0149
11.9400 7.9293 0.0179
11.9600 7.9427 0.0195
11.9800 7.9560 0.0148
12.0000 7.9694 0.0163
12.0200 7.9827 0.0194
12.0400 7.9960 0.0136
12.0600 8.0094 0.0158
12.0800 8.0227 0.0186
12.1000 8.0360 0.0147
12.1200 8.0492 0.0161
12.1400 8.0625 0.0254
12.1600 8.0759 0.0099
12.1800 8.0892 0.0195
12.2000 8.1026 0.0176
12.2200 8.1160 0.0081
12.2400 8.1294 0.0160
12.2600 8.1428 0.0188
12.2800 8.1561 0.0095
12.3000 8.1694 0.0152
12.3200 8.1827 0.0181
12.3400 8.1961 0.0083
12.3600 8.2094 0.0157
12.3800 8.2227 0.0206
12.4000 8.2360 0.0118
12.4200 8.2493 0.0126
12.4400 8.2626 0.0206
12.4600 8.2759 0.0094
12.4800 8.2892 0.0171
12.5000 8.3026 0.0205
12.5200 8.3159 0.0104
12.5400 8.3293 0.0157
12.5600 8.3426 0.0223
12.5800 8.3560 0.0086
12.6000 8.3694 0.0161
12.6200 8.3827 0.0228
12.6400 8.3961 0.0128
12.6600 8.4094 0.0132
12.6800 8.4227 0.0244
12.7000 8.4360 0.0140
12.7200 8.4493 0.0166
12.7400 8.4626 0.0239
12.7600 8.4759 0.0116
12.7800 8.4893 0.0241
12.8000 8.5026 0.0245
12.8200 8.5159 0.0090
12.8400 8.5292 0.0250
12.8600 8.5426 0.0267
12.8800 8.5560 0.0097
12.9000 8.5693 0.0235
12.9200 8.5826 0.0275
12.9400 8.5960 0.0163
12.9600 8.6094 0.0240
12.9800 8.6227 0.0257
13.0000 8.6360 0.0136
13.0200 8.6493 0.0348
13.0400 8.6627 0.0234
13.0600 8.6760 0.0137
13.0800 8.6894 0.0349
13.1000 8.7027 0.0285
13.1200 8.7160 0.0099
13.1400 8.7293 0.0296
13.1600 8.7427 0.0280
13.1800 8.7559 0.0148
13.2000 8.7692 0.0270
13.2200 8.7826 0.0276
13.2400 8.7960 0.0180
13.2600 8.8093 0.0210
13.2800 8.8227 0.0280
13.3000 8.8360 0.0207
13.3200 8.8494 0.0238
13.3400 8.8627 0.0227
13.3600 8.8761 0.0164
13.3800 8.8894 0.0200
13.4000 8.9027 0.0259
13.4200 8.9160 0.0160
13.4400 8.9293 0.0229
13.4600 8.9426 0.0251
13.4800 8.9559 0.0166
13.5000 8.9693 0.0202
13.5200 8.9827 0.0252
13.5400 8.9960 0.0168
13.5600 9.0093 0.0224
13.5800 9.0226 0.0252
13.6000 9.0359 0.0140
13.6200 9.0493 0.0212
13.6400 9.0626 0.0253
13.6600 9.0759 0.0130
13.6800 9.0893 0.0253
13.7000 9.1027 0.0184
13.7200 9.1160 0.0133
13.7400 9.1293 0.0249
13.7600 9.1427 0.0229
13.7800 9.1561 0.0163
13.8000 9.1694 0.0164
13.8200 9.1827 0.0212
13.8400 9.1960 0.0159
13.8600 9.2093 0.0186
13.8800 9.2226 0.0201
13.9000 9.2360 0.0173
13.9200 9.2493 0.0174
13.9400 9.2626 0.0193
13.9600 9.2760 0.0153
13.9800 9.2893 0.0172
14.0000 9.3026 0.0170
14.0200 9.3160 0.0166
14.0400 9.3293 0.0122
14.0600 9.3427 0.0189
14.0800 9.3560 0.0145
14.1000 9.3693 0.0080
14.1200 9.3827 0.0188
14.1400 9.3960 0.0146
14.1600 9.4094 0.0069
14.1800 9.4227 0.0225
14.2000 9.4360 0.0135
14.2200 9.4493 0.0102
14.2400 9.4627 0.0201
14.2600 9.4760 0.0121
14.2800 9.4892 0.0086
14.3000 9.5026 0.0249
14.3200 9.5159 0.0114
14.3400 9.5293 0.0091
14.3600 9.5426 0.0250
14.3800 9.5560 0.0044
14.4000 9.5693 0.0098
14.4200 9.5827 0.0245
14.4400 9.5961 0.0038
14.4600 9.6094 0.0107
14.4800 9.6227 0.0291
14.5000 9.6360 0.0028
14.5200 9.6493 0.0157
14.5400 9.6626 0.0259
14.5600 9.6759 0.0055
14.5800 9.6892 0.0186
14.6000 9.7026 0.0247
14.6200 9.7159 0.0027
14.6400 9.7293 0.0230
14.6600 9.7426 0.0233
14.6800 9.7560 0.0037
14.7000 9.7693 0.0204
14.7200 9.7827 0.0245
14.7400 9.7960 0.0071
14.7600 9.8094 0.0211
14.7800 9.8227 0.0224
14.8000 9.8361 0.0056
14.8200 9.8493 0.0246
14.8400 9.8627 0.0178
14.8600 9.8760 0.0099
14.8800 9.8893 0.0181
14.9000 9.9026 0.0222
14.9200 9.9160 0.0138
14.9400 9.9293 0.0239
14.9600 9.9426 0.0207
14.9800 9.9560 0.0183
15.0000 9.9693 0.0215
15.0200 9.9826 0.0210
15.0400 9.9959 0.0213
15.0600 10.0093 0.0194
15.0800 10.0226 0.0197
15.1000 10.0360 0.0225
15.1200 10.0493 0.0167
15.1400 10.0627 0.0249
15.1600 10.0760 0.0199
15.1800 10.0893 0.0204
15.2000 10.1027 0.0228
15.2200 10.1160 0.0220
15.2400 10.1294 0.0164
15.2600 10.1427 0.0266
15.2800 10.1560 0.0219
15.3000 10.1693 0.0209
15.3200 10.1827 0.0264
15.3400 10.1960 0.0148
15.3600 10.2093 0.0232
15.3800 10.2226 0.0293
15.4000 10.2359 0.0170
15.4200 10.2493 0.0208
15.4400 10.2626 0.0282
15.4600 10.2760 0.0151
15.4800 10.2893 0.0274
15.5000 10.3027 0.0246
15.5200 10.3161 0.0161
15.5400 10.3294 0.0264
15.5600 10.3427 0.0272
15.5800 10.3561 0.0127
15.6000 10.3694 0.0289
15.6200 10.3827 0.0231
15.6400 10.3960 0.0183
15.6600 10.4093 0.0288
15.6800 10.4226 0.0175
15.7000 10.4360 0.0117
15.7200 10.4493 0.0332
15.7400 10.4626 0.0199
15.7600 10.4759 0.0149
15.7800 10.4893 0.0319
15.8000 10.5026 0.0153
15.8200 10.5159 0.0161
15.8400 10.5293 0.0312
15.8600 10.5427 0.0164
15.8800 10.5560 0.0139
15.9000 10.5693 0.0315
15.9200 10.5827 0.0137
15.9400 10.5960 0.0208
15.9600 10.6094 0.0305
15.9800 10.6227 0.0122
16.0000 10.6360 0.0252
16.0200 10.6493 0.0315
16.0400 10.6626 0.0097
16.0600 10.6760 0.0300
16.0800 10.6893 0.0312
16.1000 10.7026 0.0126
16.1200 10.7159 0.0257
16.1400 10.7293 0.0286
16.1600 10.7426 0.0127
16.1800 10.7560 0.0346
16.2000 10.7693 0.0254
16.2200 10.7827 0.0178
16.2400 10.7961 0.0328
16.2600 10.8094 0.0276
16.2800 10.8227 0.0190
16.3000 10.8360 0.0327
16.3200 10.8494 0.0273
16.3400 10.8627 0.0164
16.3600 10.8760 0.0338
16.3800 10.8893 0.0217
16.4000 10.9027 0.0168
16.4200 10.9160 0.0324
16.4400 10.9293 0.0296
16.4600 10.9426 0.0169
16.4800 10.9559 0.0352
16.5000 10.9693 0.0301
16.5200 10.9826 0.0184
16.5400 10.9960 0.0308
16.5600 11.0093 0.0319
16.5800 11.0227 0.0117
16.6000 11.0360 0.0314
16.6200 11.0494 0.0321
16.6400 11.0627 0.0128
16.6600 11.0760 0.0288
16.6800 11.0894 0.0292
16.7000 11.1027 0.0129
16.7200 11.1159 0.0367
16.7400 11.1293 0.0282
16.7600 11.1426 0.0161
16.7800 11.1560 0.0344
16.8000 11.1693 0.0255
16.8200 11.1826 0.0180
16.8400 11.1960 0.0313
16.8600 11.2093 0.0272
16.8800 11.2227 0.0149
16.9000 11.2360 0.0325
16.9200 11.2493 0.0248
16.9400 11.2627 0.0188
16.9600 11.2760 0.0284
16.9800 11.2893 0.0250
17.0000 11.3026 0.0183
17.0200 11.3160 0.0306
17.0400 11.3294 0.0223
17.0600 11.3427 0.0192
17.0800 11.3560 0.0259
17.1000 11.3693 0.0303
17.1200 11.3827 0.0155
17.1400 11.3960 0.0241
17.1600 11.4093 0.0323
17.1800 11.4226 0.0184
17.2000 11.4359 0.0215
17.2200 11.4493 0.0307
17.2400 11.4626 0.0171
17.2600 11.4759 0.0220
17.2800 11.4893 0.0339
17.3000 11.5027 0.0168
17.3200 11.5160 0.0219
17.3400 11.5293 0.0268
17.3600 11.5426 0.0183
17.3800 11.5560 0.0204
17.4000 11.5694 0.0279
17.4200 11.5827 0.0130
17.4400 11.5960 0.0281
17.4600 11.6093 0.0281
17.4800 11.6227 0.0141
17.5000 11.6360 0.0256
17.5200 11.6493 0.0275
17.5400 11.6626 0.0115
17.5600 11.6759 0.0270
17.5800 11.6893 0.0265
17.6000 11.7026 0.0183
17.6200 11.7159 0.0247
17.6400 11.7293 0.0234
17.6600 11.7427 0.0190
17.6800 11.7560 0.0216
17.7000 11.7694 0.0232
17.7200 11.7827 0.0179
17.7400 11.7960 0.0233
17.7600 11.8094 0.0232
17.7800 11.8227 0.0204
17.8000 11.8360 0.0241
17.8200 11.8493 0.0274
17.8400 11.8626 0.0197
17.8600 11.8760 0.0258
17.8800 11.8893 0.0248
17.9000 11.9026 0.0247
17.9200 11.9160 0.0230
17.9400 11.9293 0.0210
17.9600 11.9427 0.0200
17.9800 11.9560 0.0261
18.0000 11.9693 0.0212
18.0200 11.9827 0.0280
18.0400 11.9960 0.0215
18.0600 12.0093 0.0221
18.0800 12.0227 0.0261
18.1000 12.0360 0.0211
18.1200 12.0494 0.0238
18.1400 12.0627 0.0234
18.1600 12.0760 0.0172
18.1800 12.0893 0.0257
18.2000 12.1027 0.0275
18.2200 12.1160 0.0208
18.2400 12.1293 0.0263
18.2600 12.1426 0.0237
18.2800 12.1559 0.0222
18.3000 12.1693 0.0276
18.3200 12.1826 0.0245
18.3400 12.1960 0.0193
18.3600 12.2093 0.0304
18.3800 12.2227 0.0187
18.4000 12.2361 0.0204
18.4200 12.2494 0.0294
18.4400 12.2627 0.0209
18.4600 12.2760 0.0210
18.4800 12.2894 0.0315
18.5000 12.3027 0.0187
18.5200 12.3160 0.0239
18.5400 12.3293 0.0312
18.5600 12.3426 0.0229
18.5800 12.3560 0.0203
18.6000 12.3693 0.0333
18.6200 12.3826 0.0175
18.6400 12.3960 0.0197
18.6600 12.4093 0.0337
18.6800 12.4226 0.0175
18.7000 12.4359 0.0235
18.7200 12.4493 0.0316
18.7400 12.4627 0.0183
18.7600 12.4760 0.0243
18.7800 12.4894 0.0338
18.8000 12.5027 0.0166
18.8200 12.5160 0.0285
18.8400 12.5294 0.0286
18.8600 12.5427 0.0165
18.8800 12.5560 0.0277
18.9000 12.5693 0.0301
18.9200 12.5826 0.0131
18.9400 12.5960 0.0320
18.9600 12.6093 0.0278
18.9800 12.6226 0.0214
19.0000 12.6359 0.0268
19.0200 12.6493 0.0259
19.0400 12.6626 0.0197
19.0600 12.6759 0.0256
19.0800 12.6893 0.0261
19.1000 12.7026 0.0259
19.1200 12.7160 0.0285
19.1400 12.7293 0.0231
19.1600 12.7427 0.0268
19.1800 12.7560 0.0262
19.2000 12.7694 0.0239
19.2200 12.7827 0.0250
19.2400 12.7960 0.0235
19.2600 12.8093 0.0248
19.2800 12.8227 0.0300
19.3000 12.8360 0.0238
19.3200 12.8493 0.0244
19.3400 12.8626 0.0216
19.3600 12.8759 0.0230
19.3800 12.8892 0.0236
19.4000 12.9026 0.0245
19.4200 12.9159 0.0220
19.4400 12.9293 0.0285
19.4600 12.9427 0.0197
19.4800 12.9561 0.0202
19.5000 12.9694 0.0267
19.5200 12.9827 0.0237
19.5400 12.9961 0.0167
19.5600 13.0094 0.0189
19.5800 13.0228 0.0200
19.6000 13.0360 0.0194
19.6200 13.0493 0.0194
19.6400 13.0626 0.0203
19.6600 13.0760 0.0200
19.6800 13.0893 0.0186
19.7000 13.1026 0.0179
19.7200 13.1159 0.0209
19.7400 13.1293 0.0257
19.7600 13.1426 0.0124
19.7800 13.1559 0.0220
19.8000 13.1693 0.0239
19.8200 13.1827 0.0201
19.8400 13.1960 0.0217
19.8600 13.2094 0.0215
19.8800 13.2227 0.0262
19.9000 13.2360 0.0237
19.9200 13.2494 0.0206
19.9400 13.2627 0.0291
19.9600 13.2760 0.0230
19.9800 13.2893 0.0269
20.0000 13.3027 0.0265
20.0200 13.3160 0.0252
20.0400 13.3293 0.0219
20.0600 13.3426 0.0290
20.0800 13.3559 0.0269
20.1000 13.3693 0.0252
20.1200 13.3826 0.0261
20.1400 13.3960 0.0243
20.1600 13.4093 0.0303
20.1800 13.4227 0.0272
20.2000 13.4360 0.0311
20.2200 13.4494 0.0285
20.2400 13.4627 0.0243
20.2600 13.4760 0.0307
20.2800 13.4894 0.0279
20.3000 13.5027 0.0239
20.3200 13.5160 0.0343
20.3400 13.5293 0.0251
20.3600 13.5427 0.0298
20.3800 13.5560 0.0362
20.4000 13.5693 0.0238
20.4200 13.5826 0.0264
20.4400 13.5959 0.0420
20.4600 13.6093 0.0220
20.4800 13.6226 0.0302
20.5000 13.6360 0.0383
20.5200 13.6493 0.0201
20.5400 13.6627 0.0339
20.5600 13.6761 0.0355
20.5800 13.6894 0.0163
20.6000 13.7027 0.0372
20.6200 13.7160 0.0349
20.6400 13.7294 0.0154
20.6600 13.7427 0.0336
20.6800 13.7560 0.0325
20.7000 13.7693 0.0205
20.7200 13.7826 0.0376
20.7400 13.7960 0.0288
20.7600 13.8093 0.0115
20.7800 13.8226 0.0416
20.8000 13.8359 0.0221
20.8200 13.8493 0.0205
20.8400 13.8626 0.0388
20.8600 13.8760 0.0257
20.8800 13.8893 0.0212
20.9000 13.9026 0.0404
20.9200 13.9160 0.0210
20.9400 13.9294 0.0250
20.9600 13.9427 0.0367
20.9800 13.9560 0.0254
21.0000 13.9694 0.0293
21.0200 13.9827 0.0335
21.0400 13.9960 0.0257
21.0600 14.0093 0.0275
21.0800 14.0226 0.0360
21.1000 14.0360 0.0262
21.1200 14.0493 0.0281
21.1400 14.0626 0.0372
21.1600 14.0759 0.0273
21.1800 14.0893 0.0316
21.2000 14.1026 0.0316
21.2200 14.1159 0.0306
21.2400 14.1293 0.0338
21.2600 14.1426 0.0301
21.2800 14.1560 0.0319
21.3000 14.1694 0.0264
21.3200 14.1827 0.0377
21.3400 14.1960 0.0323
21.3600 14.2093 0.0291
21.3800 14.2227 0.0322
21.4000 14.2360 0.0364
21.4200 14.2493 0.0275
21.4400 14.2626 0.0381
21.4600 14.2760 0.0336
21.4800 14.2893 0.0283
21.5000 14.3026 0.0385
21.5200 14.3159 0.0359
21.5400 14.3292 0.0281
21.5600 14.3426 0.0357
21.5800 14.3559 0.0354
21.6000 14.3692 0.0305
21.6200 14.3826 0.0361
21.6400 14.3960 0.0348
21.6600 14.4094 0.0335
21.6800 14.4227 0.0336
21.7000 14.4361 0.0361
21.7200 14.4494 0.0336
21.7400 14.4627 0.0403
21.7600 14.4760 0.0302
21.7800 14.4893 0.0380
21.8000 14.5026 0.0406
21.8200 14.5159 0.0361
21.8400 14.5292 0.0339
21.8600 14.5426 0.0369
21.8800 14.5559 0.0370
21.9000 14.5693 0.0374
21.9200 14.5827 0.0395
21.9400 14.5960 0.0335
21.9600 14.6093 0.0369
21.9800 14.6227 0.0412
22.0000 14.6361 0.0368
22.0200 14.6494 0.0363
22.0400 14.6627 0.0373
22.0600 14.6760 0.0365
22.0800 14.6893 0.0348
22.1000 14.7027 0.0414
22.1200 14.7160 0.0409
22.1400 14.7293 0.0333
22.1600 14.7426 0.0403
22.1800 14.7560 0.0386
22.2000 14.7693 0.0362
22.2200 14.7826 0.0344
22.2400 14.7959 0.0389
22.2600 14.8093 0.0314
22.2800 14.8226 0.0378
22.3000 14.8360 0.0318
22.3200 14.8493 0.0360
22.3400 14.8627 0.0400
22.3600 14.8760 0.0362
22.3800 14.8894 0.0276
22.4000 14.9027 0.0431
22.4200 14.9160 0.0356
22.4400 14.9294 0.0307
22.4600 14.9427 0.0410
22.4800 14.9561 0.0318
22.5000 14.9693 0.0317
22.5200 14.9826 0.0439
22.5400 14.9960 0.0330
22.5600 15.0093 0.0325
22.5800 15.0226 0.0461
22.6000 15.0359 0.0354
22.6200 15.0492 0.0373
22.6400 15.0626 0.0489
22.6600 15.0760 0.0310
22.6800 15.0893 0.0398
22.7000 15.1026 0.0477
22.7200 15.1160 0.0276
22.7400 15.1294 0.0408
22.7600 15.1427 0.0399
22.7800 15.1560 0.0365
22.8000 15.1693 0.0383
22.8200 15.1827 0.0414
22.8400 15.1960 0.0311
22.8600 15.2093 0.0386
22.8800 15.2226 0.0424
22.9000 15.2360 0.0309
22.9200 15.2493 0.0338
22.9400 15.2626 0.0375
22.9600 15.2759 0.0304
22.9800 15.2893 0.0360
23.0000 15.3026 0.0391
23.0200 15.3160 0.0320
23.0400 15.3293 0.0332
23.0600 15.3426 0.0338
23.0800 15.3559 0.0320
23.1000 15.3693 0.0333
23.1200 15.3826 0.0332
23.1400 15.3960 0.0295
23.1600 15.4094 0.0331
23.1800 15.4228 0.0290
23.2000 15.4361 0.0311
23.2200 15.4494 0.0344
23.2400 15.4627 0.0308
23.2600 15.4760 0.0287
23.2800 15.4893 0.0343
23.3000 15.5026 0.0346
23.3200 15.5159 0.0336
23.3400 15.5292 0.0302
23.3600 15.5426 0.0335
23.3800 15.5560 0.0292
23.4000 15.5693 0.0332
23.4200 15.5827 0.0306
23.4400 15.5960 0.0266
23.4600 15.6094 0.0309
23.4800 15.6227 0.0366
23.5000 15.6360 0.0293
23.5200 15.6493 0.0286
23.5400 15.6627 0.0400
23.5600 15.6761 0.0268
23.5800 15.6893 0.0315
23.6000 15.7026 0.0365
23.6200 15.7160 0.0296
23.6400 15.7293 0.0272
23.6600 15.7426 0.0367
23.6800 15.7559 0.0319
23.7000 15.7693 0.0344
23.7200 15.7826 0.0295
23.7400 15.7959 0.0272
23.7600 15.8093 0.0319
23.7800 15.8226 0.0357
23.8000 15.8360 0.0241
23.8200 15.8494 0.0360
23.8400 15.8627 0.0307
23.8600 15.8760 0.0299
23.8800 15.8894 0.0392
23.9000 15.9027 0.0300
23.9200 15.9160 0.0299
23.9400 15.9293 0.0398
23.9600 15.9426 0.0249
23.9800 15.9559 0.0351
24.0000 15.9693 0.0365
24.0200 15.9826 0.0237
24.0400 15.9959 0.0334
24.0600 16.0093 0.0357
24.0800 16.0226 0.0281
24.1000 16.0360 0.0365
24.1200 16.0493 0.0382
24.1400 16.0626 0.0236
24.1600 16.0760 0.0417
24.1800 16.0893 0.0399
24.2000 16.1027 0.0309
24.2200 16.1160 0.0391
24.2400 16.1293 0.0422
24.2600 16.1427 0.0333
24.2800 16.1560 0.0402
24.3000 16.1693 0.0412
24.3200 16.1827 0.0436
24.3400 16.1960 0.0407
24.3600 16.2094 0.0440
24.3800 16.2227 0.0374
24.4000 16.2360 0.0409
24.4200 16.2493 0.0477
24.4400 16.2626 0.0360
24.4600 16.2760 0.0410
24.4800 16.2893 0.0455
24.5000 16.3026 0.0397
24.5200 16.3160 0.0374
24.5400 16.3293 0.0462
24.5600 16.3427 0.0412
24.5800 16.3560 0.0423
24.6000 16.3693 0.0466
24.6200 16.3827 0.0402
24.6400 16.3961 0.0409
24.6600 16.4094 0.0455
24.6800 16.4227 0.0404
24.7000 16.4360 0.0395
24.7200 16.4494 0.0408
24.7400 16.4627 0.0433
24.7600 16.4759 0.0371
24.7800 16.4892 0.0458
24.8000 16.5026 0.0383
24.8200 16.5159 0.0391
24.8400 16.5293 0.0461
24.8600 16.5426 0.0419
24.8800 16.5560 0.0370
24.9000 16.5694 0.0476
24.9200 16.5827 0.0413
24.9400 16.5960 0.0372
24.9600 16.6094 0.0464
24.9800 16.6227 0.0346
25.0000 16.6361 0.0388
25.0200 16.6494 0.0494
25.0400 16.6626 0.0381
25.0600 16.6760 0.0412
25.0800 16.6893 0.0492
25.1000 16.7026 0.0302
25.1200 16.7159 0.0479
25.1400 16.7292 0.0443
25.1600 16.7426 0.0384
25.1800 16.7560 0.0412
25.2000 16.7693 0.0475
25.2200 16.7826 0.0352
25.2400 16.7960 0.0445
25.2600 16.8093 0.0439
25.2800 16.8227 0.0367
25.3000 16.8360 0.0390
25.3200 16.8493 0.0484
25.3400 16.8627 0.0350
25.3600 16.8761 0.0376
25.3800 16.8894 0.0466
25.4000 16.9027 0.0423
25.4200 16.9160 0.0379
25.4400 16.9293 0.0481
25.4600 16.9426 0.0412
25.4800 16.9559 0.0401
25.5000 16.9692 0.0459
25.5200 16.9826 0.0398
25.5400 16.9959 0.0430
25.5600 17.0093 0.0398
25.5800 17.0226 0.0384
25.6000 17.0360 0.0437
25.6200 17.0494 0.0436
25.6400 17.0627 0.0347
25.6600 17.0760 0.0458
25.6800 17.0893 0.0461
25.7000 17.1027 0.0407
25.7200 17.1160 0.0417
25.7400 17.1293 0.0493
25.7600 17.1426 0.0413
25.7800 17.1560 0.0454
25.8000 17.1693 0.0482
25.8200 17.1827 0.0418
25.8400 17.1960 0.0410
25.8600 17.2093 0.0458
25.8800 17.2226 0.0398
25.9000 17.2360 0.0425
25.9200 17.2493 0.0481
25.9400 17.2626 0.0423
25.9600 17.2760 0.0416
25.9800 17.2894 0.0434
26.0000 17.3027 0.0413
26.0200 17.3161 0.0445
26.0400 17.3294 0.0480
26.0600 17.3427 0.0410
26.0800 17.3560 0.0423
26.1000 17.3693 0.0463
26.1200 17.3826 0.0420
26.1400 17.3959 0.0484
26.1600 17.4093 0.0491
26.1800 17.4226 0.0374
26.2000 17.4359 0.0531
26.2200 17.4493 0.0479
26.2400 17.4626 0.0437
26.2600 17.4760 0.0497
26.2800 17.4893 0.0460
26.3000 17.5027 0.0443
26.3200 17.5160 0.0523
26.3400 17.5293 0.0465
26.3600 17.5427 0.0498
26.3800 17.5560 0.0498
26.4000 17.5693 0.0476
26.4200 17.5827 0.0502
26.4400 17.5960 0.0517
26.4600 17.6094 0.0480
26.4800 17.6227 0.0564
26.5000 17.6360 0.0509
26.5200 17.6494 0.0449
26.5400 17.6627 0.0604
26.5600 17.6760 0.0473
26.5800 17.6892 0.0540
26.6000 17.7026 0.0569
26.6200 17.7159 0.0490
26.6400 17.7292 0.0521
26.6600 17.7426 0.0536
26.6800 17.7560 0.0487
26.7000 17.7694 0.0569
26.7200 17.7827 0.0467
26.7400 17.7961 0.0458
26.7600 17.8094 0.0559
26.7800 17.8227 0.0525
26.8000 17.8361 0.0475
26.8200 17.8494 0.0537
26.8400 17.8627 0.0433
26.8600 17.8760 0.0531
26.8800 17.8893 0.0557
26.9000 17.9026 0.0416
26.9200 17.9159 0.0567
26.9400 17.9292 0.0517
26.9600 17.9426 0.0425
26.9800 17.9559 0.0588
27.0000 17.9693 0.0507
27.0200 17.9826 0.0425
27.0400 17.9960 0.0600
27.0600 18.0093 0.0470
27.0800 18.0227 0.0429
27.1000 18.0360 0.0594
27.1200 18.0494 0.0476
27.1400 18.0627 0.0479
27.1600 18.0760 0.0599
27.1800 18.0894 0.0412
27.2000 18.1026 0.0477
27.2200 18.1160 0.0589
27.2400 18.1293 0.0454
27.2600 18.1427 0.0463
27.2800 18.1560 0.0561
27.3000 18.1693 0.0436
27.3200 18.1826 0.0505
27.3400 18.1960 0.0540
27.3600 18.2093 0.0425
27.3800 18.2227 0.0484
27.4000 18.2360 0.0508
27.4200 18.2493 0.0447
27.4400 18.2627 0.0447
27.4600 18.2760 0.0478
27.4800 18.2893 0.0428
27.5000 18.3027 0.0502
27.5200 18.3161 0.0451
27.5400 18.3294 0.0502
27.5600 18.3427 0.0474
27.5800 18.3560 0.0490
27.6000 18.3694 0.0470
27.6200 18.3827 0.0479
27.6400 18.3960 0.0470
27.6600 18.4093 0.0473
27.6800 18.4226 0.0456
27.7000 18.4360 0.0524
27.7200 18.4493 0.0456
27.7400 18.4626 0.0448
27.7600 18.4760 0.0525
27.7800 18.4893 0.0494
27.8000 18.5027 0.0429
27.8200 18.5161 0.0510
27.8400 18.5294 0.0504
27.8600 18.5427 0.0459
27.8800 18.5560 0.0529
27.9000 18.5693 0.0511
27.9200 18.5826 0.0451
27.9400 18.5959 0.0533
27.9600 18.6093 0.0524
27.9800 18.6227 0.0406
28.0000 18.6360 0.0594
28.0200 18.6493 0.0476
28.0400 18.6626 0.0488
28.0600 18.6760 0.0520
28.0800 18.6893 0.0451
28.1000 18.7026 0.0471
28.1200 18.7159 0.0547
28.1400 18.7293 0.0449
28.1600 18.7427 0.0489
28.1800 18.7560 0.0464
28.2000 18.7694 0.0463
28.2200 18.7827 0.0474
28.2400 18.7961 0.0512
28.2600 18.8094 0.0456
28.2800 18.8227 0.0501
28.3000 18.8360 0.0479
28.3200 18.8493 0.0477
28.3400 18.8627 0.0508
28.3600 18.8760 0.0543
28.3800 18.8893 0.0502
28.4000 18.9026 0.0521
28.4200 18.9159 0.0558
28.4400 18.9293 0.0505
28.4600 18.9426 0.0533
28.4800 18.9560 0.0512
28.5000 18.9693 0.0571
28.5200 18.9827 0.0545
28.5400 18.9960 0.0557
28.5600 19.0093 0.0554
28.5800 19.0227 0.0557
28.6000 19.0360 0.0574
28.6200 19.0494 0.0559
28.6400 19.0627 0.0498
28.6600 19.0760 0.0640
28.6800 19.0893 0.0516
28.7000 19.1027 0.0474
28.7200 19.1160 0.0600
28.7400 19.1293 0.0515
28.7600 19.1426 0.0571
28.7800 19.1559 0.0600
28.8000 19.1692 0.0484
28.8200 19.1826 0.0503
28.8400 19.1959 0.0641
28.8600 19.2093 0.0469
28.8800 19.2227 0.0539
28.9000 19.2361 0.0600
28.9200 19.2494 0.0471
28.9400 19.2627 0.0549
28.9600 19.2761 0.0603
28.9800 19.2894 0.0435
29.0000 19.3027 0.0606
29.0200 19.3160 0.0616
29.0400 19.3293 0.0524
29.0600 19.3426 0.0559
29.0800 19.3559 0.0627
29.1000 19.3693 0.0484
29.1200 19.3826 0.0636
29.1400 19.3960 0.0604
29.1600 19.4093 0.0460
29.1800 19.4227 0.0623
29.2000 19.4360 0.0607
29.2200 19.4494 0.0486
29.2400 19.4627 0.0621
29.2600 19.4760 0.0616
29.2800 19.4893 0.0479
29.3000 19.5026 0.0644
29.3200 19.5160 0.0556
29.3400 19.5293 0.0495
29.3600 19.5426 0.0638
29.3800 19.5559 0.0581
29.4000 19.5693 0.0552
29.4200 19.5827 0.0633
29.4400 19.5960 0.0541
29.4600 19.6093 0.0555
29.4800 19.6226 0.0618
29.5000 19.6359 0.0606
29.5200 19.6493 0.0524
29.5400 19.6626 0.0670
29.5600 19.6760 0.0557
29.5800 19.6893 0.0581
29.6000 19.7027 0.0652
29.6200 19.7160 0.0564
29.6400 19.7293 0.0588
29.6600 19.7426 0.0640
29.6800 19.7560 0.0546
29.7000 19.7693 0.0590
29.7200 19.7827 0.0635
29.7400 19.7960 0.0602
29.7600 19.8093 0.0630
29.7800 19.8227 0.0546
29.8000 19.8360 0.0560
29.8200 19.8493 0.0613
29.8400 19.8626 0.0602
29.8600 19.8759 0.0602
29.8800 19.8893 0.0572
29.9000 19.9026 0.0546
29.9200 19.9160 0.0612
29.9400 19.9293 0.0540
29.9600 19.9427 0.0577
29.9800 19.9561 0.0595
30.0000 19.9694 0.0515
30.0200 19.9827 0.0562
30.0400 19.9960 0.0628
30.0600 20.0094 0.0516
30.0800 20.0227 0.0602
30.1000 20.0359 0.0624
30.1200 20.0493 0.0493
30.1400 20.0626 0.0596
30.1600 20.0760 0.0600
30.1800 20.0893 0.0489
30.2000 20.1026 0.0650
30.2200 20.1160 0.0617
30.2400 20.1293 0.0448
30.2600 20.1426 0.0596
30.2800 20.1559 0.0597
30.3000 20.1693 0.0512
30.3200 20.1827 0.0603
30.3400 20.1960 0.0579
30.3600 20.2093 0.0497
30.3800 20.2227 0.0610
30.4000 20.2360 0.0583
30.4200 20.2494 0.0558
30.4400 20.2627 0.0602
30.4600 20.2760 0.0586
30.4800 20.2893 0.0554
30.5000 20.3026 0.0628
30.5200 20.3160 0.0602
30.5400 20.3293 0.0643
30.5600 20.3426 0.0620
30.5800 20.3559 0.0659
30.6000 20.3693 0.0648
30.6200 20.3826 0.0673
30.6400 20.3960 0.0672
30.6600 20.4093 0.0681
30.6800 20.4227 0.0669
30.7000 20.4361 0.0695
30.7200 20.4494 0.0726
30.7400 20.4627 0.0774
30.7600 20.4760 0.1129
30.7800 20.4894 0.1508
30.8000 20.5027 0.1738
30.8200 20.5160 0.1596
30.8400 20.5293 0.1357
30.8600 20.5426 0.1344
30.8800 20.5560 0.1288
30.9000 20.5693 0.1165
30.9200 20.5826 0.1337
30.9400 20.5959 0.1294
30.9600 20.6093 0.1257
30.9800 20.6226 0.1322
31.0000 20.6359 0.1250
31.0200 20.6493 0.1168
31.0400 20.6627 0.1229
31.0600 20.6761 0.1170
31.0800 20.6894 0.1117
31.1000 20.7027 0.1261
31.1200 20.7160 0.1188
31.1400 20.7294 0.1140
31.1600 20.7427 0.1169
31.1800 20.7560 0.1115
31.2000 20.7693 0.1170
31.2200 20.7826 0.1148
31.2400 20.7959 0.1031
31.2600 20.8093 0.1106
31.2800 20.8226 0.1060
31.3000 20.8360 0.1057
31.3200 20.8493 0.1109
31.3400 20.8627 0.1116
31.3600 20.8760 0.1105
31.3800 20.8893 0.1186
31.4000 20.9027 0.1090
31.4200 20.9160 0.1109
31.4400 20.9293 0.1156
31.4600 20.9426 0.1133
31.4800 20.9560 0.1114
31.5000 20.9693 0.1155
31.5200 20.9827 0.1161
31.5400 20.9960 0.1127
31.5600 21.0093 0.1149
31.5800 21.0227 0.1203
31.6000 21.0360 0.1101
31.6200 21.0493 0.1146
31.6400 21.0626 0.1172
31.6600 21.0760 0.1075
31.6800 21.0893 0.1161
31.7000 21.1026 0.1089
31.7200 21.1159 0.1075
31.7400 21.1293 0.1106
31.7600 21.1426 0.1111
31.7800 21.1560 0.1044
31.8000 21.1693 0.1138
31.8200 21.1826 0.1144
31.8400 21.1960 0.1060
31.8600 21.2094 0.1094
31.8800 21.2227 0.1080
31.9000 21.2360 0.1075
31.9200 21.2493 0.1155
31.9400 21.2627 0.1075
31.9600 21.2760 0.1062
31.9800 21.2893 0.1090
32.0000 21.3026 0.1069
32.0200 21.3159 0.1039
32.0400 21.3293 0.1081
32.0600 21.3426 0.1022
32.0800 21.3560 0.1014
32.1000 21.3693 0.1094
32.1200 21.3827 0.1060
32.1400 21.3960 0.1043
32.1600 21.4094 0.1097
32.1800 21.4227 0.1127
32.2000 21.4360 0.1024
32.2200 21.4494 0.1068
32.2400 21.4627 0.1071
32.2600 21.4760 0.1010
32.2800 21.4893 0.1049
32.3000 21.5026 0.1114
32.3200 21.5160 0.1024
32.3400 21.5293 0.1138
32.3600 21.5426 0.1066
32.3800 21.5559 0.1029
32.4000 21.5693 0.1073
32.4200 21.5826 0.1035
32.4400 21.5960 0.0985
32.4600 21.6093 0.1122
32.4800 21.6226 0.1032
32.5000 21.6360 0.0973
32.5200 21.6493 0.1103
32.5400 21.6627 0.0986
32.5600 21.6760 0.0969
32.5800 21.6894 0.1113
32.6000 21.7027 0.0975
32.6200 21.7160 0.1011
32.6400 21.7293 0.1130
32.6600 21.7426 0.0946
32.6800 21.7560 0.1015
32.7000 21.7693 0.1097
32.7200 21.7826 0.1009
32.7400 21.7959 0.1012
32.7600 21.8093 0.1086
32.7800 21.8226 0.0980
32.8000 21.8359 0.1035
32.8200 21.8493 0.1015
32.8400 21.8627 0.1024
32.8600 21.8761 0.1046
32.8800 21.8894 0.1034
32.9000 21.9027 0.0978
32.9200 21.9160 0.1033
32.9400 21.9294 0.1019
32.9600 21.9427 0.1013
32.9800 21.9560 0.1021
33.0000 21.9693 0.1016
33.0200 21.9826 0.1049
33.0400 21.9960 0.0995
33.0600 22.0093 0.0997
33.0800 22.0226 0.1077
33.1000 22.0360 0.1006
33.1200 22.0493 0.0954
33.1400 22.0626 0.1066
33.1600 22.0759 0.0985
33.1800 22.0893 0.1065
33.2000 22.1027 0.1028
33.2200 22.1160 0.0953
33.2400 22.1293 0.0991
33.2600 22.1427 0.1076
33.2800 22.1560 0.0968
33.3000 22.1694 0.1017
33.3200 22.1827 0.1040
33.3400 22.1960 0.0955
33.3600 22.2093 0.1011
33.3800 22.2226 0.1066
33.4000 22.2360 0.0965
33.4200 22.2493 0.1018
33.4400 22.2626 0.0996
33.4600 22.2759 0.0951
33.4800 22.2893 0.1007
33.5000 22.3026 0.0992
33.5200 22.3160 0.0978
33.5400 22.3293 0.1031
33.5600 22.3426 0.1028
33.5800 22.3560 0.0917
33.6000 22.3693 0.1021
33.6200 22.3826 0.1053
33.6400 22.3960 0.0961
33.6600 22.4093 0.0983
33.6800 22.4227 0.0993
33.7000 22.4360 0.0946
33.7200 22.4493 0.1036
33.7400 22.4627 0.1019
33.7600 22.4760 0.0978
33.7800 22.4893 0.1000
33.8000 22.5026 0.1032
33.8200 22.5159 0.0953
33.8400 22.5292 0.1047
33.8600 22.5426 0.1021
33.8800 22.5559 0.0945
33.9000 22.5693 0.0995
33.9200 22.5827 0.1044
33.9400 22.5961 0.0982
33.9600 22.6094 0.0990
33.9800 22.6227 0.1020
34.0000 22.6360 0.0943
34.0200 22.6494 0.1025
34.0400 22.6628 0.1007
34.0600 22.6761 0.0973
34.0800 22.6893 0.1045
34.1000 22.7026 0.1024
34.1200 22.7160 0.0950
34.1400 22.7293 0.1054
34.1600 22.7426 0.1014
34.1800 22.7559 0.0965
34.2000 22.7693 0.1044
34.2200 22.7826 0.1013
34.2400 22.7959 0.0966
34.2600 22.8093 0.1059
34.2800 22.8227 0.0982
34.3000 22.8360 0.1003
34.3200 22.8494 0.1044
34.3400 22.8627 0.1029
34.3600 22.8760 0.1024
34.3800 22.8894 0.1037
34.4000 22.9028 0.1028
34.4200 22.9160 0.1025
34.4400 22.9293 0.1079
34.4600 22.9426 0.1042
34.4800 22.9560 0.0995
34.5000 22.9693 0.1038
34.5200 22.9826 0.1022
34.5400 22.9959 0.1002
34.5600 23.0093 0.1048
34.5800 23.0226 0.1043
34.6000 23.0359 0.1023
34.6200 23.0493 0.1037
34.6400 23.0626 0.1063
34.6600 23.0760 0.0955
34.6800 23.0894 0.1063
34.7000 23.1027 0.1050
34.7200 23.1160 0.1021
34.7400 23.1294 0.1071
34.7600 23.1427 0.1027
34.7800 23.1560 0.0942
34.8000 23.1693 0.1075
34.8200 23.1827 0.1042
34.8400 23.1960 0.0988
34.8600 23.2093 0.1025
34.8800 23.2226 0.1029
34.9000 23.2359 0.1020
34.9200 23.2493 0.0986
34.9400 23.2626 0.1045
34.9600 23.2760 0.1026
34.9800 23.2893 0.1052
35.0000 23.3027 0.1000
35.0200 23.3160 0.1033
35.0400 23.3294 0.1053
35.0600 23.3427 0.1027
35.0800 23.3560 0.0976
35.1000 23.3694 0.1036
35.1200 23.3827 0.1002
35.1400 23.3960 0.1011
35.1600 23.4093 0.1058
35.1800 23.4226 0.1010
35.2000 23.4360 0.1005
35.2200 23.4493 0.1003
35.2400 23.4626 0.1032
35.2600 23.4759 0.1073
35.2800 23.4893 0.1007
35.3000 23.5026 0.0986
35.3200 23.5159 0.0998
35.3400 23.5293 0.1045
35.3600 23.5426 0.1023
35.3800 23.5560 0.1039
35.4000 23.5694 0.0999
35.4200 23.5827 0.1045
35.4400 23.5960 0.1050
35.4600 23.6094 0.0973
35.4800 23.6227 0.1080
35.5000 23.6361 0.1039
35.5200 23.6493 0.0984
35.5400 23.6627 0.1046
35.5600 23.6760 0.1063
35.5800 23.6893 0.1002
35.6000 23.7026 0.1062
35.6200 23.7160 0.0986
35.6400 23.7293 0.1086
35.6600 23.7426 0.1051
35.6800 23.7560 0.1013
35.7000 23.7693 0.1087
35.7200 23.7826 0.1050
35.7400 23.7960 0.0947
35.7600 23.8094 0.1082
35.7800 23.8227 0.1082
35.8000 23.8360 0.1010
35.8200 23.8493 0.1062
35.8400 23.8627 0.1015
35.8600 23.8760 0.1033
35.8800 23.8893 0.1075
35.9000 23.9027 0.0992
35.9200 23.9160 0.1059
35.9400 23.9293 0.1092
35.9600 23.9426 0.0972
35.9800 23.9559 0.1114
36.0000 23.9692 0.1031
36.0200 23.9826 0.1032
36.0400 23.9959 0.1087
36.0600 24.0093 0.1034
36.0800 24.0226 0.1020
36.1000 24.0360 0.1083
36.1200 24.0494 0.0989
36.1400 24.0627 0.1032
36.1600 24.0761 0.1057
36.1800 24.0894 0.1038
36.2000 24.1027 0.1023
36.2200 24.1160 0.1070
36.2400 24.1293 0.1014
36.2600 24.1426 0.1071
36.2800 24.1559 0.1018
36.3000 24.1693 0.0983
36.3200 24.1826 0.1038
36.3400 24.1959 0.1002
36.3600 24.2093 0.1077
36.3800 24.2226 0.1055
36.4000 24.2360 0.1005
36.4200 24.2493 0.1000
36.4400 24.2627 0.1048
36.4600 24.2760 0.1029
36.4800 24.2894 0.1015
36.5000 24.3027 0.1021
36.5200 24.3160 0.1049
36.5400 24.3293 0.1000
36.5600 24.3427 0.1031
36.5800 24.3560 0.1066
36.6000 24.3693 0.1059
36.6200 24.3826 0.0954
36.6400 24.3960 0.1064
36.6600 24.4093 0.1009
36.6800 24.4226 0.1028
36.7000 24.4359 0.1078
36.7200 24.4493 0.0982
36.7400 24.4626 0.1000
36.7600 24.4760 0.1107
36.7800 24.4893 0.0994
36.8000 24.5027 0.1028
36.8200 24.5160 0.1110
36.8400 24.5294 0.0947
36.8600 24.5427 0.1028
36.8800 24.5560 0.1122
36.9000 24.5693 0.1026
36.9200 24.5827 0.1057
36.9400 24.5960 0.1048
36.9600 24.6093 0.0948
36.9800 24.6226 0.1087
37.0000 24.6360 0.1038
37.0200 24.6493 0.0956
37.0400 24.6626 0.1048
37.0600 24.6759 0.1079
37.0800 24.6893 0.0964
37.1000 24.7026 0.1109
37.1200 24.7160 0.1068
37.1400 24.7293 0.0984
37.1600 24.7426 0.1064
37.1800 24.7560 0.1029
37.2000 24.7694 0.0960
37.2200 24.7827 0.1102
37.2400 24.7960 0.1024
37.2600 24.8093 0.0999
37.2800 24.8227 0.1077
37.3000 24.8360 0.0974
37.3200 24.8493 0.1063
37.3400 24.8626 0.1032
37.3600 24.8760 0.0995
37.3800 24.8893 0.1020
37.4000 24.9026 0.1040
37.4200 24.9160 0.0969
37.4400 24.9293 0.1090
37.4600 24.9426 0.1046
37.4800 24.9560 0.0981
37.5000 24.9693 0.1045
37.5200 24.9826 0.1036
37.5400 24.9960 0.1007
37.5600 25.0093 0.1045
37.5800 25.0227 0.1021
37.6000 25.0360 0.1050
37.6200 25.0493 0.1031
37.6400 25.0627 0.1028
37.6600 25.0760 0.1007
37.6800 25.0894 0.1073
37.7000 25.1027 0.0998
37.7200 25.1160 0.1022
37.7400 25.1293 0.1074
37.7600 25.1426 0.0945
37.7800 25.1559 0.1069
37.8000 25.1692 0.1058
37.8200 25.1826 0.0986
37.8400 25.1959 0.1063
37.8600 25.2093 0.1038
37.8800 25.2226 0.0982
37.9000 25.2360 0.1080
37.9200 25.2494 0.0981
37.9400 25.2627 0.1011
37.9600 25.2760 0.1118
37.9800 25.2893 0.0982
38.0000 25.3027 0.1023
38.0200 25.3161 0.1105
38.0400 25.3294 0.0896
38.0600 25.3426 0.1083
38.0800 25.3560 0.1101
38.1000 25.3693 0.0927
38.1200 25.3826 0.1098
38.1400 25.3959 0.1089
38.1600 25.4093 0.0882
38.1800 25.4226 0.1105
38.2000 25.4359 0.1039
38.2200 25.4493 0.0954
38.2400 25.4626 0.1132
38.2600 25.4760 0.0976
38.2800 25.4893 0.1008
38.3000 25.5027 0.1094
38.3200 25.5160 0.0976
38.3400 25.5294 0.0992
38.3600 25.5427 0.1086
38.3800 25.5560 0.0931
38.4000 25.5693 0.1031
38.4200 25.5826 0.1069
38.4400 25.5959 0.0939
38.4600 25.6093 0.1013
38.4800 25.6226 0.1037
38.5000 25.6359 0.0956
38.5200 25.6493 0.1065
38.5400 25.6626 0.0997
38.5600 25.6760 0.0954
38.5800 25.6893 0.1047
38.6000 25.7027 0.0994
38.6200 25.7160 0.0990
38.6400 25.7293 0.1031
38.6600 25.7427 0.0944
38.6800 25.7560 0.0998
38.7000 25.7693 0.1056
38.7200 25.7827 0.0979
38.7400 25.7960 0.1032
38.7600 25.8094 0.0971
38.7800 25.8227 0.0979
38.8000 25.8360 0.1064
38.8200 25.8494 0.1023
38.8400 25.8627 0.0966
38.8600 25.8760 0.1037
38.8800 25.8893 0.0990
38.9000 25.9026 0.1045
38.9200 25.9160 0.1037
38.9400 25.9293 0.0940
38.9600 25.9426 0.1052
38.9800 25.9560 0.1044
39.0000 25.9693 0.0914
39.0200 25.9827 0.1080
39.0400 25.9960 0.1030
39.0600 26.0093 0.0947
39.0800 26.0227 0.1069
39.1000 26.0360 0.1056
39.1200 26.0493 0.0936
39.1400 26.0627 0.1084
39.1600 26.0760 0.0991
39.1800 26.0893 0.0967
39.2000 26.1027 0.1121
39.2200 26.1160 0.0990
39.2400 26.1293 0.0992
39.2600 26.1426 0.1072
39.2800 26.1559 0.0996
39.3000 26.1693 0.1000
39.3200 26.1826 0.1070
39.3400 26.1960 0.0976
39.3600 26.2094 0.1031
39.3800 26.2227 0.1052
39.4000 26.2360 0.1043
39.4200 26.2494 0.1001
39.4400 26.2627 0.1032
39.4600 26.2760 0.0961
39.4800 26.2893 0.0990
39.5000 26.3026 0.1049
39.5200 26.3160 0.1061
39.5400 26.3293 0.0976
39.5600 26.3426 0.0974
39.5800 26.3559 0.1103
39.6000 26.3692 0.1060
39.6200 26.3826 0.0959
39.6400 26.3960 0.1016
39.6600 26.4093 0.1033
39.6800 26.4227 0.1002
39.7000 26.4360 0.1098
39.7200 26.4493 0.1012
39.7400 26.4627 0.0980
39.7600 26.4760 0.1059
39.7800 26.4893 0.1054
39.8000 26.5027 0.0981
39.8200 26.5161 0.1136
39.8400 26.5294 0.1019
39.8600 26.5427 0.0987
39.8800 26.5560 0.1074
39.9000 26.5693 0.1081
39.9200 26.5826 0.0961
39.9400 26.5959 0.1101
39.9600 26.6092 0.1002
39.9800 26.6226 0.0992
40.0000 26.6359 0.1113
40.0200 26.6493 0.0963
40.0400 26.6626 0.1017
40.0600 26.6760 0.1117
40.0800 26.6894 0.0937
40.1000 26.7027 0.1002
40.1200 26.7160 0.1092
40.1400 26.7293 0.0971
40.1600 26.7427 0.1037
40.1800 26.7560 0.1053
40.2000 26.7693 0.1002
40.2200 26.7826 0.1047
40.2400 26.7960 0.1016
40.2600 26.8093 0.0965
40.2800 26.8227 0.1090
40.3000 26.8360 0.0975
40.3200 26.8493 0.0972
40.3400 26.8626 0.1051
40.3600 26.8760 0.0970
40.3800 26.8893 0.1031
40.4000 26.9026 0.1057
40.4200 26.9160 0.0900
40.4400 26.9293 0.1009
40.4600 26.9427 0.1012
40.4800 26.9560 0.0970
40.5000 26.9693 0.1063
40.5200 26.9827 0.1000
40.5400 26.9960 0.0939
40.5600 27.0094 0.1057
40.5800 27.0227 0.1041
40.6000 27.0360 0.0980
40.6200 27.0493 0.1027
40.6400 27.0626 0.1034
40.6600 27.0759 0.0992
40.6800 27.0893 0.1028
40.7000 27.1026 0.1053
40.7200 27.1160 0.0960
40.7400 27.1293 0.1044
40.7600 27.1426 0.1019
40.7800 27.1560 0.1011
40.8000 27.1693 0.1011
40.8200 27.1827 0.1018
40.8400 27.1960 0.1000
40.8600 27.2093 0.1028
40.8800 27.2226 0.0981
40.9000 27.2360 0.1012
40.9200 27.2494 0.1020
40.9400 27.2627 0.1006
40.9600 27.2760 0.0999
40.9800 27.2894 0.0992
41.0000 27.3027 0.1004
41.0200 27.3160 0.0961
41.0400 27.3293 0.0999
41.0600 27.3426 0.1022
41.0800 27.3559 0.0949
41.1000 27.3693 0.0970
41.1200 27.3826 0.1069
41.1400 27.3959 0.0980
41.1600 27.4093 0.0994
41.1800 27.4227 0.0964
41.2000 27.4361 0.1006
41.2200 27.4494 0.0965
41.2400 27.4627 0.0965
41.2600 27.4761 0.1001
41.2800 27.4894 0.1023
41.3000 27.5027 0.1008
41.3200 27.5160 0.0901
41.3400 27.5293 0.1030
41.3600 27.5426 0.1006
41.3800 27.5560 0.0908
41.4000 27.5692 0.1025
41.4200 27.5826 0.1023
41.4400 27.5959 0.0908
41.4600 27.6093 0.0994
41.4800 27.6226 0.1019
41.5000 27.6360 0.0960
41.5200 27.6493 0.0983
41.5400 27.6627 0.0993
41.5600 27.6760 0.0918
41.5800 27.6894 0.1044
41.6000 27.7027 0.1004
41.6200 27.7160 0.0940
41.6400 27.7294 0.1011
41.6600 27.7427 0.1023
41.6800 27.7560 0.0931
41.7000 27.7693 0.1072
41.7200 27.7826 0.1018
41.7400 27.7960 0.0947
41.7600 27.8093 0.1035
41.7800 27.8226 0.1022
41.8000 27.8360 0.0908
41.8200 27.8493 0.1046
41.8400 27.8627 0.1011
41.8600 27.8760 0.0928
41.8800 27.8893 0.1074
41.9000 27.9027 0.0968
41.9200 27.9160 0.0920
41.9400 27.9293 0.1012
41.9600 27.9427 0.0987
41.9800 27.9560 0.0964
42.0000 27.9694 0.0997
42.0200 27.9827 0.0994
42.0400 27.9960 0.1000
42.0600 28.0093 0.0969
42.0800 28.0227 0.1059
42.1000 28.0360 0.0985
42.1200 28.0493 0.0945
42.1400 28.0626 0.1016
42.1600 28.0759 0.1015
42.1800 28.0893 0.0922
42.2000 28.1026 0.1030
42.2200 28.1160 0.0994
42.2400 28.1294 0.0916
42.2600 28.1427 0.1013
42.2800 28.1561 0.0938
42.3000 28.1694 0.0969
42.3200 28.1827 0.1058
42.3400 28.1960 0.0888
42.3600 28.2093 0.0973
42.3800 28.2226 0.1053
42.4000 28.2359 0.0867
42.4200 28.2493 0.1007
42.4400 28.2626 0.1019
42.4600 28.2760 0.0856
42.4800 28.2893 0.0980
42.5000 28.3026 0.1025
42.5200 28.3160 0.0897
42.5400 28.3293 0.1030
42.5600 28.3426 0.0987
42.5800 28.3559 0.0866
42.6000 28.3693 0.1105
42.6200 28.3827 0.0920
42.6400 28.3960 0.0851
42.6600 28.4094 0.1113
42.6800 28.4227 0.0908
42.7000 28.4361 0.0920
42.7200 28.4494 0.1044
42.7400 28.4627 0.0995
42.7600 28.4760 0.0886
42.7800 28.4893 0.1058
42.8000 28.5026 0.0950
42.8200 28.5160 0.0933
42.8400 28.5293 0.1077
42.8600 28.5426 0.0912
42.8800 28.5559 0.0958
42.9000 28.5693 0.1026
42.9200 28.5826 0.0993
42.9400 28.5960 0.0954
42.9600 28.6093 0.0948
42.9800 28.6227 0.0971
43.0000 28.6360 0.0989
43.0200 28.6493 0.0972
43.0400 28.6627 0.1009
43.0600 28.6760 0.1000
43.0800 28.6894 0.0919
43.1000 28.7027 0.1010
43.1200 28.7160 0.1043
43.1400 28.7293 0.0894
43.1600 28.7427 0.1047
43.1800 28.7560 0.0979
43.2000 28.7693 0.0960
43.2200 28.7826 0.1022
43.2400 28.7959 0.1030
43.2600 28.8092 0.0968
43.2800 28.8226 0.0982
43.3000 28.8359 0.0981
43.3200 28.8493 0.0947
43.3400 28.8627 0.0986
43.3600 28.8761 0.0918
43.3800 28.8894 0.0981
43.4000 28.9027 0.0999
43.4200 28.9161 0.0977
43.4400 28.9294 0.0922
43.4600 28.9427 0.0974
43.4800 28.9559 0.0984
43.5000 28.9692 0.0974
43.5200 28.9826 0.0975
43.5400 28.9959 0.0916
43.5600 29.0092 0.0978
43.5800 29.0226 0.0999
43.6000 29.0360 0.0892
43.6200 29.0493 0.1040
43.6400 29.0627 0.1044
43.6600 29.0760 0.0830
43.6800 29.0894 0.1009
43.7000 29.1027 0.1069
43.7200 29.1161 0.0855
43.7400 29.1294 0.1074
43.7600 29.1427 0.1050
43.7800 29.1560 0.0814
43.8000 29.1694 0.1085
43.8200 29.1827 0.1035
43.8400 29.1960 0.0886
43.8600 29.2093 0.1079
43.8800 29.2226 0.1037
43.9000 29.2360 0.0815
43.9200 29.2493 0.1130
43.9400 29.2626 0.1006
43.9600 29.2759 0.0864
43.9800 29.2893 0.1011
44.0000 29.3026 0.1017
44.0200 29.3160 0.0960
44.0400 29.3293 0.1032
44.0600 29.3427 0.0925
44.0800 29.3560 0.0981
44.1000 29.3693 0.1058
44.1200 29.3827 0.0936
44.1400 29.3960 0.0942
44.1600 29.4094 0.1021
44.1800 29.4227 0.1000
44.2000 29.4360 0.0993
44.2200 29.4493 0.0971
44.2400 29.4626 0.1032
44.2600 29.4760 0.1024
44.2800 29.4893 0.0923
44.3000 29.5026 0.0997
44.3200 29.5159 0.1030
44.3400 29.5293 0.0981
44.3600 29.5426 0.1025
44.3800 29.5560 0.0951
44.4000 29.5693 0.0922
44.4200 29.5827 0.1127
44.4400 29.5961 0.0959
44.4600 29.6094 0.0856
44.4800 29.6227 0.1103
44.5000 29.6360 0.1001
44.5200 29.6493 0.0825
44.5400 29.6627 0.1066
44.5600 29.6760 0.0974
44.5800 29.6893 0.0967
44.6000 29.7026 0.1034
44.6200 29.7160 0.0893
44.6400 29.7293 0.0960
44.6600 29.7426 0.1076
44.6800 29.7559 0.0940
44.7000 29.7693 0.0926
44.7200 29.7826 0.1033
44.7400 29.7959 0.0982
44.7600 29.8093 0.0924
44.7800 29.8227 0.0921
44.8000 29.8360 0.1040
44.8200 29.8493 0.1010
44.8400 29.8627 0.0893
44.8600 29.8760 0.0962
44.8800 29.8894 0.0975
44.9000 29.9027 0.0961
44.9200 29.9160 0.0974
44.9400 29.9293 0.0955
44.9600 29.9426 0.1003
44.9800 29.9560 0.0918
45.0000 29.9693 0.0938
45.0200 29.9826 0.1002
45.0400 29.9959 0.0957
45.0600 30.0093 0.0965
45.0800 30.0226 0.0965
45.1000 30.0360 0.0868
45.1200 30.0493 0.0965
45.1400 30.0627 0.1014
45.1600 30.0761 0.0863
45.1800 30.0894 0.0944
45.2000 30.1027 0.1019
45.2200 30.1160 0.0885
45.2400 30.1294 0.0915
45.2600 30.1427 0.1046
45.2800 30.1560 0.0873
45.3000 30.1693 0.0995
45.3200 30.1826 0.0942
45.3400 30.1960 0.0800
45.3600 30.2093 0.1014
45.3800 30.2226 0.1039
45.4000 30.2359 0.0795
45.4200 30.2493 0.1002
45.4400 30.2626 0.1007
45.4600 30.2759 0.0795
45.4800 30.2893 0.0978
45.5000 30.3027 0.1006
45.5200 30.3161 0.0886
45.5400 30.3294 0.0932
45.5600 30.3427 0.0893
45.5800 30.3560 0.0908
45.6000 30.3694 0.0975
45.6200 30.3827 0.0932
45.6400 30.3960 0.0950
45.6600 30.4093 0.0938
45.6800 30.4226 0.0898
45.7000 30.4359 0.0922
45.7200 30.4493 0.0976
45.7400 30.4626 0.0865
45.7600 30.4759 0.0935
45.7800 30.4893 0.0905
45.8000 30.5027 0.0922
45.8200 30.5160 0.0949
45.8400 30.5293 0.0946
45.8600 30.5427 0.0925
45.8800 30.5560 0.0961
45.9000 30.5693 0.0909
45.9200 30.5826 0.0933
45.9400 30.5960 0.0909
45.9600 30.6093 0.0970
45.9800 30.6227 0.0964
46.0000 30.6360 0.0909
46.0200 30.6493 0.0961
46.0400 30.6627 0.0953
46.0600 30.6760 0.0933
46.0800 30.6893 0.0921
46.1000 30.7026 0.0994
46.1200 30.7159 0.0920
46.1400 30.7293 0.0937
46.1600 30.7426 0.0962
46.1800 30.7559 0.0986
46.2000 30.7693 0.0998
46.2200 30.7826 0.0940
46.2400 30.7960 0.0961
46.2600 30.8093 0.1002
46.2800 30.8227 0.0939
46.3000 30.8360 0.1011
46.3200 30.8494 0.0980
46.3400 30.8627 0.0917
46.3600 30.8760 0.0941
46.3800 30.8893 0.1029
46.4000 30.9027 0.0949
46.4200 30.9160 0.0966
46.4400 30.9293 0.0996
46.4600 30.9426 0.0904
46.4800 30.9559 0.1008
46.5000 30.9693 0.1009
46.5200 30.9826 0.0921
46.5400 30.9959 0.1005
46.5600 31.0093 0.1004
46.5800 31.0227 0.0875
46.6000 31.0360 0.0995
46.6200 31.0494 0.0974
46.6400 31.0627 0.0911
46.6600 31.0760 0.0992
46.6800 31.0894 0.0969
46.7000 31.1027 0.0885
46.7200 31.1160 0.1008
46.7400 31.1293 0.0970
46.7600 31.1427 0.0917
46.7800 31.1560 0.0988
46.8000 31.1693 0.0983
46.8200 31.1826 0.0829
46.8400 31.1959 0.0987
46.8600 31.2093 0.0967
46.8800 31.2227 0.0892
46.9000 31.2360 0.0991
46.9200 31.2493 0.0905
46.9400 31.2626 0.0895
46.9600 31.2760 0.0962
46.9800 31.2893 0.0952
47.0000 31.3027 0.0949
47.0200 31.3160 0.0994
47.0400 31.3294 0.0879
47.0600 31.3427 0.0904
47.0800 31.3560 0.1061
47.1000 31.3693 0.0955
47.1200 31.3826 0.0886
47.1400 31.3960 0.0981
47.1600 31.4093 0.0902
47.1800 31.4226 0.0953
47.2000 31.4359 0.1045
47.2200 31.4493 0.0968
47.2400 31.4626 0.0883
47.2600 31.4759 0.1007
47.2800 31.4893 0.0962
47.3000 31.5026 0.0967
47.3200 31.5160 0.1002
47.3400 31.5294 0.0909
47.3600 31.5427 0.0960
47.3800 31.5560 0.0981
47.4000 31.5694 0.0943
47.4200 31.5827 0.0944
47.4400 31.5960 0.1016
47.4600 31.6093 0.0968
47.4800 31.6226 0.0926
47.5000 31.6360 0.0998
47.5200 31.6493 0.0981
47.5400 31.6626 0.0915
47.5600 31.6759 0.1050
47.5800 31.6893 0.0952
47.6000 31.7026 0.0895
47.6200 31.7160 0.0968
47.6400 31.7293 0.1003
47.6600 31.7427 0.0834
47.6800 31.7560 0.1048
47.7000 31.7694 0.0995
47.7200 31.7827 0.0802
47.7400 31.7960 0.1049
47.7600 31.8094 0.0971
47.7800 31.8227 0.0869
47.8000 31.8360 0.1051
47.8200 31.8493 0.0938
47.8400 31.8626 0.0821
47.8600 31.8760 0.1053
47.8800 31.8893 0.0921
47.9000 31.9026 0.0859
47.9200 31.9159 0.1083
47.9400 31.9293 0.0892
47.9600 31.9426 0.0823
47.9800 31.9559 0.1085
48.0000 31.9693 0.0884
48.0200 31.9826 0.0883
48.0400 31.9960 0.1021
48.0600 32.0093 0.0918
48.0800 32.0226 0.0894
48.1000 32.0360 0.1028
48.1200 32.0493 0.0884
48.1400 32.0627 0.0903
48.1600 32.0760 0.0991
48.1800 32.0893 0.0925
48.2000 32.1027 0.0961
48.2200 32.1160 0.0987
48.2400 32.1294 0.0917
48.2600 32.1426 0.0972
48.2800 32.1559 0.0906
48.3000 32.1692 0.0958
48.3200 32.1826 0.0999
48.3400 32.1959 0.0909
48.3600 32.2093 0.0973
48.3800 32.2226 0.0924
48.4000 32.2360 0.0952
48.4200 32.2494 0.0963
48.4400 32.2627 0.0929
48.4600 32.2760 0.0987
48.4800 32.2894 0.0996
48.5000 32.3027 0.0829
48.5200 32.3161 0.0972
48.5400 32.3293 0.1092
48.5600 32.3426 0.0855
48.5800 32.3560 0.0842
48.6000 32.3693 0.1095
48.6200 32.3826 0.0932
48.6400 32.3959 0.0851
48.6600 32.4093 0.1052
48.6800 32.4226 0.0927
48.7000 32.4359 0.0807
48.7200 32.4493 0.1018
48.7400 32.4626 0.0997
48.7600 32.4760 0.0718
48.7800 32.4894 0.1031
48.8000 32.5027 0.1082
48.8200 32.5160 0.0700
48.8400 32.5294 0.0965
48.8600 32.5427 0.1217
48.8800 32.5560 0.0686
48.9000 32.5693 0.0900
48.9200 32.5826 0.1247
48.9400 32.5960 0.0736
48.9600 32.6093 0.0857
48.9800 32.6226 0.1245
49.0000 32.6359 0.0674
49.0200 32.6493 0.0869
49.0400 32.6626 0.1242
49.0600 32.6760 0.0776
49.0800 32.6893 0.0770
49.1000 32.7026 0.1224
49.1200 32.7160 0.0780
49.1400 32.7294 0.0838
49.1600 32.7427 0.1178
49.1800 32.7560 0.0741
49.2000 32.7693 0.0901
49.2200 32.7827 0.1120
49.2400 32.7960 0.0729
49.2600 32.8093 0.1001
49.2800 32.8227 0.1084
49.3000 32.8360 0.0719
49.3200 32.8493 0.1004
49.3400 32.8626 0.1048
49.3600 32.8759 0.0782
49.3800 32.8892 0.0981
49.4000 32.9026 0.1080
49.4200 32.9160 0.0762
49.4400 32.9293 0.1065
49.4600 32.9427 0.0915
49.4800 32.9560 0.0882
49.5000 32.9694 0.1064
49.5200 32.9827 0.0833
49.5400 32.9960 0.0930
49.5600 33.0093 0.1114
49.5800 33.0227 0.0812
49.6000 33.0360 0.0944
49.6200 33.0493 0.1103
49.6400 33.0626 0.0819
49.6600 33.0760 0.0991
49.6800 33.0893 0.1041
49.7000 33.1026 0.0816
49.7200 33.1159 0.1008
49.7400 33.1293 0.1046
49.7600 33.1426 0.0847
49.7800 33.1560 0.0975
49.8000 33.1693 0.1018
49.8200 33.1826 0.0936
49.8400 33.1960 0.0955
49.8600 33.2094 0.0974
49.8800 33.2227 0.0960
49.9000 33.2360 0.0997
49.9200 33.2494 0.0862
49.9400 33.2627 0.0992
49.9600 33.2761 0.0914
49.9800 33.2894 0.0888
50.0000 33.3026 0.0966
50.0200 33.3160 0.0939
50.0400 33.3293 0.0883
50.0600 33.3426 0.0974
50.0800 33.3560 0.0897
50.1000 33.3693 0.0910
50.1200 33.3826 0.1021
50.1400 33.3960 0.0820
50.1600 33.4093 0.0931
50.1800 33.4226 0.1023
50.2000 33.4360 0.0785
50.2200 33.4494 0.0946
50.2400 33.4627 0.1054
50.2600 33.4760 0.0805
50.2800 33.4893 0.0916
50.3000 33.5027 0.1085
50.3200 33.5160 0.0789
50.3400 33.5293 0.0861
50.3600 33.5427 0.1147
50.3800 33.5560 0.0793
50.4000 33.5694 0.0818
50.4200 33.5827 0.1111
50.4400 33.5959 0.0859
50.4600 33.6093 0.0836
50.4800 33.6226 0.1073
50.5000 33.6359 0.0873
50.5200 33.6492 0.0912
50.5400 33.6626 0.0971
50.5600 33.6760 0.0860
50.5800 33.6894 0.0953
50.6000 33.7027 0.0945
50.6200 33.7161 0.0892
50.6400 33.7294 0.0979
50.6600 33.7427 0.0903
50.6800 33.7560 0.0929
50.7000 33.7693 0.0999
50.7200 33.7826 0.0882
50.7400 33.7959 0.0968
50.7600 33.8093 0.0945
50.7800 33.8226 0.0862
50.8000 33.8359 0.0981
50.8200 33.8493 0.0928
50.8400 33.8626 0.0889
50.8600 33.8760 0.0965
50.8800 33.8893 0.0840
50.9000 33.9027 0.0943
50.9200 33.9160 0.1003
50.9400 33.9294 0.0845
50.9600 33.9427 0.0946
50.9800 33.9560 0.1012
51.0000 33.9693 0.0811
51.0200 33.9827 0.1015
51.0400 33.9960 0.0966
51.0600 34.0093 0.0862
51.0800 34.0226 0.1018
51.1000 34.0360 0.0968
51.1200 34.0493 0.0860
51.1400 34.0626 0.0970
51.1600 34.0759 0.0948
51.1800 34.0892 0.0906
51.2000 34.1026 0.1009
51.2200 34.1160 0.0859
51.2400 34.1293 0.0940
51.2600 34.1427 0.1028
51.2800 34.1560 0.0825
51.3000 34.1694 0.0934
51.3200 34.1827 0.1027
51.3400 34.1960 0.0822
51.3600 34.2093 0.1003
51.3800 34.2227 0.0983
51.4000 34.2361 0.0835
51.4200 34.2494 0.0931
51.4400 34.2627 0.1023
51.4600 34.2760 0.0845
51.4800 34.2894 0.0893
51.5000 34.3027 0.0995
51.5200 34.3159 0.0863
51.5400 34.3292 0.0943
51.5600 34.3426 0.0959
51.5800 34.3560 0.0875
51.6000 34.3693 0.0910
51.6200 34.3826 0.0940
51.6400 34.3960 0.0923
51.6600 34.4094 0.0908
51.6800 34.4227 0.0944
51.7000 34.4360 0.0885
51.7200 34.4494 0.0890
51.7400 34.4627 0.1023
51.7600 34.4760 0.0840
51.7800 34.4893 0.0915
51.8000 34.5026 0.1025
51.8200 34.5160 0.0869
51.8400 34.5293 0.0841
51.8600 34.5427 0.1048
51.8800 34.5560 0.0884
51.9000 34.5693 0.0861
51.9200 34.5826 0.1031
51.9400 34.5960 0.0914
51.9600 34.6093 0.0882
51.9800 34.6226 0.1044
52.0000 34.6359 0.0866
52.0200 34.6493 0.0819
52.0400 34.6627 0.1082
52.0600 34.6760 0.0898
52.0800 34.6893 0.0802
52.1000 34.7027 0.1086
52.1200 34.7161 0.0915
52.1400 34.7294 0.0815
52.1600 34.7427 0.1088
52.1800 34.7560 0.0863
52.2000 34.7693 0.0886
52.2200 34.7826 0.1011
52.2400 34.7959 0.0907
52.2600 34.8092 0.0891
52.2800 34.8226 0.1040
52.3000 34.8359 0.0850
52.3200 34.8493 0.0901
52.3400 34.8626 0.1057
52.3600 34.8760 0.0848
52.3800 34.8894 0.0878
52.4000 34.9027 0.1058
52.4200 34.9160 0.0850
52.4400 34.9293 0.0892
52.4600 34.9427 0.0992
52.4800 34.9560 0.0871
52.5000 34.9694 0.0908
52.5200 34.9827 0.0997
52.5400 34.9960 0.0862
52.5600 35.0093 0.0945
52.5800 35.0227 0.0957
52.6000 35.0359 0.0811
52.6200 35.0493 0.1024
52.6400 35.0626 0.0943
52.6600 35.0759 0.0826
52.6800 35.0893 0.0951
52.7000 35.1026 0.0951
52.7200 35.1160 0.0824
52.7400 35.1294 0.0983
52.7600 35.1427 0.0924
52.7800 35.1560 0.0850
52.8000 35.1694 0.0993
52.8200 35.1827 0.0914
52.8400 35.1960 0.0887
52.8600 35.2093 0.0977
52.8800 35.2226 0.0895
52.9000 35.2359 0.0892
52.9200 35.2493 0.0950
52.9400 35.2626 0.0908
52.9600 35.2759 0.0889
52.9800 35.2893 0.0956
53.0000 35.3026 0.0934
53.0200 35.3160 0.0876
53.0400 35.3294 0.0897
53.0600 35.3427 0.0901
53.0800 35.3560 0.0970
53.1000 35.3694 0.0899
53.1200 35.3827 0.0906
53.1400 35.3960 0.0969
53.1600 35.4093 0.0892
53.1800 35.4226 0.0894
53.2000 35.4360 0.0961
53.2200 35.4493 0.0893
53.2400 35.4627 0.0847
53.2600 35.4760 0.0976
53.2800 35.4894 0.0900
53.3000 35.5027 0.0865
53.3200 35.5160 0.0995
53.3400 35.5293 0.0911
53.3600 35.5426 0.0852
53.3800 35.5559 0.0931
53.4000 35.5693 0.0910
53.4200 35.5826 0.0918
53.4400 35.5960 0.0938
53.4600 35.6093 0.0888
53.4800 35.6227 0.0918
53.5000 35.6360 0.0908
53.5200 35.6493 0.0880
53.5400 35.6627 0.0919
53.5600 35.6760 0.0899
53.5800 35.6894 0.0937
53.6000 35.7027 0.0897
53.6200 35.7160 0.0911
53.6400 35.7293 0.0921
53.6600 35.7427 0.0926
53.6800 35.7560 0.0873
53.7000 35.7693 0.0988
53.7200 35.7826 0.0921
53.7400 35.7959 0.0900
53.7600 35.8093 0.0937
53.7800 35.8226 0.0885
53.8000 35.8360 0.0928
53.8200 35.8493 0.0975
53.8400 35.8627 0.0832
53.8600 35.8760 0.0966
53.8800 35.8894 0.0952
53.9000 35.9027 0.0874
53.9200 35.9160 0.0974
53.9400 35.9294 0.0911
53.9600 35.9426 0.0888
53.9800 35.9560 0.1033
54.0000 35.9693 0.0884
54.0200 35.9826 0.0878
54.0400 35.9959 0.1091
54.0600 36.0093 0.0896
54.0800 36.0226 0.0914
54.1000 36.0360 0.1014
54.1200 36.0493 0.0885
54.1400 36.0626 0.0902
54.1600 36.0760 0.1015
54.1800 36.0893 0.0852
54.2000 36.1027 0.0927
54.2200 36.1160 0.0981
54.2400 36.1293 0.0900
54.2600 36.1427 0.0893
54.2800 36.1561 0.0960
54.3000 36.1694 0.0914
54.3200 36.1827 0.0901
54.3400 36.1960 0.0991
54.3600 36.2093 0.0921
54.3800 36.2227 0.0928
54.4000 36.2360 0.0936
54.4200 36.2493 0.0968
54.4400 36.2626 0.0922
54.4600 36.2759 0.0928
54.4800 36.2893 0.0937
54.5000 36.3026 0.0928
54.5200 36.3160 0.0940
54.5400 36.3294 0.0916
54.5600 36.3427 0.0879
54.5800 36.3561 0.0969
54.6000 36.3694 0.0939
54.6200 36.3827 0.0911
54.6400 36.3960 0.0905
54.6600 36.4094 0.0975
54.6800 36.4227 0.0911
54.7000 36.4360 0.0968
54.7200 36.4493 0.0980
54.7400 36.4626 0.0898
54.7600 36.4760 0.0932
54.7800 36.4893 0.1004
54.8000 36.5026 0.0875
54.8200 36.5160 0.0908
54.8400 36.5293 0.1032
54.8600 36.5426 0.0872
54.8800 36.5560 0.0910
54.9000 36.5693 0.1014
54.9200 36.5827 0.0874
54.9400 36.5960 0.0938
54.9600 36.6093 0.1016
54.9800 36.6227 0.0858
55.0000 36.6360 0.0951
55.0200 36.6494 0.0952
55.0400 36.6626 0.0879
55.0600 36.6759 0.0934
55.0800 36.6893 0.0987
55.1000 36.7026 0.0816
55.1200 36.7159 0.0951
55.1400 36.7292 0.0982
55.1600 36.7426 0.0875
55.1800 36.7560 0.0920
55.2000 36.7693 0.0920
55.2200 36.7826 0.0890
55.2400 36.7960 0.0974
55.2600 36.8093 0.0951
55.2800 36.8227 0.0879
55.3000 36.8360 0.0919
55.3200 36.8493 0.0960
55.3400 36.8626 0.0923
55.3600 36.8760 0.0895
55.3800 36.8894 0.0990
55.4000 36.9027 0.0909
55.4200 36.9160 0.0908
55.4400 36.9294 0.0977
55.4600 36.9427 0.0928
55.4800 36.9560 0.0906
55.5000 36.9693 0.0948
55.5200 36.9826 0.0901
55.5400 36.9959 0.0985
55.5600 37.0093 0.0914
55.5800 37.0226 0.0901
55.6000 37.0359 0.0919
55.6200 37.0493 0.0980
55.6400 37.0627 0.0898
55.6600 37.0760 0.0914
55.6800 37.0894 0.0980
55.7000 37.1027 0.0889
55.7200 37.1161 0.0931
55.7400 37.1294 0.0975
55.7600 37.1427 0.0865
55.7800 37.1560 0.0904
55.8000 37.1693 0.1000
55.8200 37.1826 0.0876
55.8400 37.1960 0.0888
55.8600 37.2093 0.1020
55.8800 37.2226 0.0906
55.9000 37.2359 0.0887
55.9200 37.2493 0.1021
55.9400 37.2626 0.0823
55.9600 37.2759 0.0919
55.9800 37.2893 0.0991
56.0000 37.3027 0.0874
56.0200 37.3160 0.0860
56.0400 37.3294 0.1007
56.0600 37.3427 0.0843
56.0800 37.3561 0.0934
56.1000 37.3694 0.1016
56.1200 37.3827 0.0837
56.1400 37.3960 0.0944
56.1600 37.4093 0.1034
56.1800 37.4227 0.0849
56.2000 37.4360 0.0923
56.2200 37.4493 0.1021
56.2400 37.4626 0.0838
56.2600 37.4759 0.0937
56.2800 37.4893 0.1031
56.3000 37.5026 0.0828
56.3200 37.5160 0.0910
56.3400 37.5293 0.1032
56.3600 37.5427 0.0796
56.3800 37.5560 0.0930
56.4000 37.5693 0.0976
56.4200 37.5827 0.0860
56.4400 37.5960 0.0919
56.4600 37.6094 0.0998
56.4800 37.6227 0.0852
56.5000 37.6360 0.0995
56.5200 37.6493 0.0986
56.5400 37.6627 0.0902
56.5600 37.6760 0.0956
56.5800 37.6893 0.1004
56.6000 37.7026 0.0888
56.6200 37.7159 0.0940
56.6400 37.7293 0.0921
56.6600 37.7426 0.0915
56.6800 37.7560 0.0972
56.7000 37.7693 0.0958
56.7200 37.7827 0.0920
56.7400 37.7960 0.0871
56.7600 37.8094 0.0967
56.7800 37.8227 0.0927
56.8000 37.8360 0.0876
56.8200 37.8494 0.0941
56.8400 37.8627 0.0901
56.8600 37.8759 0.0900
56.8800 37.8893 0.1039
56.9000 37.9026 0.0889
56.9200 37.9160 0.0869
56.9400 37.9293 0.1011
56.9600 37.9426 0.0914
56.9800 37.9560 0.0848
57.0000 37.9693 0.1039
57.0200 37.9826 0.0862
57.0400 37.9960 0.0890
57.0600 38.0093 0.1079
57.0800 38.0227 0.0858
57.1000 38.0361 0.0907
57.1200 38.0494 0.1061
57.1400 38.0627 0.0853
57.1600 38.0760 0.0947
57.1800 38.0894 0.1066
57.2000 38.1027 0.0807
57.2200 38.1160 0.0950
57.2400 38.1293 0.1029
57.2600 38.1426 0.0848
57.2800 38.1560 0.0980
57.3000 38.1693 0.1025
57.3200 38.1826 0.0840
57.3400 38.1959 0.0999
57.3600 38.2093 0.0925
57.3800 38.2226 0.0911
57.4000 38.2359 0.0981
57.4200 38.2493 0.0922
57.4400 38.2627 0.0918
57.4600 38.2760 0.0989
57.4800 38.2893 0.0927
57.5000 38.3027 0.0967
57.5200 38.3160 0.0967
57.5400 38.3294 0.0929
57.5600 38.3427 0.0895
57.5800 38.3560 0.0947
57.6000 38.3693 0.0952
57.6200 38.3827 0.0959
57.6400 38.3960 0.0905
57.6600 38.4093 0.0952
57.6800 38.4226 0.0965
57.7000 38.4359 0.0866
57.7200 38.4493 0.1027
57.7400 38.4626 0.0958
57.7600 38.4759 0.0864
57.7800 38.4893 0.1001
57.8000 38.5027 0.0906
57.8200 38.5161 0.0903
57.8400 38.5294 0.1072
57.8600 38.5427 0.0833
57.8800 38.5561 0.0898
57.9000 38.5694 0.1078
57.9200 38.5827 0.0875
57.9400 38.5960 0.0907
57.9600 38.6093 0.1049
57.9800 38.6226 0.0828
58.0000 38.6360 0.0956
58.0200 38.6493 0.0992
58.0400 38.6626 0.0874
58.0600 38.6760 0.0970
58.0800 38.6893 0.0925
58.1000 38.7027 0.0888
58.1200 38.7160 0.0997
58.1400 38.7294 0.0940
58.1600 38.7427 0.0894
58.1800 38.7561 0.1013
58.2000 38.7694 0.0934
58.2200 38.7827 0.0968
58.2400 38.7960 0.0968
58.2600 38.8094 0.0923
58.2800 38.8227 0.0954
58.3000 38.8360 0.0980
58.3200 38.8493 0.0917
58.3400 38.8626 0.1003
58.3600 38.8760 0.0909
58.3800 38.8893 0.0949
58.4000 38.9026 0.1021
58.4200 38.9159 0.0927
58.4400 38.9293 0.0932
58.4600 38.9427 0.0974
58.4800 38.9560 0.0916
58.5000 38.9694 0.1008
58.5200 38.9827 0.0984
58.5400 38.9960 0.0844
58.5600 39.0093 0.0972
58.5800 39.0227 0.1013
58.6000 39.0360 0.0926
58.6200 39.0494 0.0942
58.6400 39.0627 0.0969
58.6600 39.0760 0.0937
58.6800 39.0893 0.0998
58.7000 39.1026 0.0928
58.7200 39.1160 0.0965
58.7400 39.1293 0.0930
58.7600 39.1426 0.0914
58.7800 39.1559 0.0991
58.8000 39.1693 0.0977
58.8200 39.1826 0.0904
58.8400 39.1960 0.1007
58.8600 39.2093 0.0942
58.8800 39.2227 0.0942
58.9000 39.2361 0.0948
58.9200 39.2494 0.0985
58.9400 39.2627 0.0966
58.9600 39.2760 0.0912
58.9800 39.2894 0.0968
59.0000 39.3027 0.1002
59.0200 39.3160 0.0908
59.0400 39.3293 0.0945
59.0600 39.3426 0.1041
59.0800 39.3560 0.0916
59.1000 39.3693 0.0960
59.1200 39.3826 0.0991
59.1400 39.3959 0.0987
59.1600 39.4093 0.0976
59.1800 39.4226 0.0940
59.2000 39.4359 0.0950
59.2200 39.4493 0.0982
59.2400 39.4626 0.0957
59.2600 39.4760 0.0985
59.2800 39.4893 0.0893
59.3000 39.5027 0.0994
59.3200 39.5160 0.0962
59.3400 39.5294 0.0948
59.3600 39.5427 0.0981
59.3800 39.5560 0.0939
59.4000 39.5693 0.0923
59.4200 39.5826 0.0954
59.4400 39.5960 0.0958
59.4600 39.6093 0.0926
59.4800 39.6226 0.1010
59.5000 39.6359 0.0950
59.5200 39.6493 0.0890
59.5400 39.6626 0.1008
59.5600 39.6759 0.0985
59.5800 39.6893 0.0873
59.6000 39.7027 0.0973
59.6200 39.7161 0.0984
59.6400 39.7294 0.0895
59.6600 39.7427 0.0991
59.6800 39.7560 0.1044
59.7000 39.7694 0.0837
59.7200 39.7827 0.0953
59.7400 39.7960 0.1028
59.7600 39.8093 0.0949
59.7800 39.8226 0.0958
59.8000 39.8360 0.0981
59.8200 39.8493 0.0888
59.8400 39.8626 0.0953
59.8600 39.8759 0.1037
59.8800 39.8893 0.0905
59.9000 39.9026 0.0970
59.9200 39.9159 0.1025
59.9400 39.9293 0.0871
59.9600 39.9427 0.0937
59.9800 39.9561 0.1000
60.0000 39.9694 0.0874
60.0200 39.9827 0.1011
60.0400 39.9960 0.0966
60.0470 40.0005 0.0735
