Raw Data
Time Displacement Force
(s) (mm) (N)
0.0000 0.0000 -0.0353
0.0200 0.0001 -0.0301
0.0400 0.0018 -0.0220
0.0600 0.0089 -0.0217
0.0800 0.0204 -0.0345
0.1000 0.0328 -0.0318
0.1200 0.0454 -0.0329
0.1400 0.0588 -0.0322
0.1600 0.0729 -0.0324
0.1800 0.0872 -0.0351
0.2000 0.1011 -0.0320
0.2200 0.1147 -0.0365
0.2400 0.1281 -0.0300
0.2600 0.1414 -0.0364
0.2800 0.1547 -0.0296
0.3000 0.1680 -0.0358
0.3200 0.1814 -0.0300
0.3400 0.1948 -0.0341
0.3600 0.2081 -0.0273
0.3800 0.2214 -0.0312
0.4000 0.2347 -0.0258
0.4200 0.2481 -0.0271
0.4400 0.2614 -0.0262
0.4600 0.2748 -0.0237
0.4800 0.2881 -0.0235
0.5000 0.3015 -0.0214
0.5200 0.3149 -0.0211
0.5400 0.3282 -0.0168
0.5600 0.3415 -0.0179
0.5800 0.3548 -0.0139
0.6000 0.3682 -0.0131
0.6200 0.3815 -0.0112
0.6400 0.3948 -0.0099
0.6600 0.4081 -0.0067
0.6800 0.4214 -0.0054
0.7000 0.4348 -0.0035
0.7200 0.4481 0.0001
0.7400 0.4614 0.0001
0.7600 0.4748 0.0050
0.7800 0.4881 0.0049
0.8000 0.5015 0.0083
0.8200 0.5148 0.0096
0.8400 0.5281 0.0138
0.8600 0.5415 0.0131
0.8800 0.5549 0.0176
0.9000 0.5682 0.0186
0.9200 0.5815 0.0218
0.9400 0.5948 0.0229
0.9600 0.6082 0.0265
0.9800 0.6215 0.0269
1.0000 0.6348 0.0303
1.0200 0.6481 0.0326
1.0400 0.6614 0.0333
1.0600 0.6748 0.0375
1.0800 0.6881 0.0377
1.1000 0.7014 0.0413
1.1200 0.7147 0.0420
1.1400 0.7281 0.0463
1.1600 0.7414 0.0457
1.1800 0.7548 0.0497
1.2000 0.7681 0.0511
1.2200 0.7815 0.0531
1.2400 0.7948 0.0543
1.2600 0.8082 0.0584
1.2800 0.8215 0.0587
1.3000 0.8348 0.0615
1.3200 0.8482 0.0650
1.3400 0.8615 0.0634
1.3600 0.8749 0.0695
1.3800 0.8882 0.0684
1.4000 0.9015 0.0738
1.4200 0.9149 0.0720
1.4400 0.9282 0.0776
1.4600 0.9414 0.0770
1.4800 0.9547 0.0801
1.5000 0.9680 0.0829
1.5200 0.9814 0.0828
1.5400 0.9947 0.0872
1.5600 1.0081 0.0873
1.5800 1.0214 0.0910
1.6000 1.0348 0.0901
1.6200 1.0482 0.0966
1.6400 1.0615 0.0931
1.6600 1.0749 0.1004
1.6800 1.0882 0.0981
1.7000 1.1016 0.1040
1.7200 1.1149 0.1024
1.7400 1.1281 0.1070
1.7600 1.1415 0.1080
1.7800 1.1548 0.1091
1.8000 1.1681 0.1127
1.8200 1.1814 0.1133
1.8400 1.1947 0.1158
1.8600 1.2081 0.1175
1.8800 1.2214 0.1197
1.9000 1.2348 0.1210
1.9200 1.2481 0.1241
1.9400 1.2615 0.1242
1.9600 1.2749 0.1273
1.9800 1.2882 0.1283
2.0000 1.3015 0.1321
2.0200 1.3149 0.1312
2.0400 1.3282 0.1363
2.0600 1.3415 0.1346
2.0800 1.3549 0.1393
2.1000 1.3681 0.1389
2.1200 1.3815 0.1433
2.1400 1.3948 0.1423
2.1600 1.4081 0.1466
2.1800 1.4214 0.1467
2.2000 1.4347 0.1492
2.2200 1.4481 0.1514
2.2400 1.4614 0.1517
2.2600 1.4748 0.1555
2.2800 1.4881 0.1549
2.3000 1.5015 0.1605
2.3200 1.5149 0.1570
2.3400 1.5282 0.1643
2.3600 1.5415 0.1612
2.3800 1.5549 0.1666
2.4000 1.5682 0.1650
2.4200 1.5815 0.1698
2.4400 1.5949 0.1692
2.4600 1.6081 0.1730
2.4800 1.6215 0.1732
2.5000 1.6348 0.1747
2.5200 1.6481 0.1778
2.5400 1.6614 0.1784
2.5600 1.6747 0.1813
2.5800 1.6881 0.1812
2.6000 1.7014 0.1846
2.6200 1.7148 0.1839
2.6400 1.7281 0.1886
2.6600 1.7415 0.1874
2.6800 1.7549 0.1915
2.7000 1.7682 0.1909
2.7200 1.7815 0.1950
2.7400 1.7948 0.1940
2.7600 1.8082 0.1987
2.7800 1.8215 0.1981
2.8000 1.8349 0.2009
2.8200 1.8482 0.2024
2.8400 1.8615 0.2043
2.8600 1.8748 0.2039
2.8800 1.8881 0.2083
2.9000 1.9014 0.2074
2.9200 1.9148 0.2110
2.9400 1.9281 0.2120
2.9600 1.9415 0.2132
2.9800 1.9548 0.2151
3.0000 1.9681 0.2167
3.0200 1.9815 0.2195
3.0400 1.9948 0.2182
3.0600 2.0082 0.2231
3.0800 2.0215 0.2219
3.1000 2.0348 0.2257
3.1200 2.0481 0.2260
3.1400 2.0615 0.2294
3.1600 2.0749 0.2281
3.1800 2.0882 0.2324
3.2000 2.1015 0.2322
3.2200 2.1148 0.2341
3.2400 2.1282 0.2364
3.2600 2.1415 0.2370
3.2800 2.1548 0.2396
3.3000 2.1681 0.2390
3.3200 2.1814 0.2444
3.3400 2.1948 0.2412
3.3600 2.2081 0.2483
3.3800 2.2214 0.2451
3.4000 2.2348 0.2496
3.4200 2.2482 0.2486
3.4400 2.2615 0.2526
3.4600 2.2748 0.2520
3.4800 2.2881 0.2552
3.5000 2.3015 0.2565
3.5200 2.3148 0.2568
3.5400 2.3282 0.2598
3.5600 2.3415 0.2601
3.5800 2.3548 0.2626
3.6000 2.3682 0.2622
3.6200 2.3814 0.2675
3.6400 2.3947 0.2644
3.6600 2.4080 0.2702
3.6800 2.4214 0.2680
3.7000 2.4347 0.2711
3.7200 2.4481 0.2723
3.7400 2.4615 0.2744
3.7600 2.4748 0.2737
3.7800 2.4882 0.2766
3.8000 2.5016 0.2779
3.8200 2.5149 0.2795
3.8400 2.5282 0.2811
3.8600 2.5416 0.2832
3.8800 2.5549 0.2835
3.9000 2.5681 0.2848
3.9200 2.5814 0.2885
3.9400 2.5948 0.2867
3.9600 2.6081 0.2919
3.9800 2.6214 0.2896
4.0000 2.6347 0.2939
4.0200 2.6481 0.2928
4.0400 2.6615 0.2980
4.0600 2.6748 0.2952
4.0800 2.6881 0.2990
4.1000 2.7015 0.2991
4.1200 2.7148 0.3011
4.1400 2.7282 0.3019
4.1600 2.7415 0.3040
4.1800 2.7548 0.3051
4.2000 2.7682 0.3050
4.2200 2.7815 0.3103
4.2400 2.7949 0.3068
4.2600 2.8081 0.3136
4.2800 2.8215 0.3097
4.3000 2.8348 0.3159
4.3200 2.8481 0.3123
4.3400 2.8614 0.3189
4.3600 2.8747 0.3152
4.3800 2.8881 0.3206
4.4000 2.9014 0.3199
4.4200 2.9148 0.3214
4.4400 2.9281 0.3237
4.4600 2.9415 0.3241
4.4800 2.9548 0.3263
4.5000 2.9682 0.3259
4.5200 2.9815 0.3306
4.5400 2.9948 0.3280
4.5600 3.0082 0.3335
4.5800 3.0215 0.3312
4.6000 3.0349 0.3354
4.6200 3.0482 0.3335
4.6400 3.0615 0.3386
4.6600 3.0748 0.3360
4.6800 3.0882 0.3405
4.7000 3.1015 0.3404
4.7200 3.1147 0.3420
4.7400 3.1281 0.3433
4.7600 3.1415 0.3457
4.7800 3.1548 0.3451
4.8000 3.1681 0.3470
4.8200 3.1815 0.3493
4.8400 3.1948 0.3482
4.8600 3.2082 0.3521
4.8800 3.2215 0.3521
4.9000 3.2348 0.3545
4.9200 3.2481 0.3543
4.9400 3.2615 0.3581
4.9600 3.2748 0.3558
4.9800 3.2881 0.3600
5.0000 3.3014 0.3602
5.0200 3.3148 0.3616
5.0400 3.3281 0.3630
5.0600 3.3415 0.3643
5.0800 3.3548 0.3659
5.1000 3.3681 0.3659
5.1200 3.3814 0.3697
5.1400 3.3948 0.3672
5.1600 3.4081 0.3721
5.1800 3.4214 0.3701
5.2000 3.4348 0.3740
5.2200 3.4482 0.3724
5.2400 3.4615 0.3781
5.2600 3.4748 0.3740
5.2800 3.4881 0.3797
5.3000 3.5015 0.3782
5.3200 3.5149 0.3811
5.3400 3.5282 0.3813
5.3600 3.5415 0.3834
5.3800 3.5548 0.3847
5.4000 3.5682 0.3842
5.4200 3.5815 0.3885
5.4400 3.5948 0.3860
5.4600 3.6081 0.3914
5.4800 3.6214 0.3887
5.5000 3.6347 0.3936
5.5200 3.6481 0.3910
5.5400 3.6614 0.3974
5.5600 3.6748 0.3923
5.5800 3.6882 0.3986
5.6000 3.7015 0.3965
5.6200 3.7148 0.3993
5.6400 3.7282 0.3996
5.6600 3.7415 0.4018
5.6800 3.7549 0.4027
5.7000 3.7682 0.4018
5.7200 3.7815 0.4067
5.7400 3.7948 0.4029
5.7600 3.8081 0.4077
5.7800 3.8215 0.4065
5.8000 3.8348 0.4110
5.8200 3.8481 0.4086
5.8400 3.8614 0.4144
5.8600 3.8748 0.4108
5.8800 3.8881 0.4165
5.9000 3.9014 0.4139
5.9200 3.9148 0.4186
5.9400 3.9282 0.4165
5.9600 3.9415 0.4210
5.9800 3.9548 0.4194
6.0000 3.9682 0.4220
6.0200 3.9815 0.4234
6.0400 3.9949 0.4223
6.0600 4.0082 0.4262
6.0800 4.0215 0.4253
6.1000 4.0348 0.4288
6.1200 4.0481 0.4264
6.1400 4.0614 0.4324
6.1600 4.0747 0.4287
6.1800 4.0881 0.4344
6.2000 4.1014 0.4313
6.2200 4.1148 0.4362
6.2400 4.1282 0.4326
6.2600 4.1415 0.4388
6.2800 4.1548 0.4367
6.3000 4.1682 0.4391
6.3200 4.1815 0.4409
6.3400 4.1948 0.4408
6.3600 4.2081 0.4429
6.3800 4.2215 0.4434
6.4000 4.2348 0.4456
6.4200 4.2482 0.4451
6.4400 4.2615 0.4486
6.4600 4.2748 0.4468
6.4800 4.2882 0.4497
6.5000 4.3015 0.4488
6.5200 4.3148 0.4522
6.5400 4.3281 0.4507
6.5600 4.3414 0.4546
6.5800 4.3548 0.4540
6.6000 4.3681 0.4562
6.6200 4.3814 0.4578
6.6400 4.3948 0.4577
6.6600 4.4081 0.4597
6.6800 4.4215 0.4598
6.7000 4.4348 0.4624
6.7200 4.4482 0.4618
6.7400 4.4615 0.4651
6.7600 4.4749 0.4623
6.7800 4.4882 0.4668
6.8000 4.5015 0.4660
6.8200 4.5148 0.4693
6.8400 4.5282 0.4679
6.8600 4.5415 0.4711
6.8800 4.5548 0.4705
6.9000 4.5681 0.4717
6.9200 4.5814 0.4732
6.9400 4.5948 0.4740
6.9600 4.6081 0.4753
6.9800 4.6214 0.4761
7.0000 4.6348 0.4784
7.0200 4.6482 0.4778
7.0400 4.6615 0.4815
7.0600 4.6749 0.4795
7.0800 4.6882 0.4828
7.1000 4.7015 0.4824
7.1200 4.7149 0.4855
7.1400 4.7282 0.4839
7.1600 4.7415 0.4885
7.1800 4.7548 0.4868
7.2000 4.7682 0.4897
7.2200 4.7815 0.4897
7.2400 4.7948 0.4912
7.2600 4.8081 0.4915
7.2800 4.8214 0.4938
7.3000 4.8348 0.4940
7.3200 4.8481 0.4936
7.3400 4.8614 0.4976
7.3600 4.8748 0.4951
7.3800 4.8882 0.4987
7.4000 4.9015 0.4973
7.4200 4.9148 0.5021
7.4400 4.9282 0.4985
7.4600 4.9415 0.5044
7.4800 4.9549 0.5004
7.5000 4.9682 0.5044
7.5200 4.9815 0.5025
7.5400 4.9948 0.5070
7.5600 5.0082 0.5051
7.5800 5.0215 0.5085
7.6000 5.0348 0.5093
7.6200 5.0481 0.5089
7.6400 5.0614 0.5134
7.6600 5.0748 0.5108
7.6800 5.0881 0.5153
7.7000 5.1015 0.5126
7.7200 5.1148 0.5184
7.7400 5.1282 0.5139
7.7600 5.1416 0.5198
7.7800 5.1549 0.5173
7.8000 5.1682 0.5205
7.8200 5.1815 0.5198
7.8400 5.1949 0.5221
7.8600 5.2082 0.5202
7.8800 5.2215 0.5231
7.9000 5.2348 0.5238
7.9200 5.2481 0.5240
7.9400 5.2614 0.5278
7.9600 5.2748 0.5262
7.9800 5.2881 0.5296
8.0000 5.3014 0.5279
8.0200 5.3148 0.5328
8.0400 5.3281 0.5295
8.0600 5.3415 0.5350
8.0800 5.3548 0.5318
8.1000 5.3682 0.5357
8.1200 5.3815 0.5344
8.1400 5.3948 0.5395
8.1600 5.4082 0.5362
8.1800 5.4215 0.5409
8.2000 5.4349 0.5393
8.2200 5.4482 0.5413
8.2400 5.4615 0.5426
8.2600 5.4748 0.5433
8.2800 5.4881 0.5449
8.3000 5.5015 0.5443
8.3200 5.5148 0.5478
8.3400 5.5281 0.5451
8.3600 5.5414 0.5500
8.3800 5.5548 0.5480
8.4000 5.5681 0.5512
8.4200 5.5815 0.5494
8.4400 5.5948 0.5540
8.4600 5.6082 0.5501
8.4800 5.6215 0.5540
8.5000 5.6348 0.5529
8.5200 5.6481 0.5550
8.5400 5.6615 0.5556
8.5600 5.6749 0.5550
8.5800 5.6882 0.5574
8.6000 5.7015 0.5569
8.6200 5.7148 0.5609
8.6400 5.7282 0.5589
8.6600 5.7415 0.5630
8.6800 5.7548 0.5623
8.7000 5.7681 0.5639
8.7200 5.7814 0.5647
8.7400 5.7947 0.5661
8.7600 5.8081 0.5652
8.7800 5.8214 0.5673
8.8000 5.8348 0.5680
8.8200 5.8482 0.5687
8.8400 5.8616 0.5713
8.8600 5.8749 0.5707
8.8800 5.8882 0.5733
8.9000 5.9016 0.5721
8.9200 5.9149 0.5762
8.9400 5.9282 0.5737
8.9600 5.9415 0.5777
8.9800 5.9548 0.5767
9.0000 5.9681 0.5789
9.0200 5.9815 0.5785
9.0400 5.9948 0.5815
9.0600 6.0081 0.5799
9.0800 6.0214 0.5834
9.1000 6.0348 0.5823
9.1200 6.0481 0.5852
9.1400 6.0614 0.5840
9.1600 6.0748 0.5869
9.1800 6.0882 0.5863
9.2000 6.1015 0.5860
9.2200 6.1149 0.5886
9.2400 6.1282 0.5872
9.2600 6.1415 0.5907
9.2800 6.1549 0.5898
9.3000 6.1682 0.5931
9.3200 6.1815 0.5913
9.3400 6.1948 0.5964
9.3600 6.2081 0.5922
9.3800 6.2215 0.5976
9.4000 6.2348 0.5948
9.4200 6.2481 0.5987
9.4400 6.2614 0.5973
9.4600 6.2748 0.6003
9.4800 6.2881 0.5992
9.5000 6.3015 0.6001
9.5200 6.3148 0.6019
9.5400 6.3281 0.5999
9.5600 6.3415 0.6050
9.5800 6.3549 0.6021
9.6000 6.3682 0.6069
9.6200 6.3815 0.6036
9.6400 6.3949 0.6103
9.6600 6.4082 0.6052
9.6800 6.4215 0.6110
9.7000 6.4348 0.6092
9.7200 6.4481 0.6121
9.7400 6.4615 0.6109
9.7600 6.4748 0.6131
9.7800 6.4880 0.6129
9.8000 6.5014 0.6138
9.8200 6.5147 0.6172
9.8400 6.5281 0.6141
9.8600 6.5415 0.6184
9.8800 6.5548 0.6163
9.9000 6.5682 0.6214
9.9200 6.5816 0.6172
9.9400 6.5949 0.6237
9.9600 6.6082 0.6196
9.9800 6.6215 0.6240
10.0000 6.6349 0.6214
10.0200 6.6482 0.6242
10.0400 6.6615 0.6229
10.0600 6.6748 0.6267
10.0800 6.6881 0.6246
10.1000 6.7015 0.6277
10.1200 6.7148 0.6279
10.1400 6.7281 0.6287
10.1600 6.7414 0.6299
10.1800 6.7548 0.6309
10.2000 6.7681 0.6332
10.2200 6.7814 0.6312
10.2400 6.7948 0.6361
10.2600 6.8082 0.6331
10.2800 6.8215 0.6368
10.3000 6.8349 0.6351
10.3200 6.8481 0.6388
10.3400 6.8615 0.6375
10.3600 6.8748 0.6395
10.3800 6.8882 0.6378
10.4000 6.9015 0.6397
10.4200 6.9148 0.6415
10.4400 6.9281 0.6425
10.4600 6.9415 0.6430
10.4800 6.9548 0.6443
10.5000 6.9681 0.6459
10.5200 6.9814 0.6448
10.5400 6.9947 0.6487
10.5600 7.0081 0.6474
10.5800 7.0214 0.6491
10.6000 7.0347 0.6498
10.6200 7.0481 0.6493
10.6400 7.0615 0.6498
10.6600 7.0748 0.6509
10.6800 7.0882 0.6519
10.7000 7.1015 0.6521
10.7200 7.1148 0.6552
10.7400 7.1282 0.6543
10.7600 7.1415 0.6563
10.7800 7.1548 0.6566
10.8000 7.1681 0.6585
10.8200 7.1815 0.6567
10.8400 7.1948 0.6620
10.8600 7.2081 0.6582
10.8800 7.2214 0.6628
10.9000 7.2347 0.6603
10.9200 7.2481 0.6621
10.9400 7.2614 0.6600
10.9600 7.2748 0.6639
10.9800 7.2881 0.6630
11.0000 7.3015 0.6652
11.0200 7.3149 0.6654
11.0400 7.3282 0.6679
11.0600 7.3416 0.6676
11.0800 7.3549 0.6696
11.1000 7.3682 0.6695
11.1200 7.3815 0.6705
11.1400 7.3948 0.6722
11.1600 7.4081 0.6722
11.1800 7.4214 0.6742
11.2000 7.4348 0.6738
11.2200 7.4481 0.6758
11.2400 7.4614 0.6750
11.2600 7.4748 0.6768
11.2800 7.4881 0.6755
11.3000 7.5015 0.6775
11.3200 7.5148 0.6779
11.3400 7.5282 0.6793
11.3600 7.5416 0.6794
11.3800 7.5549 0.6816
11.4000 7.5682 0.6821
11.4200 7.5815 0.6817
11.4400 7.5948 0.6857
11.4600 7.6082 0.6829
11.4800 7.6215 0.6869
11.5000 7.6348 0.6850
11.5200 7.6481 0.6895
11.5400 7.6615 0.6849
11.5600 7.6748 0.6915
11.5800 7.6881 0.6868
11.6000 7.7014 0.6923
11.6200 7.7147 0.6889
11.6400 7.7281 0.6922
11.6600 7.7415 0.6898
11.6800 7.7548 0.6939
11.7000 7.7681 0.6935
11.7200 7.7815 0.6941
11.7400 7.7949 0.6967
11.7600 7.8082 0.6954
11.7800 7.8215 0.6982
11.8000 7.8348 0.6970
11.8200 7.8482 0.7017
11.8400 7.8615 0.6972
11.8600 7.8748 0.7034
11.8800 7.8881 0.6992
11.9000 7.9014 0.7042
11.9200 7.9148 0.7010
11.9400 7.9281 0.7059
11.9600 7.9414 0.7029
11.9800 7.9548 0.7070
12.0000 7.9681 0.7053
12.0200 7.9815 0.7070
12.0400 7.9948 0.7079
12.0600 8.0081 0.7079
12.0800 8.0215 0.7081
12.1000 8.0349 0.7088
12.1200 8.0482 0.7111
12.1400 8.0615 0.7099
12.1600 8.0748 0.7135
12.1800 8.0882 0.7122
12.2000 8.1015 0.7145
12.2200 8.1148 0.7145
12.2400 8.1281 0.7161
12.2600 8.1415 0.7135
12.2800 8.1548 0.7157
12.3000 8.1681 0.7159
12.3200 8.1814 0.7173
12.3400 8.1948 0.7185
12.3600 8.2081 0.7192
12.3800 8.2215 0.7193
12.4000 8.2348 0.7217
12.4200 8.2481 0.7224
12.4400 8.2615 0.7221
12.4600 8.2749 0.7247
12.4800 8.2882 0.7231
12.5000 8.3015 0.7266
12.5200 8.3148 0.7248
12.5400 8.3282 0.7289
12.5600 8.3415 0.7269
12.5800 8.3548 0.7296
12.6000 8.3681 0.7295
12.6200 8.3815 0.7300
12.6400 8.3948 0.7311
12.6600 8.4081 0.7320
12.6800 8.4214 0.7327
12.7000 8.4348 0.7323
12.7200 8.4481 0.7357
12.7400 8.4614 0.7309
12.7600 8.4747 0.7349
12.7800 8.4881 0.7298
12.8000 8.5015 0.7360
12.8200 8.5149 0.7305
12.8400 8.5282 0.7359
12.8600 8.5415 0.7306
12.8800 8.5548 0.7344
12.9000 8.5682 0.7272
12.9200 8.5816 0.7191
12.9400 8.5948 0.7185
12.9600 8.6081 0.7184
12.9800 8.6215 0.7225
13.0000 8.6348 0.7214
13.0200 8.6481 0.7278
13.0400 8.6614 0.7245
13.0600 8.6747 0.7304
13.0800 8.6881 0.7269
13.1000 8.7014 0.7326
13.1200 8.7148 0.7301
13.1400 8.7281 0.7350
13.1600 8.7415 0.7327
13.1800 8.7549 0.7357
13.2000 8.7682 0.7369
13.2200 8.7815 0.7367
13.2400 8.7948 0.7394
13.2600 8.8082 0.7397
13.2800 8.8215 0.7404
13.3000 8.8348 0.7387
13.3200 8.8481 0.7421
13.3400 8.8614 0.7412
13.3600 8.8748 0.7438
13.3800 8.8881 0.7429
13.4000 8.9014 0.7466
13.4200 8.9147 0.7443
13.4400 8.9281 0.7499
13.4600 8.9415 0.7450
13.4800 8.9548 0.7507
13.5000 8.9682 0.7479
13.5200 8.9815 0.7518
13.5400 8.9949 0.7495
13.5600 9.0082 0.7537
13.5800 9.0215 0.7513
13.6000 9.0348 0.7552
13.6200 9.0482 0.7540
13.6400 9.0615 0.7555
13.6600 9.0748 0.7568
13.6800 9.0881 0.7563
13.7000 9.1015 0.7593
13.7200 9.1149 0.7566
13.7400 9.1282 0.7619
13.7600 9.1414 0.7576
13.7800 9.1547 0.7639
13.8000 9.1681 0.7604
13.8200 9.1814 0.7645
13.8400 9.1948 0.7629
13.8600 9.2081 0.7656
13.8800 9.2215 0.7653
13.9000 9.2349 0.7661
13.9200 9.2482 0.7674
13.9400 9.2615 0.7666
13.9600 9.2748 0.7698
13.9800 9.2882 0.7683
14.0000 9.3016 0.7703
14.0200 9.3148 0.7688
14.0400 9.3281 0.7730
14.0600 9.3415 0.7711
14.0800 9.3549 0.7736
14.1000 9.3682 0.7734
14.1200 9.3814 0.7747
14.1400 9.3947 0.7754
14.1600 9.4081 0.7759
14.1800 9.4214 0.7754
14.2000 9.4348 0.7756
14.2200 9.4481 0.7775
14.2400 9.4615 0.7768
14.2600 9.4749 0.7791
14.2800 9.4882 0.7790
14.3000 9.5015 0.7814
14.3200 9.5148 0.7799
14.3400 9.5282 0.7835
14.3600 9.5415 0.7817
14.3800 9.5549 0.7850
14.4000 9.5682 0.7832
14.4200 9.5815 0.7868
14.4400 9.5948 0.7835
14.4600 9.6081 0.7890
14.4800 9.6214 0.7850
14.5000 9.6348 0.7897
14.5200 9.6481 0.7867
14.5400 9.6615 0.7890
14.5600 9.6748 0.7887
14.5800 9.6881 0.7904
14.6000 9.7014 0.7917
14.6200 9.7148 0.7905
14.6400 9.7282 0.7945
14.6600 9.7415 0.7920
14.6800 9.7548 0.7960
14.7000 9.7682 0.7936
14.7200 9.7816 0.7983
14.7400 9.7949 0.7933
14.7600 9.8082 0.8017
14.7800 9.8215 0.7958
14.8000 9.8348 0.8010
14.8200 9.8481 0.7989
14.8400 9.8614 0.8014
14.8600 9.8747 0.8013
14.8800 9.8881 0.8016
14.9000 9.9014 0.8039
14.9200 9.9148 0.8015
14.9400 9.9281 0.8057
14.9600 9.9415 0.8033
14.9800 9.9549 0.8068
15.0000 9.9682 0.8053
15.0200 9.9815 0.8086
15.0400 9.9948 0.8058
15.0600 10.0082 0.8110
15.0800 10.0215 0.8078
15.1000 10.0348 0.8103
15.1200 10.0481 0.8079
15.1400 10.0614 0.8103
15.1600 10.0748 0.8102
15.1800 10.0881 0.8118
15.2000 10.1014 0.8131
15.2200 10.1148 0.8130
15.2400 10.1281 0.8150
15.2600 10.1415 0.8147
15.2800 10.1548 0.8161
15.3000 10.1681 0.8161
15.3200 10.1815 0.8179
15.3400 10.1949 0.8142
15.3600 10.2082 0.8185
15.3800 10.2215 0.8158
15.4000 10.2348 0.8202
15.4200 10.2482 0.8179
15.4400 10.2615 0.8218
15.4600 10.2748 0.8201
15.4800 10.2881 0.8228
15.5000 10.3014 0.8229
15.5200 10.3148 0.8230
15.5400 10.3281 0.8247
15.5600 10.3414 0.8250
15.5800 10.3547 0.8262
15.6000 10.3681 0.8261
15.6200 10.3815 0.8281
15.6400 10.3948 0.8261
15.6600 10.4081 0.8308
15.6800 10.4215 0.8279
15.7000 10.4348 0.8313
15.7200 10.4482 0.8292
15.7400 10.4615 0.8324
15.7600 10.4748 0.8309
15.7800 10.4882 0.8330
15.8000 10.5015 0.8339
15.8200 10.5149 0.8331
15.8400 10.5282 0.8362
15.8600 10.5415 0.8342
15.8800 10.5549 0.8378
15.9000 10.5682 0.8350
15.9200 10.5815 0.8398
15.9400 10.5947 0.8366
15.9600 10.6081 0.8413
15.9800 10.6214 0.8380
16.0000 10.6348 0.8400
16.0200 10.6481 0.8386
16.0400 10.6614 0.8407
16.0600 10.6749 0.8406
16.0800 10.6882 0.8418
16.1000 10.7015 0.8441
16.1200 10.7149 0.8424
16.1400 10.7282 0.8451
16.1600 10.7416 0.8436
16.1800 10.7549 0.8465
16.2000 10.7682 0.8450
16.2200 10.7815 0.8484
16.2400 10.7948 0.8456
16.2600 10.8081 0.8500
16.2800 10.8214 0.8475
16.3000 10.8347 0.8503
16.3200 10.8481 0.8503
16.3400 10.8614 0.8522
16.3600 10.8748 0.8507
16.3800 10.8881 0.8542
16.4000 10.9015 0.8530
16.4200 10.9149 0.8544
16.4400 10.9282 0.8549
16.4600 10.9415 0.8554
16.4800 10.9549 0.8574
16.5000 10.9682 0.8560
16.5200 10.9816 0.8597
16.5400 10.9949 0.8566
16.5600 11.0081 0.8610
16.5800 11.0214 0.8585
16.6000 11.0348 0.8623
16.6200 11.0481 0.8597
16.6400 11.0614 0.8640
16.6600 11.0747 0.8609
16.6800 11.0881 0.8649
16.7000 11.1014 0.8638
16.7200 11.1148 0.8651
16.7400 11.1281 0.8659
16.7600 11.1415 0.8656
16.7800 11.1548 0.8656
16.8000 11.1682 0.8629
16.8200 11.1815 0.8671
16.8400 11.1948 0.8640
16.8600 11.2082 0.8692
16.8800 11.2215 0.8661
16.9000 11.2349 0.8709
16.9200 11.2482 0.8684
16.9400 11.2615 0.8721
16.9600 11.2748 0.8698
16.9800 11.2882 0.8733
17.0000 11.3015 0.8720
17.0200 11.3147 0.8744
17.0400 11.3281 0.8741
17.0600 11.3414 0.8745
17.0800 11.3548 0.8728
17.1000 11.3681 0.8719
17.1200 11.3815 0.8753
17.1400 11.3949 0.8727
17.1600 11.4082 0.8771
17.1800 11.4215 0.8751
17.2000 11.4348 0.8791
17.2200 11.4482 0.8772
17.2400 11.4615 0.8798
17.2600 11.4748 0.8787
17.2800 11.4881 0.8817
17.3000 11.5014 0.8805
17.3200 11.5148 0.8834
17.3400 11.5282 0.8817
17.3600 11.5415 0.8846
17.3800 11.5548 0.8835
17.4000 11.5681 0.8850
17.4200 11.5815 0.8852
17.4400 11.5948 0.8861
17.4600 11.6081 0.8872
17.4800 11.6214 0.8869
17.5000 11.6348 0.8887
17.5200 11.6482 0.8883
17.5400 11.6615 0.8907
17.5600 11.6748 0.8893
17.5800 11.6881 0.8918
17.6000 11.7015 0.8907
17.6200 11.7149 0.8935
17.6400 11.7282 0.8914
17.6600 11.7415 0.8951
17.6800 11.7548 0.8937
17.7000 11.7681 0.8951
17.7200 11.7815 0.8963
17.7400 11.7947 0.8953
17.7600 11.8081 0.8983
17.7800 11.8214 0.8966
17.8000 11.8348 0.8998
17.8200 11.8481 0.8965
17.8400 11.8614 0.9020
17.8600 11.8748 0.8986
17.8800 11.8882 0.9021
17.9000 11.9015 0.9005
17.9200 11.9148 0.9045
17.9400 11.9282 0.9017
17.9600 11.9415 0.9050
17.9800 11.9549 0.9037
18.0000 11.9681 0.9054
18.0200 11.9815 0.9067
18.0400 11.9948 0.9058
18.0600 12.0082 0.9087
18.0800 12.0215 0.9057
18.1000 12.0348 0.9094
18.1200 12.0481 0.9042
18.1400 12.0614 0.9089
18.1600 12.0747 0.9069
18.1800 12.0881 0.9100
18.2000 12.1014 0.9095
18.2200 12.1148 0.9116
18.2400 12.1282 0.9111
18.2600 12.1416 0.9134
18.2800 12.1549 0.9126
18.3000 12.1682 0.9143
18.3200 12.1816 0.9145
18.3400 12.1949 0.9149
18.3600 12.2082 0.9163
18.3800 12.2214 0.9165
18.4000 12.2348 0.9187
18.4200 12.2481 0.9164
18.4400 12.2614 0.9202
18.4600 12.2747 0.9179
18.4800 12.2881 0.9220
18.5000 12.3015 0.9190
18.5200 12.3148 0.9233
18.5400 12.3282 0.9196
18.5600 12.3415 0.9254
18.5800 12.3548 0.9215
18.6000 12.3682 0.9257
18.6200 12.3815 0.9230
18.6400 12.3948 0.9264
18.6600 12.4082 0.9251
18.6800 12.4215 0.9270
18.7000 12.4348 0.9271
18.7200 12.4481 0.9266
18.7400 12.4614 0.9304
18.7600 12.4748 0.9275
18.7800 12.4882 0.9312
18.8000 12.5015 0.9283
18.8200 12.5148 0.9331
18.8400 12.5281 0.9292
18.8600 12.5414 0.9350
18.8800 12.5548 0.9314
18.9000 12.5681 0.9346
18.9200 12.5815 0.9334
18.9400 12.5948 0.9358
18.9600 12.6082 0.9352
18.9800 12.6215 0.9364
19.0000 12.6348 0.9374
19.0200 12.6482 0.9367
19.0400 12.6615 0.9393
19.0600 12.6749 0.9375
19.0800 12.6882 0.9411
19.1000 12.7014 0.9391
19.1200 12.7148 0.9424
19.1400 12.7281 0.9404
19.1600 12.7415 0.9430
19.1800 12.7547 0.9427
19.2000 12.7681 0.9437
19.2200 12.7814 0.9417
19.2400 12.7948 0.9426
19.2600 12.8081 0.9410
19.2800 12.8214 0.9449
19.3000 12.8348 0.9435
19.3200 12.8482 0.9466
19.3400 12.8615 0.9450
19.3600 12.8748 0.9474
19.3800 12.8882 0.9473
19.4000 12.9015 0.9497
19.4200 12.9149 0.9487
19.4400 12.9282 0.9494
19.4600 12.9415 0.9509
19.4800 12.9548 0.9516
19.5000 12.9682 0.9518
19.5200 12.9815 0.9527
19.5400 12.9948 0.9546
19.5600 13.0081 0.9527
19.5800 13.0214 0.9561
19.6000 13.0348 0.9551
19.6200 13.0481 0.9566
19.6400 13.0615 0.9564
19.6600 13.0748 0.9577
19.6800 13.0882 0.9585
19.7000 13.1015 0.9576
19.7200 13.1148 0.9616
19.7400 13.1282 0.9583
19.7600 13.1415 0.9626
19.7800 13.1549 0.9603
19.8000 13.1682 0.9631
19.8200 13.1815 0.9615
19.8400 13.1948 0.9648
19.8600 13.2082 0.9633
19.8800 13.2215 0.9651
19.9000 13.2348 0.9658
19.9200 13.2481 0.9653
19.9400 13.2614 0.9672
19.9600 13.2747 0.9658
19.9800 13.2880 0.9692
20.0000 13.3014 0.9663
20.0200 13.3148 0.9718
20.0400 13.3282 0.9673
20.0600 13.3415 0.9727
20.0800 13.3548 0.9699
20.1000 13.3682 0.9737
20.1200 13.3815 0.9712
20.1400 13.3949 0.9740
20.1600 13.4082 0.9729
20.1800 13.4215 0.9751
20.2000 13.4348 0.9755
20.2200 13.4482 0.9765
20.2400 13.4615 0.9768
20.2600 13.4748 0.9774
20.2800 13.4881 0.9782
20.3000 13.5014 0.9751
20.3200 13.5148 0.9769
20.3400 13.5281 0.9744
20.3600 13.5414 0.9786
20.3800 13.5548 0.9760
20.4000 13.5682 0.9806
20.4200 13.5815 0.9776
20.4400 13.5948 0.9828
20.4600 13.6082 0.9790
20.4800 13.6215 0.9836
20.5000 13.6349 0.9810
20.5200 13.6482 0.9846
20.5400 13.6615 0.9829
20.5600 13.6748 0.9854
20.5800 13.6881 0.9849
20.6000 13.7014 0.9852
20.6200 13.7148 0.9879
20.6400 13.7281 0.9860
20.6600 13.7414 0.9898
20.6800 13.7548 0.9861
20.7000 13.7682 0.9914
20.7200 13.7815 0.9870
20.7400 13.7948 0.9942
20.7600 13.8082 0.9879
20.7800 13.8215 0.9940
20.8000 13.8348 0.9908
20.8200 13.8481 0.9947
20.8400 13.8615 0.9929
20.8600 13.8748 0.9951
20.8800 13.8882 0.9949
20.9000 13.9015 0.9948
20.9200 13.9148 0.9975
20.9400 13.9282 0.9955
20.9600 13.9415 0.9988
20.9800 13.9548 0.9966
21.0000 13.9681 1.0009
21.0200 13.9814 0.9970
21.0400 13.9948 1.0026
21.0600 14.0081 0.9985
21.0800 14.0214 1.0033
21.1000 14.0348 1.0009
21.1200 14.0481 1.0038
21.1400 14.0615 1.0018
21.1600 14.0748 1.0056
21.1800 14.0882 1.0037
21.2000 14.1015 1.0063
21.2200 14.1149 1.0052
21.2400 14.1282 1.0069
21.2600 14.1415 1.0070
21.2800 14.1548 1.0080
21.3000 14.1681 1.0097
21.3200 14.1815 1.0078
21.3400 14.1948 1.0116
21.3600 14.2081 1.0055
21.3800 14.2214 1.0047
21.4000 14.2348 1.0034
21.4200 14.2481 1.0062
21.4400 14.2614 1.0055
21.4600 14.2748 1.0096
21.4800 14.2881 1.0084
21.5000 14.3015 1.0104
21.5200 14.3148 1.0112
21.5400 14.3282 1.0117
21.5600 14.3415 1.0131
21.5800 14.3549 1.0124
21.6000 14.3682 1.0158
21.6200 14.3815 1.0130
21.6400 14.3948 1.0183
21.6600 14.4081 1.0140
21.6800 14.4215 1.0182
21.7000 14.4348 1.0157
21.7200 14.4481 1.0203
21.7400 14.4614 1.0176
21.7600 14.4748 1.0204
21.7800 14.4881 1.0195
21.8000 14.5014 1.0216
21.8200 14.5148 1.0217
21.8400 14.5281 1.0225
21.8600 14.5415 1.0233
21.8800 14.5548 1.0232
21.9000 14.5682 1.0256
21.9200 14.5815 1.0226
21.9400 14.5949 1.0280
21.9600 14.6082 1.0240
21.9800 14.6215 1.0286
22.0000 14.6348 1.0256
22.0200 14.6482 1.0311
22.0400 14.6615 1.0262
22.0600 14.6748 1.0309
22.0800 14.6881 1.0296
22.1000 14.7014 1.0315
22.1200 14.7148 1.0305
22.1400 14.7281 1.0319
22.1600 14.7414 1.0323
22.1800 14.7548 1.0329
22.2000 14.7682 1.0347
22.2200 14.7816 1.0323
22.2400 14.7949 1.0365
22.2600 14.8082 1.0344
22.2800 14.8215 1.0380
22.3000 14.8349 1.0355
22.3200 14.8482 1.0394
22.3400 14.8615 1.0364
22.3600 14.8748 1.0409
22.3800 14.8881 1.0394
22.4000 14.9014 1.0408
22.4200 14.9148 1.0404
22.4400 14.9281 1.0423
22.4600 14.9414 1.0412
22.4800 14.9548 1.0438
22.5000 14.9681 1.0434
22.5200 14.9814 1.0437
22.5400 14.9948 1.0454
22.5600 15.0082 1.0448
22.5800 15.0215 1.0468
22.6000 15.0349 1.0450
22.6200 15.0482 1.0494
22.6400 15.0615 1.0452
22.6600 15.0749 1.0507
22.6800 15.0882 1.0477
22.7000 15.1015 1.0513
22.7200 15.1148 1.0492
22.7400 15.1281 1.0525
22.7600 15.1415 1.0492
22.7800 15.1548 1.0525
22.8000 15.1681 1.0516
22.8200 15.1814 1.0535
22.8400 15.1948 1.0530
22.8600 15.2081 1.0545
22.8800 15.2214 1.0550
22.9000 15.2348 1.0548
22.9200 15.2481 1.0571
22.9400 15.2615 1.0553
22.9600 15.2748 1.0592
22.9800 15.2881 1.0567
23.0000 15.3015 1.0589
23.0200 15.3148 1.0589
23.0400 15.3282 1.0610
23.0600 15.3415 1.0595
23.0800 15.3548 1.0626
23.1000 15.3682 1.0615
23.1200 15.3815 1.0626
23.1400 15.3948 1.0633
23.1600 15.4081 1.0640
23.1800 15.4214 1.0643
23.2000 15.4347 1.0643
23.2200 15.4481 1.0666
23.2400 15.4614 1.0648
23.2600 15.4747 1.0683
23.2800 15.4881 1.0667
23.3000 15.5015 1.0684
23.3200 15.5149 1.0679
23.3400 15.5282 1.0704
23.3600 15.5415 1.0685
23.3800 15.5549 1.0704
23.4000 15.5682 1.0707
23.4200 15.5815 1.0715
23.4400 15.5948 1.0721
23.4600 15.6081 1.0733
23.4800 15.6215 1.0731
23.5000 15.6348 1.0738
23.5200 15.6481 1.0758
23.5400 15.6614 1.0740
23.5600 15.6748 1.0769
23.5800 15.6881 1.0755
23.6000 15.7015 1.0783
23.6200 15.7148 1.0754
23.6400 15.7282 1.0793
23.6600 15.7415 1.0745
23.6800 15.7549 1.0796
23.7000 15.7682 1.0774
23.7200 15.7815 1.0808
23.7400 15.7949 1.0794
23.7600 15.8082 1.0821
23.7800 15.8215 1.0802
23.8000 15.8348 1.0833
23.8200 15.8481 1.0831
23.8400 15.8615 1.0827
23.8600 15.8748 1.0851
23.8800 15.8881 1.0839
23.9000 15.9014 1.0869
23.9200 15.9147 1.0840
23.9400 15.9281 1.0892
23.9600 15.9414 1.0852
23.9800 15.9548 1.0897
24.0000 15.9681 1.0877
24.0200 15.9815 1.0897
24.0400 15.9949 1.0888
24.0600 16.0082 1.0910
24.0800 16.0215 1.0906
24.1000 16.0349 1.0912
24.1200 16.0482 1.0929
24.1400 16.0615 1.0918
24.1600 16.0748 1.0943
24.1800 16.0881 1.0932
24.2000 16.1015 1.0958
24.2200 16.1148 1.0938
24.2400 16.1281 1.0982
24.2600 16.1414 1.0942
24.2800 16.1547 1.0986
24.3000 16.1681 1.0969
24.3200 16.1814 1.0990
24.3400 16.1948 1.0978
24.3600 16.2082 1.1002
24.3800 16.2215 1.0991
24.4000 16.2349 1.1001
24.4200 16.2482 1.1007
24.4400 16.2615 1.1009
24.4600 16.2749 1.1017
24.4800 16.2882 1.1015
24.5000 16.3015 1.1035
24.5200 16.3148 1.1020
24.5400 16.3281 1.1061
24.5600 16.3415 1.1024
24.5800 16.3548 1.1066
24.6000 16.3681 1.1043
24.6200 16.3814 1.1077
24.6400 16.3948 1.1049
24.6600 16.4081 1.1090
24.6800 16.4214 1.1069
24.7000 16.4348 1.1087
24.7200 16.4481 1.1085
24.7400 16.4615 1.1087
24.7600 16.4749 1.1080
24.7800 16.4882 1.1102
24.8000 16.5014 1.1109
24.8200 16.5148 1.1104
24.8400 16.5282 1.1128
24.8600 16.5415 1.1114
24.8800 16.5548 1.1141
24.9000 16.5682 1.1134
24.9200 16.5815 1.1160
24.9400 16.5948 1.1145
24.9600 16.6081 1.1171
24.9800 16.6214 1.1163
25.0000 16.6348 1.1175
25.0200 16.6481 1.1187
25.0400 16.6615 1.1184
25.0600 16.6748 1.1193
25.0800 16.6881 1.1202
25.1000 16.7015 1.1215
25.1200 16.7149 1.1203
25.1400 16.7282 1.1238
25.1600 16.7415 1.1209
25.1800 16.7548 1.1250
25.2000 16.7682 1.1225
25.2200 16.7815 1.1266
25.2400 16.7948 1.1238
25.2600 16.8081 1.1282
25.2800 16.8215 1.1259
25.3000 16.8348 1.1271
25.3200 16.8481 1.1287
25.3400 16.8614 1.1293
25.3600 16.8747 1.1291
25.3800 16.8881 1.1304
25.4000 16.9014 1.1304
25.4200 16.9147 1.1310
25.4400 16.9281 1.1329
25.4600 16.9415 1.1317
25.4800 16.9549 1.1338
25.5000 16.9682 1.1327
25.5200 16.9815 1.1356
25.5400 16.9949 1.1333
25.5600 17.0082 1.1375
25.5800 17.0215 1.1356
25.6000 17.0348 1.1371
25.6200 17.0481 1.1356
25.6400 17.0614 1.1376
25.6600 17.0748 1.1362
25.6800 17.0881 1.1391
25.7000 17.1014 1.1388
25.7200 17.1148 1.1394
25.7400 17.1281 1.1405
25.7600 17.1415 1.1391
25.7800 17.1548 1.1415
25.8000 17.1682 1.1411
25.8200 17.1815 1.1440
25.8400 17.1949 1.1407
25.8600 17.2082 1.1461
25.8800 17.2215 1.1431
25.9000 17.2348 1.1466
25.9200 17.2482 1.1449
25.9400 17.2615 1.1485
25.9600 17.2748 1.1458
25.9800 17.2881 1.1491
26.0000 17.3015 1.1486
26.0200 17.3148 1.1488
26.0400 17.3281 1.1509
26.0600 17.3414 1.1506
26.0800 17.3548 1.1516
26.1000 17.3681 1.1514
26.1200 17.3815 1.1544
26.1400 17.3948 1.1518
26.1600 17.4081 1.1562
26.1800 17.4215 1.1537
26.2000 17.4349 1.1562
26.2200 17.4482 1.1549
26.2400 17.4615 1.1577
26.2600 17.4748 1.1567
26.2800 17.4882 1.1593
26.3000 17.5015 1.1583
26.3200 17.5148 1.1593
26.3400 17.5281 1.1606
26.3600 17.5415 1.1614
26.3800 17.5548 1.1605
26.4000 17.5681 1.1626
26.4200 17.5814 1.1633
26.4400 17.5947 1.1629
26.4600 17.6081 1.1651
26.4800 17.6215 1.1635
26.5000 17.6348 1.1665
26.5200 17.6481 1.1646
26.5400 17.6615 1.1687
26.5600 17.6749 1.1652
26.5800 17.6882 1.1705
26.6000 17.7015 1.1681
26.6200 17.7148 1.1701
26.6400 17.7282 1.1700
26.6600 17.7415 1.1723
26.6800 17.7548 1.1709
26.7000 17.7681 1.1735
26.7200 17.7815 1.1734
26.7400 17.7948 1.1716
26.7600 17.8081 1.1735
26.7800 17.8214 1.1719
26.8000 17.8348 1.1735
26.8200 17.8481 1.1714
26.8400 17.8615 1.1762
26.8600 17.8748 1.1722
26.8800 17.8881 1.1777
26.9000 17.9015 1.1753
26.9200 17.9148 1.1775
26.9400 17.9282 1.1770
26.9600 17.9415 1.1803
26.9800 17.9548 1.1782
27.0000 17.9682 1.1814
27.0200 17.9816 1.1802
27.0400 17.9949 1.1817
27.0600 18.0081 1.1830
27.0800 18.0215 1.1835
27.1000 18.0348 1.1841
27.1200 18.0481 1.1838
27.1400 18.0614 1.1870
27.1600 18.0747 1.1836
27.1800 18.0881 1.1884
27.2000 18.1014 1.1860
27.2200 18.1147 1.1892
27.2400 18.1281 1.1871
27.2600 18.1415 1.1910
27.2800 18.1549 1.1882
27.3000 18.1682 1.1922
27.3200 18.1815 1.1908
27.3400 18.1948 1.1924
27.3600 18.2082 1.1922
27.3800 18.2216 1.1941
27.4000 18.2348 1.1940
27.4200 18.2481 1.1948
27.4400 18.2615 1.1974
27.4600 18.2748 1.1941
27.4800 18.2881 1.1985
27.5000 18.3014 1.1965
27.5200 18.3147 1.1997
27.5400 18.3281 1.1972
27.5600 18.3414 1.2017
27.5800 18.3548 1.1986
27.6000 18.3681 1.2030
27.6200 18.3815 1.2003
27.6400 18.3949 1.2033
27.6600 18.4082 1.2021
27.6800 18.4215 1.2050
27.7000 18.4348 1.2039
27.7200 18.4482 1.2050
27.7400 18.4615 1.2068
27.7600 18.4748 1.2050
27.7800 18.4881 1.2091
27.8000 18.5015 1.2064
27.8200 18.5148 1.2099
27.8400 18.5281 1.2073
27.8600 18.5414 1.2112
27.8800 18.5547 1.2079
27.9000 18.5681 1.2124
27.9200 18.5815 1.2101
27.9400 18.5948 1.2124
27.9600 18.6082 1.2118
27.9800 18.6215 1.2146
28.0000 18.6349 1.2133
28.0200 18.6482 1.2143
28.0400 18.6615 1.2164
28.0600 18.6748 1.2149
28.0800 18.6882 1.2176
28.1000 18.7015 1.2161
28.1200 18.7148 1.2196
28.1400 18.7282 1.2171
28.1600 18.7415 1.2217
28.1800 18.7549 1.2186
28.2000 18.7682 1.2221
28.2200 18.7815 1.2209
28.2400 18.7948 1.2231
28.2600 18.8081 1.2221
28.2800 18.8214 1.2248
28.3000 18.8347 1.2232
28.3200 18.8481 1.2255
28.3400 18.8614 1.2259
28.3600 18.8748 1.2260
28.3800 18.8882 1.2274
28.4000 18.9015 1.2281
28.4200 18.9148 1.2281
28.4400 18.9282 1.2267
28.4600 18.9415 1.2289
28.4800 18.9549 1.2265
28.5000 18.9681 1.2311
28.5200 18.9815 1.2295
28.5400 18.9948 1.2313
28.5600 19.0082 1.2308
28.5800 19.0214 1.2341
28.6000 19.0347 1.2320
28.6200 19.0481 1.2351
28.6400 19.0614 1.2344
28.6600 19.0748 1.2362
28.6800 19.0881 1.2352
28.7000 19.1015 1.2378
28.7200 19.1149 1.2377
28.7400 19.1282 1.2374
28.7600 19.1415 1.2411
28.7800 19.1548 1.2384
28.8000 19.1682 1.2422
28.8200 19.1815 1.2402
28.8400 19.1948 1.2440
28.8600 19.2081 1.2410
28.8800 19.2215 1.2466
28.9000 19.2348 1.2419
28.9200 19.2481 1.2464
28.9400 19.2614 1.2454
28.9600 19.2747 1.2478
28.9800 19.2881 1.2461
29.0000 19.3015 1.2487
29.0200 19.3148 1.2478
29.0400 19.3281 1.2491
29.0600 19.3415 1.2513
29.0800 19.3548 1.2492
29.1000 19.3682 1.2526
29.1200 19.3815 1.2508
29.1400 19.3948 1.2540
29.1600 19.4082 1.2522
29.1800 19.4216 1.2556
29.2000 19.4349 1.2536
29.2200 19.4482 1.2561
29.2400 19.4615 1.2562
29.2600 19.4748 1.2575
29.2800 19.4882 1.2566
29.3000 19.5014 1.2593
29.3200 19.5147 1.2581
29.3400 19.5281 1.2602
29.3600 19.5414 1.2606
29.3800 19.5548 1.2601
29.4000 19.5681 1.2624
29.4200 19.5815 1.2607
29.4400 19.5949 1.2631
29.4600 19.6082 1.2605
29.4800 19.6215 1.2647
29.5000 19.6348 1.2623
29.5200 19.6482 1.2663
29.5400 19.6615 1.2639
29.5600 19.6748 1.2686
29.5800 19.6881 1.2647
29.6000 19.7014 1.2700
29.6200 19.7148 1.2668
29.6400 19.7281 1.2704
29.6600 19.7414 1.2694
29.6800 19.7547 1.2714
29.7000 19.7681 1.2706
29.7200 19.7814 1.2722
29.7400 19.7948 1.2737
29.7600 19.8081 1.2725
29.7800 19.8215 1.2762
29.8000 19.8349 1.2735
29.8200 19.8482 1.2770
29.8400 19.8615 1.2750
29.8600 19.8748 1.2790
29.8800 19.8882 1.2746
29.9000 19.9016 1.2771
29.9200 19.9148 1.2729
29.9400 19.9281 1.2752
29.9600 19.9414 1.2754
29.9800 19.9548 1.2765
30.0000 19.9681 1.2786
30.0200 19.9814 1.2781
30.0400 19.9947 1.2814
30.0600 20.0081 1.2792
30.0800 20.0215 1.2843
30.1000 20.0348 1.2809
30.1200 20.0481 1.2847
30.1400 20.0615 1.2836
30.1600 20.0748 1.2860
30.1800 20.0882 1.2841
30.2000 20.1015 1.2875
30.2200 20.1148 1.2873
30.2400 20.1281 1.2879
30.2600 20.1415 1.2897
30.2800 20.1548 1.2898
30.3000 20.1682 1.2907
30.3200 20.1815 1.2916
30.3400 20.1949 1.2926
30.3600 20.2082 1.2916
30.3800 20.2215 1.2951
30.4000 20.2348 1.2935
30.4200 20.2481 1.2961
30.4400 20.2614 1.2946
30.4600 20.2747 1.2987
30.4800 20.2881 1.2956
30.5000 20.3014 1.3002
30.5200 20.3148 1.2976
30.5400 20.3282 1.3006
30.5600 20.3415 1.2995
30.5800 20.3548 1.3029
30.6000 20.3682 1.3005
30.6200 20.3816 1.3040
30.6400 20.3949 1.3027
30.6600 20.4082 1.3036
30.6800 20.4215 1.3061
30.7000 20.4348 1.3049
30.7200 20.4481 1.3069
30.7400 20.4614 1.3056
30.7600 20.4747 1.3097
30.7800 20.4881 1.3064
30.8000 20.5014 1.3110
30.8200 20.5148 1.3088
30.8400 20.5281 1.3118
30.8600 20.5415 1.3104
30.8800 20.5548 1.3133
30.9000 20.5682 1.3119
30.9200 20.5815 1.3147
30.9400 20.5948 1.3152
30.9600 20.6082 1.3136
30.9800 20.6215 1.3174
31.0000 20.6349 1.3142
31.0200 20.6482 1.3173
31.0400 20.6615 1.3151
31.0600 20.6748 1.3192
31.0800 20.6882 1.3165
31.1000 20.7014 1.3211
31.1200 20.7147 1.3195
31.1400 20.7281 1.3209
31.1600 20.7414 1.3220
31.1800 20.7548 1.3229
31.2000 20.7681 1.3221
31.2200 20.7814 1.3249
31.2400 20.7948 1.3251
31.2600 20.8082 1.3256
31.2800 20.8216 1.3259
31.3000 20.8349 1.3277
31.3200 20.8482 1.3281
31.3400 20.8616 1.3289
31.3600 20.8749 1.3300
31.3800 20.8882 1.3296
31.4000 20.9015 1.3318
31.4200 20.9148 1.3320
31.4400 20.9282 1.3325
31.4600 20.9415 1.3330
31.4800 20.9548 1.3359
31.5000 20.9681 1.3334
31.5200 20.9814 1.3374
31.5400 20.9948 1.3355
31.5600 21.0081 1.3383
31.5800 21.0215 1.3370
31.6000 21.0348 1.3406
31.6200 21.0482 1.3391
31.6400 21.0615 1.3401
31.6600 21.0748 1.3427
31.6800 21.0882 1.3409
31.7000 21.1016 1.3441
31.7200 21.1149 1.3431
31.7400 21.1282 1.3449
31.7600 21.1415 1.3443
31.7800 21.1548 1.3477
31.8000 21.1682 1.3453
31.8200 21.1815 1.3483
31.8400 21.1948 1.3482
31.8600 21.2081 1.3487
31.8800 21.2215 1.3499
31.9000 21.2348 1.3500
31.9200 21.2481 1.3509
31.9400 21.2614 1.3493
31.9600 21.2748 1.3524
31.9800 21.2882 1.3477
32.0000 21.3015 1.3531
32.0200 21.3148 1.3505
32.0400 21.3281 1.3546
32.0600 21.3415 1.3525
32.0800 21.3549 1.3561
32.1000 21.3682 1.3554
32.1200 21.3815 1.3575
32.1400 21.3948 1.3577
32.1600 21.4082 1.3589
32.1800 21.4215 1.3592
32.2000 21.4348 1.3606
32.2200 21.4481 1.3604
32.2400 21.4614 1.3618
32.2600 21.4748 1.3633
32.2800 21.4881 1.3624
32.3000 21.5014 1.3649
32.3200 21.5148 1.3651
32.3400 21.5282 1.3665
32.3600 21.5415 1.3650
32.3800 21.5548 1.3684
32.4000 21.5681 1.3654
32.4200 21.5815 1.3692
32.4400 21.5948 1.3668
32.4600 21.6081 1.3716
32.4800 21.6215 1.3683
32.5000 21.6348 1.3743
32.5200 21.6482 1.3699
32.5400 21.6615 1.3740
32.5600 21.6748 1.3731
32.5800 21.6881 1.3749
32.6000 21.7014 1.3751
32.6200 21.7148 1.3762
32.6400 21.7281 1.3777
32.6600 21.7414 1.3762
32.6800 21.7548 1.3807
32.7000 21.7682 1.3774
32.7200 21.7816 1.3816
32.7400 21.7949 1.3798
32.7600 21.8082 1.3828
32.7800 21.8216 1.3822
32.8000 21.8349 1.3846
32.8200 21.8482 1.3839
32.8400 21.8614 1.3853
32.8600 21.8748 1.3869
32.8800 21.8881 1.3859
32.9000 21.9014 1.3884
32.9200 21.9147 1.3879
32.9400 21.9281 1.3902
32.9600 21.9415 1.3884
32.9800 21.9548 1.3929
33.0000 21.9682 1.3899
33.0200 21.9815 1.3938
33.0400 21.9948 1.3929
33.0600 22.0082 1.3949
33.0800 22.0216 1.3940
33.1000 22.0348 1.3969
33.1200 22.0482 1.3961
33.1400 22.0615 1.3981
33.1600 22.0749 1.3981
33.1800 22.0882 1.3992
33.2000 22.1014 1.3996
33.2200 22.1148 1.4015
33.2400 22.1281 1.4012
33.2600 22.1415 1.4022
33.2800 22.1548 1.4043
33.3000 22.1681 1.4033
33.3200 22.1814 1.4059
33.3400 22.1948 1.4049
33.3600 22.2081 1.4077
33.3800 22.2214 1.4060
33.4000 22.2348 1.4094
33.4200 22.2482 1.4052
33.4400 22.2615 1.4078
33.4600 22.2748 1.4063
33.4800 22.2882 1.4096
33.5000 22.3015 1.4075
33.5200 22.3149 1.4114
33.5400 22.3282 1.4109
33.5600 22.3415 1.4117
33.5800 22.3548 1.4147
33.6000 22.3681 1.4130
33.6200 22.3815 1.4163
33.6400 22.3947 1.4145
33.6600 22.4081 1.4191
33.6800 22.4214 1.4155
33.7000 22.4348 1.4206
33.7200 22.4481 1.4180
33.7400 22.4614 1.4214
33.7600 22.4748 1.4206
33.7800 22.4882 1.4226
33.8000 22.5015 1.4224
33.8200 22.5149 1.4243
33.8400 22.5282 1.4248
33.8600 22.5415 1.4248
33.8800 22.5549 1.4275
33.9000 22.5682 1.4256
33.9200 22.5815 1.4292
33.9400 22.5948 1.4279
33.9600 22.6081 1.4314
33.9800 22.6215 1.4283
34.0000 22.6348 1.4332
34.0200 22.6481 1.4309
34.0400 22.6614 1.4340
34.0600 22.6748 1.4327
34.0800 22.6881 1.4367
34.1000 22.7014 1.4336
34.1200 22.7148 1.4384
34.1400 22.7282 1.4355
34.1600 22.7415 1.4393
34.1800 22.7548 1.4389
34.2000 22.7681 1.4407
34.2200 22.7815 1.4402
34.2400 22.7949 1.4420
34.2600 22.8082 1.4430
34.2800 22.8215 1.4419
34.3000 22.8348 1.4457
34.3200 22.8482 1.4444
34.3400 22.8615 1.4464
34.3600 22.8748 1.4457
34.3800 22.8881 1.4495
34.4000 22.9014 1.4466
34.4200 22.9147 1.4520
34.4400 22.9281 1.4485
34.4600 22.9414 1.4531
34.4800 22.9548 1.4505
34.5000 22.9682 1.4548
34.5200 22.9816 1.4522
34.5400 22.9948 1.4562
34.5600 23.0081 1.4555
34.5800 23.0215 1.4552
34.6000 23.0349 1.4564
34.6200 23.0482 1.4538
34.6400 23.0615 1.4553
34.6600 23.0748 1.4535
34.6800 23.0881 1.4573
34.7000 23.1015 1.4550
34.7200 23.1148 1.4609
34.7400 23.1281 1.4576
34.7600 23.1414 1.4619
34.7800 23.1548 1.4606
34.8000 23.1681 1.4640
34.8200 23.1814 1.4625
34.8400 23.1948 1.4654
34.8600 23.2082 1.4655
34.8800 23.2215 1.4666
34.9000 23.2349 1.4686
34.9200 23.2482 1.4682
34.9400 23.2615 1.4700
34.9600 23.2749 1.4702
34.9800 23.2882 1.4727
35.0000 23.3015 1.4699
35.0200 23.3148 1.4729
35.0400 23.3281 1.4709
35.0600 23.3415 1.4737
35.0800 23.3548 1.4730
35.1000 23.3681 1.4766
35.1200 23.3814 1.4742
35.1400 23.3948 1.4783
35.1600 23.4082 1.4774
35.1800 23.4215 1.4798
35.2000 23.4348 1.4796
35.2200 23.4482 1.4809
35.2400 23.4615 1.4818
35.2600 23.4748 1.4820
35.2800 23.4881 1.4853
35.3000 23.5015 1.4829
35.3200 23.5148 1.4866
35.3400 23.5282 1.4854
35.3600 23.5415 1.4884
35.3800 23.5548 1.4869
35.4000 23.5682 1.4916
35.4200 23.5815 1.4879
35.4400 23.5948 1.4928
35.4600 23.6081 1.4915
35.4800 23.6214 1.4932
35.5000 23.6348 1.4945
35.5200 23.6481 1.4948
35.5400 23.6614 1.4966
35.5600 23.6748 1.4961
35.5800 23.6881 1.4997
35.6000 23.7015 1.4961
35.6200 23.7148 1.5021
35.6400 23.7282 1.4987
35.6600 23.7415 1.5034
35.6800 23.7549 1.4996
35.7000 23.7682 1.5047
35.7200 23.7815 1.5005
35.7400 23.7948 1.5060
35.7600 23.8082 1.5029
35.7800 23.8215 1.5056
35.8000 23.8348 1.5058
35.8200 23.8481 1.5079
35.8400 23.8614 1.5082
35.8600 23.8747 1.5090
35.8800 23.8881 1.5113
35.9000 23.9014 1.5094
35.9200 23.9147 1.5138
35.9400 23.9281 1.5123
35.9600 23.9415 1.5157
35.9800 23.9548 1.5134
36.0000 23.9681 1.5183
36.0200 23.9815 1.5159
36.0400 23.9948 1.5203
36.0600 24.0082 1.5181
36.0800 24.0215 1.5220
36.1000 24.0348 1.5198
36.1200 24.0481 1.5239
36.1400 24.0615 1.5217
36.1600 24.0748 1.5249
36.1800 24.0881 1.5254
36.2000 24.1014 1.5250
36.2200 24.1148 1.5276
36.2400 24.1281 1.5271
36.2600 24.1414 1.5298
36.2800 24.1548 1.5289
36.3000 24.1681 1.5323
36.3200 24.1815 1.5305
36.3400 24.1948 1.5339
36.3600 24.2081 1.5328
36.3800 24.2215 1.5360
36.4000 24.2349 1.5344
36.4200 24.2482 1.5387
36.4400 24.2615 1.5364
36.4600 24.2748 1.5395
36.4800 24.2882 1.5406
36.5000 24.3015 1.5400
36.5200 24.3148 1.5426
36.5400 24.3281 1.5422
36.5600 24.3414 1.5444
36.5800 24.3548 1.5429
36.6000 24.3681 1.5458
36.6200 24.3814 1.5433
36.6400 24.3948 1.5458
36.6600 24.4082 1.5437
36.6800 24.4216 1.5470
36.7000 24.4349 1.5456
36.7200 24.4482 1.5500
36.7400 24.4615 1.5485
36.7600 24.4749 1.5519
36.7800 24.4882 1.5519
36.8000 24.5015 1.5528
36.8200 24.5148 1.5549
36.8400 24.5281 1.5544
36.8600 24.5414 1.5572
36.8800 24.5548 1.5562
36.9000 24.5681 1.5600
36.9200 24.5814 1.5575
36.9400 24.5948 1.5620
36.9600 24.6081 1.5602
36.9800 24.6215 1.5642
37.0000 24.6348 1.5619
37.0200 24.6482 1.5669
37.0400 24.6616 1.5633
37.0600 24.6749 1.5675
37.0800 24.6882 1.5676
37.1000 24.7015 1.5690
37.1200 24.7149 1.5695
37.1400 24.7282 1.5707
37.1600 24.7415 1.5724
37.1800 24.7548 1.5720
37.2000 24.7681 1.5756
37.2200 24.7815 1.5733
37.2400 24.7948 1.5770
37.2600 24.8081 1.5760
37.2800 24.8214 1.5791
37.3000 24.8347 1.5783
37.3200 24.8481 1.5820
37.3400 24.8614 1.5794
37.3600 24.8748 1.5838
37.3800 24.8881 1.5819
37.4000 24.9015 1.5856
37.4200 24.9148 1.5836
37.4400 24.9281 1.5878
37.4600 24.9415 1.5864
37.4800 24.9548 1.5895
37.5000 24.9682 1.5898
37.5200 24.9815 1.5888
37.5400 24.9948 1.5896
37.5600 25.0082 1.5901
37.5800 25.0215 1.5924
37.6000 25.0349 1.5911
37.6200 25.0481 1.5962
37.6400 25.0614 1.5928
37.6600 25.0747 1.5986
37.6800 25.0881 1.5952
37.7000 25.1014 1.6009
37.7200 25.1147 1.5965
37.7400 25.1281 1.6018
37.7600 25.1415 1.5977
37.7800 25.1549 1.6016
37.8000 25.1682 1.6006
37.8200 25.1815 1.6029
37.8400 25.1949 1.6028
37.8600 25.2082 1.6046
37.8800 25.2215 1.6076
37.9000 25.2348 1.6056
37.9200 25.2481 1.6108
37.9400 25.2615 1.6084
37.9600 25.2748 1.6119
37.9800 25.2881 1.6109
38.0000 25.3014 1.6153
38.0200 25.3147 1.6125
38.0400 25.3281 1.6170
38.0600 25.3414 1.6158
38.0800 25.3548 1.6189
38.1000 25.3681 1.6184
38.1200 25.3815 1.6200
38.1400 25.3949 1.6212
38.1600 25.4082 1.6225
38.1800 25.4215 1.6242
38.2000 25.4349 1.6234
38.2200 25.4482 1.6268
38.2400 25.4615 1.6264
38.2600 25.4748 1.6288
38.2800 25.4881 1.6292
38.3000 25.5015 1.6319
38.3200 25.5148 1.6293
38.3400 25.5281 1.6346
38.3600 25.5414 1.6322
38.3800 25.5548 1.6363
38.4000 25.5681 1.6350
38.4200 25.5815 1.6381
38.4400 25.5948 1.6373
38.4600 25.6081 1.6401
38.4800 25.6215 1.6411
38.5000 25.6349 1.6406
38.5200 25.6482 1.6442
38.5400 25.6615 1.6432
38.5600 25.6749 1.6460
38.5800 25.6882 1.6449
38.6000 25.7016 1.6494
38.6200 25.7148 1.6465
38.6400 25.7281 1.6518
38.6600 25.7415 1.6483
38.6800 25.7548 1.6521
38.7000 25.7681 1.6495
38.7200 25.7814 1.6525
38.7400 25.7947 1.6495
38.7600 25.8081 1.6516
38.7800 25.8215 1.6528
38.8000 25.8348 1.6530
38.8200 25.8482 1.6570
38.8400 25.8615 1.6562
38.8600 25.8749 1.6593
38.8800 25.8882 1.6587
38.9000 25.9015 1.6631
38.9200 25.9149 1.6604
38.9400 25.9282 1.6655
38.9600 25.9415 1.6635
38.9800 25.9548 1.6678
39.0000 25.9681 1.6665
39.0200 25.9815 1.6697
39.0400 25.9948 1.6690
39.0600 26.0081 1.6717
39.0800 26.0214 1.6731
39.1000 26.0348 1.6726
39.1200 26.0481 1.6761
39.1400 26.0614 1.6743
39.1600 26.0748 1.6767
39.1800 26.0881 1.6764
39.2000 26.1015 1.6798
39.2200 26.1149 1.6778
39.2400 26.1282 1.6831
39.2600 26.1414 1.6802
39.2800 26.1548 1.6858
39.3000 26.1682 1.6834
39.3200 26.1815 1.6883
39.3400 26.1948 1.6855
39.3600 26.2081 1.6909
39.3800 26.2215 1.6893
39.4000 26.2348 1.6914
39.4200 26.2481 1.6929
39.4400 26.2614 1.6943
39.4600 26.2747 1.6951
39.4800 26.2881 1.6959
39.5000 26.3015 1.6992
39.5200 26.3148 1.6976
39.5400 26.3281 1.7015
39.5600 26.3415 1.6989
39.5800 26.3548 1.7019
39.6000 26.3682 1.7004
39.6200 26.3815 1.7047
39.6400 26.3948 1.7025
39.6600 26.4082 1.7074
39.6800 26.4215 1.7061
39.7000 26.4348 1.7088
39.7200 26.4481 1.7097
39.7400 26.4615 1.7117
39.7600 26.4748 1.7124
39.7800 26.4881 1.7134
39.8000 26.5014 1.7166
39.8200 26.5147 1.7151
39.8400 26.5281 1.7193
39.8600 26.5414 1.7183
39.8800 26.5547 1.7215
39.9000 26.5681 1.7209
39.9200 26.5815 1.7247
39.9400 26.5949 1.7227
39.9600 26.6082 1.7268
39.9800 26.6215 1.7268
40.0000 26.6349 1.7292
40.0200 26.6482 1.7292
40.0400 26.6615 1.7319
40.0600 26.6748 1.7324
40.0800 26.6881 1.7339
40.1000 26.7014 1.7358
40.1200 26.7148 1.7353
40.1400 26.7281 1.7389
40.1600 26.7414 1.7388
40.1800 26.7548 1.7406
40.2000 26.7681 1.7415
40.2200 26.7815 1.7438
40.2400 26.7948 1.7433
40.2600 26.8081 1.7463
40.2800 26.8215 1.7463
40.3000 26.8349 1.7488
40.3200 26.8482 1.7477
40.3400 26.8615 1.7515
40.3600 26.8748 1.7502
40.3800 26.8882 1.7515
40.4000 26.9015 1.7513
40.4200 26.9148 1.7511
40.4400 26.9281 1.7540
40.4600 26.9415 1.7546
40.4800 26.9548 1.7573
40.5000 26.9681 1.7575
40.5200 26.9814 1.7618
40.5400 26.9947 1.7601
40.5600 27.0081 1.7644
40.5800 27.0215 1.7627
40.6000 27.0348 1.7674
40.6200 27.0481 1.7660
40.6400 27.0615 1.7706
40.6600 27.0749 1.7690
40.6800 27.0882 1.7720
40.7000 27.1015 1.7737
40.7200 27.1148 1.7734
40.7400 27.1282 1.7778
40.7600 27.1415 1.7763
40.7800 27.1548 1.7788
40.8000 27.1681 1.7759
40.8200 27.1815 1.7803
40.8400 27.1948 1.7787
40.8600 27.2081 1.7837
40.8800 27.2214 1.7825
40.9000 27.2347 1.7870
40.9200 27.2481 1.7851
40.9400 27.2614 1.7903
40.9600 27.2748 1.7891
40.9800 27.2881 1.7930
41.0000 27.3015 1.7927
41.0200 27.3149 1.7947
41.0400 27.3282 1.7955
41.0600 27.3415 1.7972
41.0800 27.3548 1.7989
41.1000 27.3682 1.7984
41.1200 27.3815 1.8008
41.1400 27.3948 1.8010
41.1600 27.4081 1.8045
41.1800 27.4215 1.8046
41.2000 27.4348 1.8075
41.2200 27.4481 1.8072
41.2400 27.4614 1.8110
41.2600 27.4748 1.8103
41.2800 27.4881 1.8137
41.3000 27.5015 1.8143
41.3200 27.5148 1.8169
41.3400 27.5281 1.8179
41.3600 27.5415 1.8196
41.3800 27.5548 1.8220
41.4000 27.5682 1.8218
41.4200 27.5815 1.8259
41.4400 27.5948 1.8248
41.4600 27.6082 1.8290
41.4800 27.6216 1.8286
41.5000 27.6349 1.8327
41.5200 27.6482 1.8310
41.5400 27.6615 1.8359
41.5600 27.6748 1.8341
41.5800 27.6881 1.8389
41.6000 27.7014 1.8383
41.6200 27.7147 1.8416
41.6400 27.7281 1.8419
41.6600 27.7414 1.8431
41.6800 27.7547 1.8457
41.7000 27.7681 1.8448
41.7200 27.7815 1.8489
41.7400 27.7949 1.8469
41.7600 27.8082 1.8512
41.7800 27.8215 1.8475
41.8000 27.8348 1.8538
41.8200 27.8482 1.8502
41.8400 27.8616 1.8574
41.8600 27.8749 1.8547
41.8800 27.8881 1.8610
41.9000 27.9015 1.8589
41.9200 27.9148 1.8641
41.9400 27.9282 1.8625
41.9600 27.9414 1.8679
41.9800 27.9547 1.8681
42.0000 27.9681 1.8690
42.0200 27.9814 1.8707
42.0400 27.9947 1.8697
42.0600 28.0081 1.8733
42.0800 28.0215 1.8730
42.1000 28.0348 1.8781
42.1200 28.0482 1.8763
42.1400 28.0615 1.8826
42.1600 28.0749 1.8808
42.1800 28.0882 1.8858
42.2000 28.1016 1.8844
42.2200 28.1148 1.8898
42.2400 28.1281 1.8879
42.2600 28.1414 1.8932
42.2800 28.1548 1.8923
42.3000 28.1681 1.8955
42.3200 28.1814 1.8958
42.3400 28.1947 1.8990
42.3600 28.2081 1.9003
42.3800 28.2215 1.9017
42.4000 28.2348 1.9051
42.4200 28.2482 1.9043
42.4400 28.2615 1.9102
42.4600 28.2749 1.9076
42.4800 28.2882 1.9137
42.5000 28.3015 1.9121
42.5200 28.3148 1.9187
42.5400 28.3281 1.9151
42.5600 28.3415 1.9224
42.5800 28.3549 1.9203
42.6000 28.3682 1.9254
42.6200 28.3815 1.9252
42.6400 28.3949 1.9289
42.6600 28.4082 1.9295
42.6800 28.4215 1.9320
42.7000 28.4348 1.9350
42.7200 28.4481 1.9343
42.7400 28.4614 1.9396
42.7600 28.4748 1.9383
42.7800 28.4881 1.9434
42.8000 28.5014 1.9418
42.8200 28.5148 1.9471
42.8400 28.5282 1.9432
42.8600 28.5415 1.9462
42.8800 28.5548 1.9446
42.9000 28.5682 1.9500
42.9200 28.5816 1.9498
42.9400 28.5949 1.9539
42.9600 28.6082 1.9559
42.9800 28.6215 1.9583
43.0000 28.6348 1.9617
43.0200 28.6482 1.9613
43.0400 28.6614 1.9664
43.0600 28.6747 1.9675
43.0800 28.6881 1.9703
43.1000 28.7014 1.9707
43.1200 28.7148 1.9730
43.1400 28.7281 1.9710
43.1600 28.7414 1.9749
43.1800 28.7548 1.9755
43.2000 28.7682 1.9795
43.2200 28.7815 1.9808
43.2400 28.7948 1.9847
43.2600 28.8082 1.9855
43.2800 28.8215 1.9886
43.3000 28.8348 1.9917
43.3200 28.8481 1.9919
43.3400 28.8615 1.9966
43.3600 28.8748 1.9971
43.3800 28.8881 2.0011
43.4000 28.9014 2.0015
43.4200 28.9147 2.0066
43.4400 28.9281 2.0060
43.4600 28.9415 2.0124
43.4800 28.9548 2.0108
43.5000 28.9681 2.0180
43.5200 28.9815 2.0154
43.5400 28.9948 2.0231
43.5600 29.0082 2.0205
43.5800 29.0215 2.0274
43.6000 29.0348 2.0280
43.6200 29.0482 2.0314
43.6400 29.0616 2.0337
43.6600 29.0749 2.0363
43.6800 29.0882 2.0394
43.7000 29.1015 2.0405
43.7200 29.1148 2.0430
43.7400 29.1282 2.0396
43.7600 29.1415 2.0440
43.7800 29.1548 2.0447
43.8000 29.1681 2.0505
43.8200 29.1815 2.0502
43.8400 29.1948 2.0573
43.8600 29.2081 2.0565
43.8800 29.2215 2.0622
43.9000 29.2348 2.0641
43.9200 29.2482 2.0677
43.9400 29.2615 2.0700
43.9600 29.2748 2.0731
43.9800 29.2882 2.0754
44.0000 29.3015 2.0761
44.0200 29.3149 2.0781
44.0400 29.3281 2.0797
44.0600 29.3414 2.0836
44.0800 29.3547 2.0857
44.1000 29.3681 2.0896
44.1200 29.3814 2.0915
44.1400 29.3947 2.0971
44.1600 29.4081 2.0976
44.1800 29.4214 2.1026
44.2000 29.4348 2.1043
44.2200 29.4481 2.1096
44.2400 29.4615 2.1114
44.2600 29.4748 2.1164
44.2800 29.4882 2.1176
44.3000 29.5015 2.1226
44.3200 29.5148 2.1250
44.3400 29.5282 2.1290
44.3600 29.5415 2.1320
44.3800 29.5548 2.1343
44.4000 29.5681 2.1382
44.4200 29.5814 2.1362
44.4400 29.5948 2.1408
44.4600 29.6081 2.1404
44.4800 29.6214 2.1472
44.5000 29.6347 2.1488
44.5200 29.6481 2.1549
44.5400 29.6614 2.1561
44.5600 29.6748 2.1627
44.5800 29.6881 2.1640
44.6000 29.7014 2.1694
44.6200 29.7148 2.1724
44.6400 29.7282 2.1752
44.6600 29.7415 2.1798
44.6800 29.7548 2.1829
44.7000 29.7681 2.1877
44.7200 29.7815 2.1876
44.7400 29.7949 2.1932
44.7600 29.8082 2.1939
44.7800 29.8215 2.2001
44.8000 29.8349 2.2021
44.8200 29.8482 2.2077
44.8400 29.8615 2.2096
44.8600 29.8748 2.2160
44.8800 29.8881 2.2179
44.9000 29.9014 2.2225
44.9200 29.9147 2.2263
44.9400 29.9281 2.2259
44.9600 29.9414 2.2278
44.9800 29.9548 2.2299
45.0000 29.9682 2.2351
45.0200 29.9815 2.2379
45.0400 29.9949 2.2438
45.0480 30.0001 2.2414
45.0490 30.0007 2.2410
45.0500 30.0014 2.2406
45.0700 30.0119 2.2302
45.0900 30.0141 2.2184
45.1100 30.0059 2.2246
45.1300 29.9931 2.2240
45.1500 29.9803 2.2107
45.1700 29.9674 2.2026
45.1900 29.9539 2.1895
45.2100 29.9399 2.1842
45.2300 29.9258 2.1725
45.2500 29.9119 2.1680
45.2700 29.8984 2.1548
45.2900 29.8851 2.1497
45.3100 29.8719 2.1378
45.3300 29.8585 2.1343
45.3500 29.8451 2.1246
45.3700 29.8318 2.1196
45.3900 29.8185 2.1106
45.4100 29.8051 2.1057
45.4300 29.7918 2.0973
45.4500 29.7784 2.0922
45.4700 29.7651 2.0860
45.4900 29.7517 2.0778
45.5100 29.7384 2.0740
45.5300 29.7250 2.0655
45.5500 29.7117 2.0633
45.5700 29.6984 2.0533
45.5900 29.6850 2.0526
45.6100 29.6717 2.0416
45.6300 29.6583 2.0415
45.6500 29.6450 2.0311
45.6700 29.6317 2.0301
45.6900 29.6184 2.0216
45.7100 29.6050 2.0202
45.7300 29.5917 2.0120
45.7500 29.5785 2.0090
45.7700 29.5651 2.0043
45.7900 29.5518 1.9986
45.8100 29.5384 1.9945
45.8300 29.5251 1.9890
45.8500 29.5117 1.9859
45.8700 29.4984 1.9798
45.8900 29.4850 1.9772
45.9100 29.4717 1.9710
45.9300 29.4584 1.9682
45.9500 29.4450 1.9627
45.9700 29.4317 1.9600
45.9900 29.4183 1.9544
46.0100 29.4050 1.9517
46.0300 29.3917 1.9469
46.0500 29.3784 1.9425
46.0700 29.3651 1.9410
46.0900 29.3518 1.9349
46.1100 29.3385 1.9320
46.1300 29.3251 1.9274
46.1500 29.3118 1.9246
46.1700 29.2984 1.9199
46.1900 29.2851 1.9178
46.2100 29.2718 1.9121
46.2300 29.2584 1.9104
46.2500 29.2450 1.9051
46.2700 29.2317 1.9046
46.2900 29.2183 1.8971
46.3100 29.2050 1.8978
46.3300 29.1916 1.8907
46.3500 29.1783 1.8896
46.3700 29.1650 1.8854
46.3900 29.1517 1.8829
46.4100 29.1384 1.8785
46.4300 29.1250 1.8766
46.4500 29.1117 1.8733
46.4700 29.0984 1.8689
46.4900 29.0851 1.8683
46.5100 29.0718 1.8617
46.5300 29.0584 1.8621
46.5500 29.0450 1.8552
46.5700 29.0317 1.8566
46.5900 29.0183 1.8482
46.6100 29.0050 1.8513
46.6300 28.9916 1.8432
46.6500 28.9783 1.8443
46.6700 28.9650 1.8382
46.6900 28.9516 1.8378
46.7100 28.9383 1.8331
46.7300 28.9250 1.8319
46.7500 28.9117 1.8283
46.7700 28.8984 1.8247
46.7900 28.8850 1.8234
46.8100 28.8717 1.8203
46.8300 28.8584 1.8174
46.8500 28.8451 1.8141
46.8700 28.8318 1.8123
46.8900 28.8184 1.8082
46.9100 28.8051 1.8075
46.9300 28.7917 1.8029
46.9500 28.7783 1.8016
46.9700 28.7650 1.7983
46.9900 28.7516 1.7972
47.0100 28.7383 1.7924
47.0300 28.7250 1.7913
47.0500 28.7117 1.7884
47.0700 28.6983 1.7861
47.0900 28.6850 1.7831
47.1100 28.6717 1.7815
47.1300 28.6584 1.7783
47.1500 28.6451 1.7762
47.1700 28.6317 1.7739
47.1900 28.6184 1.7703
47.2100 28.6051 1.7706
47.2300 28.5918 1.7646
47.2500 28.5784 1.7662
47.2700 28.5650 1.7607
47.2900 28.5517 1.7612
47.3100 28.5384 1.7549
47.3300 28.5250 1.7571
47.3500 28.5117 1.7508
47.3700 28.4984 1.7512
47.3900 28.4850 1.7467
47.4100 28.4717 1.7471
47.4300 28.4583 1.7427
47.4500 28.4450 1.7416
47.4700 28.4317 1.7398
47.4900 28.4184 1.7353
47.5100 28.4050 1.7364
47.5300 28.3917 1.7312
47.5500 28.3784 1.7320
47.5700 28.3651 1.7261
47.5900 28.3517 1.7285
47.6100 28.3384 1.7213
47.6300 28.3251 1.7234
47.6500 28.3117 1.7184
47.6700 28.2984 1.7172
47.6900 28.2850 1.7151
47.7100 28.2716 1.7136
47.7300 28.2583 1.7103
47.7500 28.2450 1.7093
47.7700 28.2317 1.7072
47.7900 28.2183 1.7037
47.8100 28.2050 1.7049
47.8300 28.1917 1.6994
47.8500 28.1783 1.7000
47.8700 28.1650 1.6966
47.8900 28.1517 1.6961
47.9100 28.1384 1.6917
47.9300 28.1251 1.6926
47.9500 28.1117 1.6880
47.9700 28.0984 1.6884
47.9900 28.0850 1.6841
48.0100 28.0717 1.6841
48.0300 28.0584 1.6810
48.0500 28.0450 1.6795
48.0700 28.0317 1.6774
48.0900 28.0184 1.6755
48.1100 28.0050 1.6731
48.1300 27.9917 1.6720
48.1500 27.9783 1.6701
48.1700 27.9650 1.6671
48.1900 27.9517 1.6684
48.2100 27.9384 1.6610
48.2300 27.9250 1.6656
48.2500 27.9117 1.6581
48.2700 27.8984 1.6611
48.2900 27.8851 1.6549
48.3100 27.8717 1.6578
48.3300 27.8584 1.6505
48.3500 27.8450 1.6536
48.3700 27.8317 1.6488
48.3900 27.8184 1.6478
48.4100 27.8050 1.6469
48.4300 27.7916 1.6441
48.4500 27.7783 1.6432
48.4700 27.7650 1.6391
48.4900 27.7517 1.6408
48.5100 27.7383 1.6345
48.5300 27.7250 1.6383
48.5500 27.7117 1.6317
48.5700 27.6984 1.6338
48.5900 27.6851 1.6276
48.6100 27.6717 1.6308
48.6300 27.6584 1.6251
48.6500 27.6451 1.6248
48.6700 27.6317 1.6239
48.6900 27.6184 1.6203
48.7100 27.6050 1.6204
48.7300 27.5917 1.6172
48.7500 27.5784 1.6171
48.7700 27.5650 1.6141
48.7900 27.5516 1.6144
48.8100 27.5383 1.6097
48.8300 27.5250 1.6108
48.8500 27.5117 1.6072
48.8700 27.4983 1.6068
48.8900 27.4850 1.6034
48.9100 27.4717 1.6045
48.9300 27.4584 1.6006
48.9500 27.4450 1.6000
48.9700 27.4317 1.5986
48.9900 27.4184 1.5959
49.0100 27.4051 1.5948
49.0300 27.3918 1.5934
49.0500 27.3784 1.5912
49.0700 27.3650 1.5902
49.0900 27.3517 1.5889
49.1100 27.3384 1.5852
49.1300 27.3250 1.5861
49.1500 27.3116 1.5826
49.1700 27.2983 1.5831
49.1900 27.2850 1.5778
49.2100 27.2717 1.5809
49.2300 27.2583 1.5745
49.2500 27.2450 1.5770
49.2700 27.2317 1.5728
49.2900 27.2184 1.5723
49.3100 27.2051 1.5699
49.3300 27.1917 1.5697
49.3500 27.1784 1.5675
49.3700 27.1651 1.5654
49.3900 27.1517 1.5655
49.4100 27.1384 1.5620
49.4300 27.1250 1.5622
49.4500 27.1117 1.5589
49.4700 27.0984 1.5595
49.4900 27.0850 1.5550
49.5100 27.0717 1.5572
49.5300 27.0583 1.5522
49.5500 27.0450 1.5530
49.5700 27.0317 1.5507
49.5900 27.0183 1.5492
49.6100 27.0050 1.5475
49.6300 26.9917 1.5462
49.6500 26.9784 1.5447
49.6700 26.9650 1.5428
49.6900 26.9517 1.5429
49.7100 26.9384 1.5394
49.7300 26.9251 1.5395
49.7500 26.9118 1.5364
49.7700 26.8984 1.5373
49.7900 26.8851 1.5332
49.8100 26.8717 1.5344
49.8300 26.8584 1.5295
49.8500 26.8450 1.5317
49.8700 26.8317 1.5274
49.8900 26.8183 1.5288
49.9100 26.8050 1.5244
49.9300 26.7917 1.5255
49.9500 26.7783 1.5218
49.9700 26.7650 1.5221
49.9900 26.7517 1.5205
50.0100 26.7384 1.5194
50.0300 26.7250 1.5170
50.0500 26.7117 1.5166
50.0700 26.6984 1.5152
50.0900 26.6851 1.5119
50.1100 26.6718 1.5136
50.1300 26.6584 1.5087
50.1500 26.6450 1.5101
50.1700 26.6317 1.5066
50.1900 26.6184 1.5076
50.2100 26.6051 1.5030
50.2300 26.5917 1.5048
50.2500 26.5783 1.5011
50.2700 26.5650 1.5012
50.2900 26.5517 1.4985
50.3100 26.5383 1.4979
50.3300 26.5250 1.4964
50.3500 26.5117 1.4949
50.3700 26.4984 1.4946
50.3900 26.4850 1.4908
50.4100 26.4717 1.4927
50.4300 26.4584 1.4881
50.4500 26.4451 1.4890
50.4700 26.4318 1.4861
50.4900 26.4184 1.4864
50.5100 26.4051 1.4829
50.5300 26.3917 1.4837
50.5500 26.3784 1.4802
50.5700 26.3650 1.4807
50.5900 26.3516 1.4791
50.6100 26.3383 1.4775
50.6300 26.3250 1.4754
50.6500 26.3117 1.4744
50.6700 26.2983 1.4740
50.6900 26.2850 1.4718
50.7100 26.2717 1.4719
50.7300 26.2584 1.4690
50.7500 26.2450 1.4687
50.7700 26.2317 1.4665
50.7900 26.2184 1.4676
50.8100 26.2051 1.4625
50.8300 26.1918 1.4653
50.8500 26.1784 1.4600
50.8700 26.1650 1.4615
50.8900 26.1517 1.4583
50.9100 26.1384 1.4593
50.9300 26.1250 1.4541
50.9500 26.1117 1.4573
50.9700 26.0983 1.4531
50.9900 26.0850 1.4534
51.0100 26.0717 1.4511
51.0300 26.0584 1.4506
51.0500 26.0450 1.4487
51.0700 26.0317 1.4481
51.0900 26.0184 1.4468
51.1100 26.0050 1.4440
51.1300 25.9917 1.4456
51.1500 25.9784 1.4419
51.1700 25.9650 1.4429
51.1900 25.9517 1.4397
51.2100 25.9384 1.4405
51.2300 25.9250 1.4367
51.2500 25.9117 1.4380
51.2700 25.8984 1.4345
51.2900 25.8851 1.4350
51.3100 25.8717 1.4323
51.3300 25.8583 1.4336
51.3500 25.8450 1.4284
51.3700 25.8317 1.4309
51.3900 25.8183 1.4272
51.4100 25.8050 1.4270
51.4300 25.7917 1.4260
51.4500 25.7784 1.4244
51.4700 25.7650 1.4232
51.4900 25.7517 1.4213
51.5100 25.7384 1.4224
51.5300 25.7251 1.4183
51.5500 25.7118 1.4197
51.5700 25.6984 1.4167
51.5900 25.6851 1.4167
51.6100 25.6717 1.4140
51.6300 25.6584 1.4149
51.6500 25.6451 1.4104
51.6700 25.6317 1.4126
51.6900 25.6183 1.4090
51.7100 25.6050 1.4088
51.7300 25.5917 1.4073
51.7500 25.5783 1.4070
51.7700 25.5650 1.4050
51.7900 25.5516 1.4047
51.8100 25.5383 1.4031
51.8300 25.5250 1.4016
51.8500 25.5117 1.4011
51.8700 25.4984 1.3994
51.8900 25.4851 1.3982
51.9100 25.4718 1.3962
51.9300 25.4584 1.3967
51.9500 25.4451 1.3931
51.9700 25.4318 1.3946
51.9900 25.4184 1.3916
52.0100 25.4051 1.3912
52.0300 25.3917 1.3893
52.0500 25.3783 1.3894
52.0700 25.3650 1.3867
52.0900 25.3517 1.3865
52.1100 25.3383 1.3859
52.1300 25.3250 1.3835
52.1500 25.3116 1.3836
52.1700 25.2983 1.3815
52.1900 25.2850 1.3808
52.2100 25.2717 1.3786
52.2300 25.2584 1.3802
52.2500 25.2451 1.3754
52.2700 25.2318 1.3776
52.2900 25.2184 1.3734
52.3100 25.2050 1.3749
52.3300 25.1917 1.3720
52.3500 25.1784 1.3727
52.3700 25.1651 1.3697
52.3900 25.1517 1.3697
52.4100 25.1383 1.3692
52.4300 25.1250 1.3664
52.4500 25.1116 1.3672
52.4700 25.0983 1.3646
52.4900 25.0850 1.3650
52.5100 25.0717 1.3614
52.5300 25.0584 1.3640
52.5500 25.0450 1.3580
52.5700 25.0317 1.3619
52.5900 25.0184 1.3575
52.6100 25.0051 1.3583
52.6300 24.9918 1.3552
52.6500 24.9784 1.3570
52.6700 24.9650 1.3527
52.6900 24.9517 1.3551
52.7100 24.9384 1.3514
52.7300 24.9250 1.3513
52.7500 24.9117 1.3496
52.7700 24.8983 1.3492
52.7900 24.8850 1.3475
52.8100 24.8717 1.3467
52.8300 24.8583 1.3470
52.8500 24.8450 1.3426
52.8700 24.8317 1.3452
52.8900 24.8184 1.3417
52.9100 24.8050 1.3422
52.9300 24.7917 1.3385
52.9500 24.7784 1.3417
52.9700 24.7651 1.3355
52.9900 24.7518 1.3389
53.0100 24.7384 1.3348
53.0300 24.7251 1.3357
53.0500 24.7117 1.3332
53.0700 24.6984 1.3331
53.0900 24.6851 1.3315
53.1100 24.6717 1.3302
53.1300 24.6583 1.3307
53.1500 24.6450 1.3264
53.1700 24.6317 1.3291
53.1900 24.6184 1.3253
53.2100 24.6050 1.3272
53.2300 24.5916 1.3221
53.2500 24.5783 1.3262
53.2700 24.5650 1.3196
53.2900 24.5517 1.3241
53.3100 24.5384 1.3190
53.3300 24.5251 1.3204
53.3500 24.5117 1.3167
53.3700 24.4984 1.3182
53.3900 24.4851 1.3155
53.4100 24.4717 1.3149
53.4300 24.4584 1.3150
53.4500 24.4451 1.3116
53.4700 24.4317 1.3129
53.4900 24.4183 1.3101
53.5100 24.4050 1.3116
53.5300 24.3917 1.3064
53.5500 24.3783 1.3106
53.5700 24.3649 1.3043
53.5900 24.3516 1.3079
53.6100 24.3383 1.3038
53.6300 24.3250 1.3045
53.6500 24.3117 1.3020
53.6700 24.2984 1.3031
53.6900 24.2851 1.3005
53.7100 24.2718 1.2993
53.7300 24.2584 1.3003
53.7500 24.2451 1.2964
53.7700 24.2317 1.2980
53.7900 24.2184 1.2958
53.8100 24.2050 1.2956
53.8300 24.1917 1.2928
53.8500 24.1783 1.2946
53.8700 24.1650 1.2906
53.8900 24.1517 1.2926
53.9100 24.1383 1.2888
53.9300 24.1250 1.2907
53.9500 24.1116 1.2866
53.9700 24.0983 1.2883
53.9900 24.0850 1.2856
54.0100 24.0717 1.2854
54.0300 24.0584 1.2846
54.0500 24.0451 1.2831
54.0700 24.0318 1.2820
54.0900 24.0184 1.2811
54.1100 24.0051 1.2809
54.1300 23.9917 1.2781
54.1500 23.9784 1.2800
54.1700 23.9651 1.2752
54.1900 23.9517 1.2782
54.2100 23.9383 1.2735
54.2300 23.9250 1.2769
54.2500 23.9117 1.2710
54.2700 23.8983 1.2746
54.2900 23.8850 1.2697
54.3100 23.8717 1.2718
54.3300 23.8584 1.2688
54.3500 23.8451 1.2700
54.3700 23.8317 1.2670
54.3900 23.8184 1.2680
54.4100 23.8051 1.2652
54.4300 23.7918 1.2648
54.4500 23.7785 1.2652
54.4700 23.7651 1.2623
54.4900 23.7517 1.2634
54.5100 23.7384 1.2603
54.5300 23.7250 1.2615
54.5500 23.7117 1.2572
54.5700 23.6983 1.2603
54.5900 23.6850 1.2563
54.6100 23.6717 1.2572
54.6300 23.6584 1.2542
54.6500 23.6450 1.2563
54.6700 23.6317 1.2522
54.6900 23.6183 1.2545
54.7100 23.6050 1.2504
54.7300 23.5917 1.2511
54.7500 23.5783 1.2507
54.7700 23.5650 1.2486
54.7900 23.5517 1.2481
54.8100 23.5384 1.2469
54.8300 23.5251 1.2465
54.8500 23.5117 1.2452
54.8700 23.4984 1.2454
54.8900 23.4850 1.2422
54.9100 23.4717 1.2443
54.9300 23.4583 1.2397
54.9500 23.4450 1.2430
54.9700 23.4317 1.2373
54.9900 23.4183 1.2406
55.0100 23.4050 1.2371
55.0300 23.3916 1.2372
55.0500 23.3783 1.2361
55.0700 23.3650 1.2352
55.0900 23.3517 1.2339
55.1100 23.3383 1.2341
55.1300 23.3250 1.2333
55.1500 23.3117 1.2301
55.1700 23.2984 1.2326
55.1900 23.2851 1.2279
55.2100 23.2717 1.2306
55.2300 23.2584 1.2260
55.2500 23.2451 1.2293
55.2700 23.2317 1.2231
55.2900 23.2183 1.2280
55.3100 23.2050 1.2230
55.3300 23.1917 1.2241
55.3500 23.1784 1.2222
55.3700 23.1650 1.2221
55.3900 23.1517 1.2197
55.4100 23.1384 1.2208
55.4300 23.1251 1.2186
55.4500 23.1117 1.2182
55.4700 23.0984 1.2182
55.4900 23.0851 1.2158
55.5100 23.0718 1.2157
55.5300 23.0584 1.2142
55.5500 23.0451 1.2155
55.5700 23.0317 1.2109
55.5900 23.0184 1.2139
55.6100 23.0051 1.2093
55.6300 22.9917 1.2109
55.6500 22.9783 1.2093
55.6700 22.9650 1.2100
55.6900 22.9517 1.2062
55.7100 22.9383 1.2080
55.7300 22.9250 1.2053
55.7500 22.9116 1.2054
55.7700 22.8983 1.2047
55.7900 22.8850 1.2029
55.8100 22.8717 1.2032
55.8300 22.8584 1.2004
55.8500 22.8451 1.2028
55.8700 22.8318 1.1975
55.8900 22.8184 1.2016
55.9100 22.8051 1.1964
55.9300 22.7917 1.1994
55.9500 22.7783 1.1948
55.9700 22.7650 1.1980
55.9900 22.7517 1.1927
56.0100 22.7383 1.1956
56.0300 22.7249 1.1928
56.0500 22.7117 1.1921
56.0700 22.6983 1.1913
56.0900 22.6850 1.1903
56.1100 22.6716 1.1898
56.1300 22.6583 1.1878
56.1500 22.6450 1.1895
56.1700 22.6317 1.1844
56.1900 22.6183 1.1885
56.2100 22.6050 1.1833
56.2300 22.5917 1.1864
56.2500 22.5784 1.1821
56.2700 22.5651 1.1844
56.2900 22.5517 1.1801
56.3100 22.5384 1.1822
56.3300 22.5251 1.1797
56.3500 22.5117 1.1796
56.3700 22.4983 1.1778
56.3900 22.4850 1.1784
56.4100 22.4717 1.1758
56.4300 22.4584 1.1766
56.4500 22.4450 1.1754
56.4700 22.4317 1.1732
56.4900 22.4183 1.1750
56.5100 22.4051 1.1714
56.5300 22.3917 1.1732
56.5500 22.3784 1.1698
56.5700 22.3650 1.1719
56.5900 22.3517 1.1674
56.6100 22.3384 1.1700
56.6300 22.3251 1.1669
56.6500 22.3117 1.1681
56.6700 22.2983 1.1645
56.6900 22.2850 1.1663
56.7100 22.2717 1.1628
56.7300 22.2583 1.1642
56.7500 22.2450 1.1627
56.7700 22.2317 1.1617
56.7900 22.2184 1.1612
56.8100 22.2051 1.1594
56.8300 22.1917 1.1604
56.8500 22.1784 1.1573
56.8700 22.1650 1.1598
56.8900 22.1517 1.1547
56.9100 22.1384 1.1581
56.9300 22.1250 1.1543
56.9500 22.1117 1.1557
56.9700 22.0984 1.1528
56.9900 22.0851 1.1547
57.0100 22.0717 1.1507
57.0300 22.0584 1.1521
57.0500 22.0451 1.1503
57.0700 22.0317 1.1490
57.0900 22.0184 1.1499
57.1100 22.0050 1.1471
57.1300 21.9917 1.1484
57.1500 21.9783 1.1451
57.1700 21.9650 1.1473
57.1900 21.9516 1.1426
57.2100 21.9383 1.1460
57.2300 21.9250 1.1420
57.2500 21.9117 1.1431
57.2700 21.8984 1.1404
57.2900 21.8850 1.1427
57.3100 21.8717 1.1384
57.3300 21.8584 1.1397
57.3500 21.8451 1.1385
57.3700 21.8317 1.1374
57.3900 21.8184 1.1369
57.4100 21.8051 1.1358
57.4300 21.7917 1.1351
57.4500 21.7784 1.1334
57.4700 21.7650 1.1351
57.4900 21.7516 1.1310
57.5100 21.7383 1.1333
57.5300 21.7250 1.1302
57.5500 21.7116 1.1311
57.5700 21.6983 1.1287
57.5900 21.6850 1.1297
57.6100 21.6717 1.1270
57.6300 21.6584 1.1273
57.6500 21.6450 1.1267
57.6700 21.6317 1.1255
57.6900 21.6184 1.1239
57.7100 21.6051 1.1249
57.7300 21.5917 1.1226
57.7500 21.5784 1.1227
57.7700 21.5650 1.1224
57.7900 21.5517 1.1195
57.8100 21.5384 1.1210
57.8300 21.5250 1.1177
57.8500 21.5117 1.1196
57.8700 21.4984 1.1158
57.8900 21.4850 1.1189
57.9100 21.4716 1.1142
57.9300 21.4583 1.1166
57.9500 21.4450 1.1131
57.9700 21.4317 1.1151
57.9900 21.4184 1.1111
58.0100 21.4050 1.1141
58.0300 21.3917 1.1092
58.0500 21.3784 1.1112
58.0700 21.3651 1.1096
58.0900 21.3517 1.1085
58.1100 21.3384 1.1091
58.1300 21.3251 1.1062
58.1500 21.3117 1.1074
58.1700 21.2983 1.1033
58.1900 21.2850 1.1077
58.2100 21.2717 1.1024
58.2300 21.2584 1.1045
58.2500 21.2451 1.1011
58.2700 21.2317 1.1036
58.2900 21.2183 1.0999
58.3100 21.2050 1.1019
58.3300 21.1917 1.0987
58.3500 21.1784 1.0989
58.3700 21.1650 1.0991
58.3900 21.1517 1.0971
58.4100 21.1384 1.0975
58.4300 21.1251 1.0954
58.4500 21.1117 1.0963
58.4700 21.0984 1.0931
58.4900 21.0851 1.0952
58.5100 21.0718 1.0912
58.5300 21.0584 1.0937
58.5500 21.0450 1.0907
58.5700 21.0317 1.0922
58.5900 21.0184 1.0878
58.6100 21.0050 1.0908
58.6300 20.9917 1.0872
58.6500 20.9783 1.0881
58.6700 20.9650 1.0867
58.6900 20.9517 1.0861
58.7100 20.9383 1.0854
58.7300 20.9250 1.0840
58.7500 20.9117 1.0858
58.7700 20.8984 1.0807
58.7900 20.8851 1.0850
58.8100 20.8717 1.0786
58.8300 20.8584 1.0835
58.8500 20.8451 1.0782
58.8700 20.8317 1.0812
58.8900 20.8184 1.0760
58.9100 20.8050 1.0805
58.9300 20.7917 1.0752
58.9500 20.7784 1.0777
58.9700 20.7650 1.0740
58.9900 20.7517 1.0760
59.0100 20.7383 1.0732
59.0300 20.7250 1.0739
59.0500 20.7117 1.0726
59.0700 20.6983 1.0711
59.0900 20.6850 1.0729
59.1100 20.6717 1.0685
59.1300 20.6584 1.0710
59.1500 20.6451 1.0673
59.1700 20.6317 1.0699
59.1900 20.6184 1.0654
59.2100 20.6051 1.0686
59.2300 20.5918 1.0639
59.2500 20.5784 1.0655
59.2700 20.5650 1.0635
59.2900 20.5516 1.0645
59.3100 20.5383 1.0619
59.3300 20.5250 1.0626
59.3500 20.5116 1.0614
59.3700 20.4983 1.0599
59.3900 20.4850 1.0605
59.4100 20.4717 1.0587
59.4300 20.4584 1.0582
59.4500 20.4450 1.0576
59.4700 20.4317 1.0576
59.4900 20.4184 1.0550
59.5100 20.4051 1.0561
59.5300 20.3918 1.0544
59.5500 20.3784 1.0545
59.5700 20.3650 1.0530
59.5900 20.3517 1.0532
59.6100 20.3384 1.0498
59.6300 20.3250 1.0530
59.6500 20.3116 1.0490
59.6700 20.2983 1.0498
59.6900 20.2850 1.0484
59.7100 20.2717 1.0486
59.7300 20.2583 1.0465
59.7500 20.2450 1.0467
59.7700 20.2317 1.0463
59.7900 20.2184 1.0442
59.8100 20.2050 1.0459
59.8300 20.1917 1.0425
59.8500 20.1784 1.0439
59.8700 20.1651 1.0411
59.8900 20.1517 1.0429
59.9100 20.1384 1.0395
59.9300 20.1250 1.0409
59.9500 20.1117 1.0382
59.9700 20.0983 1.0384
59.9900 20.0850 1.0375
60.0100 20.0716 1.0375
60.0300 20.0583 1.0364
60.0500 20.0450 1.0351
60.0700 20.0317 1.0365
60.0900 20.0183 1.0321
60.1100 20.0050 1.0359
60.1300 19.9917 1.0310
60.1500 19.9784 1.0333
60.1700 19.9650 1.0302
60.1900 19.9517 1.0323
60.2100 19.9384 1.0283
60.2300 19.9251 1.0307
60.2500 19.9117 1.0280
60.2700 19.8984 1.0280
60.2900 19.8850 1.0267
60.3100 19.8717 1.0270
60.3300 19.8584 1.0250
60.3500 19.8450 1.0251
60.3700 19.8316 1.0254
60.3900 19.8183 1.0221
60.4100 19.8050 1.0241
60.4300 19.7917 1.0223
60.4500 19.7783 1.0216
60.4700 19.7650 1.0199
60.4900 19.7517 1.0212
60.5100 19.7384 1.0186
60.5300 19.7250 1.0196
60.5500 19.7117 1.0170
60.5700 19.6984 1.0182
60.5900 19.6851 1.0150
60.6100 19.6717 1.0179
60.6300 19.6584 1.0130
60.6500 19.6451 1.0166
60.6700 19.6318 1.0124
60.6900 19.6184 1.0125
60.7100 19.6050 1.0127
60.7300 19.5917 1.0105
60.7500 19.5784 1.0115
60.7700 19.5650 1.0086
60.7900 19.5517 1.0110
60.8100 19.5383 1.0064
60.8300 19.5250 1.0101
60.8500 19.5117 1.0055
60.8700 19.4984 1.0084
60.8900 19.4850 1.0041
60.9100 19.4717 1.0077
60.9300 19.4584 1.0019
60.9500 19.4451 1.0056
60.9700 19.4318 1.0024
60.9900 19.4184 1.0021
61.0100 19.4050 1.0017
61.0300 19.3917 1.0000
61.0500 19.3784 1.0005
61.0700 19.3650 0.9986
61.0900 19.3516 0.9999
61.1100 19.3383 0.9969
61.1300 19.3250 0.9979
61.1500 19.3117 0.9960
61.1700 19.2983 0.9965
61.1900 19.2850 0.9947
61.2100 19.2717 0.9957
61.2300 19.2584 0.9925
61.2500 19.2450 0.9941
61.2700 19.2317 0.9924
61.2900 19.2184 0.9922
61.3100 19.2051 0.9906
61.3300 19.1918 0.9909
61.3500 19.1784 0.9896
61.3700 19.1651 0.9891
61.3900 19.1517 0.9883
61.4100 19.1384 0.9877
61.4300 19.1250 0.9867
61.4500 19.1116 0.9865
61.4700 19.0983 0.9849
61.4900 19.0850 0.9844
61.5100 19.0716 0.9855
61.5300 19.0583 0.9820
61.5500 19.0450 0.9838
61.5700 19.0317 0.9819
61.5900 19.0184 0.9822
61.6100 19.0050 0.9798
61.6300 18.9917 0.9814
61.6500 18.9784 0.9790
61.6700 18.9651 0.9792
61.6900 18.9518 0.9779
61.7100 18.9384 0.9775
61.7300 18.9250 0.9772
61.7500 18.9117 0.9760
61.7700 18.8984 0.9758
61.7900 18.8850 0.9739
61.8100 18.8716 0.9753
61.8300 18.8583 0.9718
61.8500 18.8450 0.9733
61.8700 18.8317 0.9713
61.8900 18.8183 0.9730
61.9100 18.8050 0.9688
61.9300 18.7917 0.9711
61.9500 18.7784 0.9685
61.9700 18.7651 0.9685
61.9900 18.7517 0.9685
62.0100 18.7384 0.9665
62.0300 18.7251 0.9669
62.0500 18.7117 0.9650
62.0700 18.6984 0.9661
62.0900 18.6850 0.9625
62.1100 18.6717 0.9649
62.1300 18.6584 0.9615
62.1500 18.6450 0.9627
62.1700 18.6316 0.9612
62.1900 18.6183 0.9612
62.2100 18.6050 0.9590
62.2300 18.5917 0.9604
62.2500 18.5783 0.9577
62.2700 18.5650 0.9590
62.2900 18.5517 0.9566
62.3100 18.5384 0.9575
62.3300 18.5250 0.9548
62.3500 18.5117 0.9567
62.3700 18.4984 0.9537
62.3900 18.4851 0.9544
62.4100 18.4717 0.9533
62.4300 18.4584 0.9527
62.4500 18.4450 0.9517
62.4700 18.4317 0.9518
62.4900 18.4184 0.9507
62.5100 18.4050 0.9486
62.5300 18.3917 0.9511
62.5500 18.3783 0.9467
62.5700 18.3650 0.9495
62.5900 18.3517 0.9450
62.6100 18.3383 0.9491
62.6300 18.3250 0.9433
62.6500 18.3117 0.9474
62.6700 18.2984 0.9430
62.6900 18.2850 0.9441
62.7100 18.2717 0.9436
62.7300 18.2584 0.9423
62.7500 18.2451 0.9416
62.7700 18.2318 0.9411
62.7900 18.2184 0.9412
62.8100 18.2050 0.9385
62.8300 18.1917 0.9406
62.8500 18.1784 0.9365
62.8700 18.1650 0.9390
62.8900 18.1516 0.9363
62.9100 18.1383 0.9378
62.9300 18.1250 0.9343
62.9500 18.1117 0.9361
62.9700 18.0983 0.9345
62.9900 18.0850 0.9335
63.0100 18.0717 0.9335
63.0300 18.0584 0.9324
63.0500 18.0451 0.9314
63.0700 18.0317 0.9312
63.0900 18.0184 0.9309
63.1100 18.0051 0.9291
63.1300 17.9918 0.9301
63.1500 17.9784 0.9275
63.1700 17.9650 0.9283
63.1900 17.9517 0.9264
63.2100 17.9384 0.9273
63.2300 17.9250 0.9248
63.2500 17.9116 0.9264
63.2700 17.8983 0.9238
63.2900 17.8850 0.9243
63.3100 17.8717 0.9227
63.3300 17.8583 0.9235
63.3500 17.8450 0.9206
63.3700 17.8317 0.9222
63.3900 17.8184 0.9200
63.4100 17.8051 0.9201
63.4300 17.7917 0.9199
63.4500 17.7784 0.9180
63.4700 17.7651 0.9177
63.4900 17.7518 0.9169
63.5100 17.7384 0.9177
63.5300 17.7250 0.9145
63.5500 17.7117 0.9164
63.5700 17.6984 0.9134
63.5900 17.6851 0.9144
63.6100 17.6717 0.9129
63.6300 17.6583 0.9131
63.6500 17.6450 0.9109
63.6700 17.6316 0.9119
63.6900 17.6183 0.9100
63.7100 17.6050 0.9100
63.7300 17.5917 0.9098
63.7500 17.5784 0.9080
63.7700 17.5651 0.9084
63.7900 17.5517 0.9067
63.8100 17.5384 0.9076
63.8300 17.5251 0.9044
63.8500 17.5117 0.9064
63.8700 17.4984 0.9038
63.8900 17.4850 0.9049
63.9100 17.4717 0.9028
63.9300 17.4584 0.9031
63.9500 17.4450 0.9010
63.9700 17.4317 0.9017
63.9900 17.4183 0.9005
64.0100 17.4050 0.8995
64.0300 17.3917 0.8992
64.0500 17.3783 0.8988
64.0700 17.3650 0.8976
64.0900 17.3517 0.8969
64.1100 17.3384 0.8973
64.1300 17.3250 0.8952
64.1500 17.3117 0.8958
64.1700 17.2984 0.8939
64.1900 17.2851 0.8947
64.2100 17.2718 0.8924
64.2300 17.2584 0.8944
64.2500 17.2451 0.8903
64.2700 17.2317 0.8930
64.2900 17.2184 0.8891
64.3100 17.2051 0.8909
64.3300 17.1917 0.8886
64.3500 17.1783 0.8904
64.3700 17.1650 0.8863
64.3900 17.1517 0.8888
64.4100 17.1383 0.8861
64.4300 17.1250 0.8863
64.4500 17.1116 0.8861
64.4700 17.0983 0.8844
64.4900 17.0850 0.8844
64.5100 17.0717 0.8828
64.5300 17.0584 0.8848
64.5500 17.0451 0.8801
64.5700 17.0318 0.8834
64.5900 17.0184 0.8798
64.6100 17.0050 0.8814
64.6300 16.9917 0.8784
64.6500 16.9784 0.8804
64.6700 16.9651 0.8776
64.6900 16.9517 0.8773
64.7100 16.9383 0.8778
64.7300 16.9250 0.8753
64.7500 16.9117 0.8776
64.7700 16.8983 0.8733
64.7900 16.8850 0.8766
64.8100 16.8717 0.8717
64.8300 16.8584 0.8753
64.8500 16.8450 0.8706
64.8700 16.8317 0.8739
64.8900 16.8184 0.8698
64.9100 16.8051 0.8718
64.9300 16.7918 0.8687
64.9500 16.7784 0.8704
64.9700 16.7651 0.8677
64.9900 16.7517 0.8686
65.0100 16.7384 0.8670
65.0300 16.7251 0.8668
65.0500 16.7117 0.8660
65.0700 16.6983 0.8657
65.0900 16.6850 0.8647
65.1100 16.6717 0.8628
65.1300 16.6583 0.8649
65.1500 16.6450 0.8614
65.1700 16.6316 0.8635
65.1900 16.6183 0.8599
65.2100 16.6050 0.8625
65.2300 16.5917 0.8587
65.2500 16.5784 0.8620
65.2700 16.5651 0.8574
65.2900 16.5518 0.8592
65.3100 16.5384 0.8560
65.3300 16.5250 0.8588
65.3500 16.5117 0.8549
65.3700 16.4984 0.8570
65.3900 16.4851 0.8542
65.4100 16.4717 0.8542
65.4300 16.4583 0.8549
65.4500 16.4450 0.8516
65.4700 16.4317 0.8539
65.4900 16.4184 0.8501
65.5100 16.4050 0.8527
65.5300 16.3917 0.8487
65.5500 16.3784 0.8511
65.5700 16.3650 0.8478
65.5900 16.3517 0.8499
65.6100 16.3383 0.8475
65.6300 16.3250 0.8473
65.6500 16.3117 0.8460
65.6700 16.2984 0.8466
65.6900 16.2850 0.8449
65.7100 16.2717 0.8442
65.7300 16.2584 0.8448
65.7500 16.2451 0.8413
65.7700 16.2317 0.8441
65.7900 16.2183 0.8407
65.8100 16.2050 0.8428
65.8300 16.1917 0.8398
65.8500 16.1783 0.8410
65.8700 16.1650 0.8385
65.8900 16.1517 0.8398
65.9100 16.1383 0.8374
65.9300 16.1250 0.8389
65.9500 16.1117 0.8361
65.9700 16.0983 0.8382
65.9900 16.0850 0.8338
66.0100 16.0717 0.8364
66.0300 16.0584 0.8334
66.0500 16.0451 0.8350
66.0700 16.0317 0.8326
66.0900 16.0184 0.8323
66.1100 16.0051 0.8322
66.1300 15.9917 0.8304
66.1500 15.9783 0.8314
66.1700 15.9651 0.8292
66.1900 15.9517 0.8299
66.2100 15.9384 0.8280
66.2300 15.9250 0.8291
66.2500 15.9116 0.8264
66.2700 15.8983 0.8282
66.2900 15.8850 0.8248
66.3100 15.8717 0.8261
66.3300 15.8583 0.8247
66.3500 15.8451 0.8248
66.3700 15.8318 0.8229
66.3900 15.8184 0.8236
66.4100 15.8051 0.8221
66.4300 15.7917 0.8218
66.4500 15.7784 0.8211
66.4700 15.7651 0.8205
66.4900 15.7517 0.8197
66.5100 15.7383 0.8189
66.5300 15.7250 0.8195
66.5500 15.7116 0.8165
66.5700 15.6983 0.8187
66.5900 15.6850 0.8158
66.6100 15.6716 0.8173
66.6300 15.6584 0.8140
66.6500 15.6450 0.8157
66.6700 15.6317 0.8129
66.6900 15.6184 0.8144
66.7100 15.6051 0.8123
66.7300 15.5918 0.8116
66.7500 15.5784 0.8122
66.7700 15.5650 0.8104
66.7900 15.5517 0.8109
66.8100 15.5384 0.8088
66.8300 15.5251 0.8101
66.8500 15.5117 0.8064
66.8700 15.4983 0.8096
66.8900 15.4850 0.8055
66.9100 15.4716 0.8075
66.9300 15.4583 0.8041
66.9500 15.4450 0.8065
66.9700 15.4316 0.8029
66.9900 15.4184 0.8053
67.0100 15.4050 0.8021
67.0300 15.3917 0.8035
67.0500 15.3784 0.8014
67.0700 15.3651 0.8020
67.0900 15.3518 0.7999
67.1100 15.3385 0.8000
67.1300 15.3251 0.7998
67.1500 15.3117 0.7983
67.1700 15.2984 0.7984
67.1900 15.2850 0.7963
67.2100 15.2717 0.7975
67.2300 15.2583 0.7949
67.2500 15.2450 0.7974
67.2700 15.2317 0.7926
67.2900 15.2183 0.7962
67.3100 15.2050 0.7917
67.3300 15.1916 0.7949
67.3500 15.1784 0.7908
67.3700 15.1651 0.7936
67.3900 15.1517 0.7898
67.4100 15.1384 0.7912
67.4300 15.1251 0.7897
67.4500 15.1118 0.7889
67.4700 15.0984 0.7892
67.4900 15.0851 0.7874
67.5100 15.0717 0.7878
67.5300 15.0584 0.7861
67.5500 15.0451 0.7868
67.5700 15.0317 0.7836
67.5900 15.0183 0.7865
67.6100 15.0050 0.7827
67.6300 14.9917 0.7849
67.6500 14.9783 0.7804
67.6700 14.9650 0.7842
67.6900 14.9516 0.7809
67.7100 14.9383 0.7814
67.7300 14.9250 0.7804
67.7500 14.9117 0.7800
67.7700 14.8984 0.7788
67.7900 14.8851 0.7785
67.8100 14.8718 0.7779
67.8300 14.8584 0.7771
67.8500 14.8451 0.7776
67.8700 14.8317 0.7746
67.8900 14.8184 0.7763
67.9100 14.8051 0.7736
67.9300 14.7917 0.7753
67.9500 14.7783 0.7717
67.9700 14.7650 0.7742
67.9900 14.7517 0.7705
68.0100 14.7383 0.7716
68.0300 14.7249 0.7707
68.0500 14.7116 0.7701
68.0700 14.6983 0.7689
68.0900 14.6850 0.7692
68.1100 14.6717 0.7674
68.1300 14.6583 0.7678
68.1500 14.6450 0.7676
68.1700 14.6318 0.7651
68.1900 14.6184 0.7661
68.2100 14.6051 0.7639
68.2300 14.5917 0.7656
68.2500 14.5784 0.7618
68.2700 14.5651 0.7646
68.2900 14.5517 0.7606
68.3100 14.5383 0.7630
68.3300 14.5250 0.7605
68.3500 14.5117 0.7607
68.3700 14.4983 0.7594
68.3900 14.4850 0.7588
68.4100 14.4716 0.7591
68.4300 14.4583 0.7565
68.4500 14.4450 0.7587
68.4700 14.4317 0.7549
68.4900 14.4184 0.7577
68.5100 14.4050 0.7540
68.5300 14.3918 0.7570
68.5500 14.3784 0.7517
68.5700 14.3651 0.7555
68.5900 14.3518 0.7507
68.6100 14.3384 0.7536
68.6300 14.3251 0.7506
68.6500 14.3117 0.7513
68.6700 14.2983 0.7500
68.6900 14.2850 0.7499
68.7100 14.2716 0.7486
68.7300 14.2583 0.7472
68.7500 14.2450 0.7491
68.7700 14.2316 0.7462
68.7900 14.2184 0.7469
68.8100 14.2051 0.7449
68.8300 14.1918 0.7460
68.8500 14.1784 0.7431
68.8700 14.1651 0.7461
68.8900 14.1517 0.7413
68.9100 14.1384 0.7443
68.9300 14.1251 0.7406
68.9500 14.1117 0.7427
68.9700 14.0984 0.7392
68.9900 14.0850 0.7414
69.0100 14.0717 0.7391
69.0300 14.0583 0.7387
69.0500 14.0450 0.7385
69.0700 14.0317 0.7365
69.0900 14.0184 0.7377
69.1100 14.0050 0.7351
69.1300 13.9917 0.7369
69.1500 13.9783 0.7334
69.1700 13.9650 0.7362
69.1900 13.9517 0.7313
69.2100 13.9383 0.7349
69.2300 13.9250 0.7305
69.2500 13.9117 0.7332
69.2700 13.8984 0.7292
69.2900 13.8851 0.7321
69.3100 13.8717 0.7289
69.3300 13.8584 0.7295
69.3500 13.8451 0.7287
69.3700 13.8317 0.7270
69.3900 13.8183 0.7279
69.4100 13.8050 0.7260
69.4300 13.7917 0.7272
69.4500 13.7783 0.7229
69.4700 13.7650 0.7270
69.4900 13.7516 0.7219
69.5100 13.7383 0.7252
69.5300 13.7250 0.7212
69.5500 13.7117 0.7241
69.5700 13.6983 0.7197
69.5900 13.6850 0.7228
69.6100 13.6717 0.7192
69.6300 13.6584 0.7197
69.6500 13.6450 0.7192
69.6700 13.6317 0.7174
69.6900 13.6184 0.7185
69.7100 13.6051 0.7158
69.7300 13.5917 0.7173
69.7500 13.5783 0.7143
69.7700 13.5650 0.7165
69.7900 13.5517 0.7132
69.8100 13.5383 0.7145
69.8300 13.5250 0.7119
69.8500 13.5116 0.7136
69.8700 13.4983 0.7103
69.8900 13.4850 0.7128
69.9100 13.4717 0.7097
69.9300 13.4584 0.7107
69.9500 13.4450 0.7089
69.9700 13.4318 0.7090
69.9900 13.4184 0.7073
70.0100 13.4051 0.7074
70.0300 13.3917 0.7074
70.0500 13.3784 0.7049
70.0700 13.3651 0.7064
70.0900 13.3517 0.7039
70.1100 13.3383 0.7043
70.1300 13.3250 0.7031
70.1500 13.3117 0.7045
70.1700 13.2984 0.6998
70.1900 13.2850 0.7032
70.2100 13.2717 0.6991
70.2300 13.2583 0.7020
70.2500 13.2450 0.6988
70.2700 13.2317 0.7001
70.2900 13.2184 0.6977
70.3100 13.2051 0.6988
70.3300 13.1918 0.6974
70.3500 13.1784 0.6961
70.3700 13.1651 0.6964
70.3900 13.1517 0.6956
70.4100 13.1384 0.6940
70.4300 13.1250 0.6941
70.4500 13.1117 0.6935
70.4700 13.0983 0.6920
70.4900 13.0849 0.6929
70.5100 13.0717 0.6905
70.5300 13.0584 0.6912
70.5500 13.0450 0.6889
70.5700 13.0317 0.6902
70.5900 13.0183 0.6881
70.6100 13.0050 0.6886
70.6300 12.9917 0.6872
70.6500 12.9784 0.6863
70.6700 12.9651 0.6863
70.6900 12.9517 0.6854
70.7100 12.9384 0.6845
70.7300 12.9251 0.6842
70.7500 12.9117 0.6839
70.7700 12.8983 0.6824
70.7900 12.8850 0.6829
70.8100 12.8717 0.6813
70.8300 12.8583 0.6811
70.8500 12.8450 0.6801
70.8700 12.8317 0.6805
70.8900 12.8183 0.6780
70.9100 12.8050 0.6790
70.9300 12.7916 0.6780
70.9500 12.7783 0.6769
70.9700 12.7650 0.6764
70.9900 12.7517 0.6762
71.0100 12.7384 0.6750
71.0300 12.7250 0.6747
71.0500 12.7117 0.6748
71.0700 12.6984 0.6725
71.0900 12.6851 0.6734
71.1100 12.6717 0.6706
71.1300 12.6583 0.6727
71.1500 12.6450 0.6694
71.1700 12.6317 0.6715
71.1900 12.6184 0.6674
71.2100 12.6050 0.6701
71.2300 12.5917 0.6670
71.2500 12.5784 0.6682
71.2700 12.5650 0.6656
71.2900 12.5517 0.6672
71.3100 12.5383 0.6646
71.3300 12.5251 0.6651
71.3500 12.5117 0.6651
71.3700 12.4984 0.6621
71.3900 12.4850 0.6641
71.4100 12.4717 0.6613
71.4300 12.4584 0.6623
71.4500 12.4451 0.6596
71.4700 12.4318 0.6619
71.4900 12.4184 0.6572
71.5100 12.4051 0.6613
71.5300 12.3917 0.6563
71.5500 12.3784 0.6589
71.5700 12.3650 0.6554
71.5900 12.3517 0.6574
71.6100 12.3383 0.6545
71.6300 12.3250 0.6550
71.6500 12.3116 0.6555
71.6700 12.2983 0.6524
71.6900 12.2850 0.6541
71.7100 12.2717 0.6515
71.7300 12.2584 0.6523
71.7500 12.2450 0.6496
71.7700 12.2317 0.6520
71.7900 12.2184 0.6484
71.8100 12.2051 0.6503
71.8300 12.1917 0.6474
71.8500 12.1784 0.6487
71.8700 12.1651 0.6454
71.8900 12.1517 0.6475
71.9100 12.1384 0.6441
71.9300 12.1250 0.6452
71.9500 12.1116 0.6447
71.9700 12.0983 0.6431
71.9900 12.0850 0.6426
72.0100 12.0716 0.6433
72.0300 12.0583 0.6410
72.0500 12.0450 0.6408
72.0700 12.0317 0.6410
72.0900 12.0184 0.6389
72.1100 12.0050 0.6400
72.1300 11.9917 0.6380
72.1500 11.9784 0.6383
72.1700 11.9651 0.6358
72.1900 11.9517 0.6380
72.2100 11.9384 0.6340
72.2300 11.9250 0.6364
72.2500 11.9117 0.6341
72.2700 11.8984 0.6338
72.2900 11.8850 0.6324
72.3100 11.8717 0.6330
72.3300 11.8583 0.6317
72.3500 11.8450 0.6311
72.3700 11.8316 0.6309
72.3900 11.8183 0.6294
72.4100 11.8050 0.6298
72.4300 11.7917 0.6272
72.4500 11.7784 0.6299
72.4700 11.7650 0.6254
72.4900 11.7517 0.6287
72.5100 11.7384 0.6241
72.5300 11.7251 0.6258
72.5500 11.7117 0.6247
72.5700 11.6984 0.6239
72.5900 11.6851 0.6229
72.6100 11.6718 0.6217
72.6300 11.6584 0.6224
72.6500 11.6450 0.6196
72.6700 11.6317 0.6229
72.6900 11.6184 0.6177
72.7100 11.6051 0.6203
72.7300 11.5917 0.6171
72.7500 11.5783 0.6201
72.7700 11.5650 0.6153
72.7900 11.5517 0.6190
72.8100 11.5384 0.6140
72.8300 11.5250 0.6162
72.8500 11.5117 0.6148
72.8700 11.4984 0.6142
72.8900 11.4851 0.6130
72.9100 11.4717 0.6129
72.9300 11.4584 0.6117
72.9500 11.4451 0.6110
72.9700 11.4317 0.6117
72.9900 11.4184 0.6090
73.0100 11.4050 0.6096
73.0300 11.3917 0.6081
73.0500 11.3784 0.6089
73.0700 11.3650 0.6056
73.0900 11.3517 0.6085
73.1100 11.3383 0.6040
73.1300 11.3250 0.6072
73.1500 11.3117 0.6028
73.1700 11.2983 0.6058
73.1900 11.2850 0.6020
73.2100 11.2717 0.6044
73.2300 11.2584 0.6004
73.2500 11.2451 0.6016
73.2700 11.2317 0.6002
73.2900 11.2184 0.5997
73.3100 11.2051 0.5998
73.3300 11.1917 0.5978
73.3500 11.1784 0.5991
73.3700 11.1650 0.5948
73.3900 11.1517 0.5990
73.4100 11.1384 0.5936
73.4300 11.1250 0.5969
73.4500 11.1117 0.5930
73.4700 11.0983 0.5950
73.4900 11.0850 0.5918
73.5100 11.0717 0.5936
73.5300 11.0583 0.5919
73.5500 11.0450 0.5902
73.5700 11.0317 0.5922
73.5900 11.0184 0.5883
73.6100 11.0051 0.5902
73.6300 10.9917 0.5872
73.6500 10.9784 0.5896
73.6700 10.9651 0.5853
73.6900 10.9518 0.5881
73.7100 10.9384 0.5844
73.7300 10.9250 0.5862
73.7500 10.9117 0.5842
73.7700 10.8983 0.5847
73.7900 10.8850 0.5822
73.8100 10.8716 0.5834
73.8300 10.8583 0.5812
73.8500 10.8450 0.5810
73.8700 10.8317 0.5813
73.8900 10.8184 0.5798
73.9100 10.8050 0.5789
73.9300 10.7917 0.5787
73.9500 10.7784 0.5786
73.9700 10.7651 0.5758
73.9900 10.7518 0.5779
74.0100 10.7384 0.5754
74.0300 10.7250 0.5754
74.0500 10.7117 0.5736
74.0700 10.6984 0.5746
74.0900 10.6850 0.5718
74.1100 10.6716 0.5739
74.1300 10.6583 0.5710
74.1500 10.6450 0.5714
74.1700 10.6317 0.5707
74.1900 10.6183 0.5695
74.2100 10.6050 0.5687
74.2300 10.5917 0.5680
74.2500 10.5784 0.5681
74.2700 10.5650 0.5656
74.2900 10.5517 0.5679
74.3100 10.5384 0.5635
74.3300 10.5251 0.5664
74.3500 10.5117 0.5618
74.3700 10.4984 0.5659
74.3900 10.4850 0.5600
74.4100 10.4717 0.5646
74.4300 10.4584 0.5594
74.4500 10.4450 0.5617
74.4700 10.4316 0.5593
74.4900 10.4183 0.5599
74.5100 10.4050 0.5586
74.5300 10.3917 0.5568
74.5500 10.3783 0.5587
74.5700 10.3650 0.5544
74.5900 10.3517 0.5576
74.6100 10.3384 0.5534
74.6300 10.3250 0.5560
74.6500 10.3117 0.5522
74.6700 10.2984 0.5555
74.6900 10.2851 0.5496
74.7100 10.2718 0.5536
74.7300 10.2584 0.5497
74.7500 10.2450 0.5506
74.7700 10.2317 0.5490
74.7900 10.2184 0.5500
74.8100 10.2050 0.5474
74.8300 10.1917 0.5479
74.8500 10.1783 0.5470
74.8700 10.1650 0.5452
74.8900 10.1517 0.5458
74.9100 10.1383 0.5446
74.9300 10.1250 0.5439
74.9500 10.1117 0.5431
74.9700 10.0983 0.5441
74.9900 10.0850 0.5402
75.0100 10.0717 0.5428
75.0300 10.0584 0.5394
75.0500 10.0451 0.5413
75.0700 10.0317 0.5381
75.0900 10.0184 0.5404
75.1100 10.0051 0.5362
75.1300 9.9918 0.5379
75.1500 9.9784 0.5361
75.1700 9.9650 0.5358
75.1900 9.9517 0.5352
75.2100 9.9383 0.5346
75.2300 9.9250 0.5334
75.2500 9.9116 0.5324
75.2700 9.8983 0.5340
75.2900 9.8849 0.5302
75.3100 9.8717 0.5327
75.3300 9.8584 0.5288
75.3500 9.8450 0.5311
75.3700 9.8317 0.5269
75.3900 9.8184 0.5305
75.4100 9.8051 0.5255
75.4300 9.7918 0.5285
75.4500 9.7784 0.5257
75.4700 9.7650 0.5251
75.4900 9.7517 0.5249
75.5100 9.7384 0.5240
75.5300 9.7250 0.5234
75.5500 9.7116 0.5220
75.5700 9.6983 0.5232
75.5900 9.6850 0.5194
75.6100 9.6717 0.5216
75.6300 9.6583 0.5196
75.6500 9.6450 0.5204
75.6700 9.6317 0.5172
75.6900 9.6184 0.5189
75.7100 9.6050 0.5156
75.7300 9.5917 0.5178
75.7500 9.5784 0.5150
75.7700 9.5651 0.5151
75.7900 9.5518 0.5141
75.8100 9.5384 0.5140
75.8300 9.5251 0.5119
75.8500 9.5117 0.5126
75.8700 9.4984 0.5119
75.8900 9.4850 0.5098
75.9100 9.4716 0.5100
75.9300 9.4583 0.5092
75.9500 9.4450 0.5088
75.9700 9.4317 0.5072
75.9900 9.4183 0.5086
76.0100 9.4050 0.5051
76.0300 9.3917 0.5070
76.0500 9.3784 0.5040
76.0700 9.3651 0.5052
76.0900 9.3517 0.5028
76.1100 9.3384 0.5044
76.1300 9.3251 0.5007
76.1500 9.3118 0.5016
76.1700 9.2984 0.5015
76.1900 9.2850 0.4995
76.2100 9.2717 0.4999
76.2300 9.2584 0.4976
76.2500 9.2450 0.4987
76.2700 9.2317 0.4958
76.2900 9.2183 0.4989
76.3100 9.2050 0.4930
76.3300 9.1917 0.4977
76.3500 9.1783 0.4921
76.3700 9.1650 0.4961
76.3900 9.1517 0.4909
76.4100 9.1383 0.4943
76.4300 9.1250 0.4906
76.4500 9.1117 0.4911
76.4700 9.0984 0.4906
76.4900 9.0851 0.4891
76.5100 9.0717 0.4894
76.5300 9.0584 0.4873
76.5500 9.0450 0.4880
76.5700 9.0317 0.4852
76.5900 9.0184 0.4873
76.6100 9.0050 0.4833
76.6300 8.9917 0.4855
76.6500 8.9783 0.4826
76.6700 8.9650 0.4834
76.6900 8.9517 0.4809
76.7100 8.9383 0.4826
76.7300 8.9250 0.4809
76.7500 8.9117 0.4793
76.7700 8.8984 0.4807
76.7900 8.8850 0.4779
76.8100 8.8717 0.4790
76.8300 8.8584 0.4773
76.8500 8.8451 0.4772
76.8700 8.8317 0.4751
76.8900 8.8184 0.4762
76.9100 8.8050 0.4742
76.9300 8.7917 0.4739
76.9500 8.7784 0.4728
76.9700 8.7650 0.4725
76.9900 8.7517 0.4704
77.0100 8.7383 0.4720
77.0300 8.7250 0.4691
77.0500 8.7117 0.4699
77.0700 8.6983 0.4692
77.0900 8.6850 0.4675
77.1100 8.6717 0.4674
77.1300 8.6584 0.4671
77.1500 8.6450 0.4670
77.1700 8.6317 0.4637
77.1900 8.6184 0.4660
77.2100 8.6051 0.4624
77.2300 8.5918 0.4642
77.2500 8.5784 0.4608
77.2700 8.5650 0.4647
77.2900 8.5517 0.4578
77.3100 8.5384 0.4625
77.3300 8.5250 0.4566
77.3500 8.5117 0.4601
77.3700 8.4983 0.4577
77.3900 8.4850 0.4580
77.4100 8.4717 0.4557
77.4300 8.4583 0.4558
77.4500 8.4450 0.4558
77.4700 8.4317 0.4527
77.4900 8.4184 0.4556
77.5100 8.4051 0.4512
77.5300 8.3917 0.4537
77.5500 8.3784 0.4498
77.5700 8.3651 0.4524
77.5900 8.3518 0.4483
77.6100 8.3384 0.4508
77.6300 8.3250 0.4476
77.6500 8.3117 0.4481
77.6700 8.2984 0.4465
77.6900 8.2850 0.4467
77.7100 8.2716 0.4454
77.7300 8.2583 0.4451
77.7500 8.2450 0.4441
77.7700 8.2317 0.4424
77.7900 8.2183 0.4437
77.8100 8.2050 0.4413
77.8300 8.1917 0.4413
77.8500 8.1784 0.4402
77.8700 8.1650 0.4406
77.8900 8.1517 0.4380
77.9100 8.1384 0.4401
77.9300 8.1251 0.4360
77.9500 8.1118 0.4385
77.9700 8.0984 0.4345
77.9900 8.0850 0.4375
78.0100 8.0717 0.4323
78.0300 8.0584 0.4355
78.0500 8.0450 0.4319
78.0700 8.0317 0.4326
78.0900 8.0183 0.4322
78.1100 8.0050 0.4307
78.1300 7.9917 0.4301
78.1500 7.9783 0.4293
78.1700 7.9650 0.4298
78.1900 7.9517 0.4268
78.2100 7.9384 0.4292
78.2300 7.9251 0.4249
78.2500 7.9117 0.4272
78.2700 7.8984 0.4240
78.2900 7.8851 0.4256
78.3100 7.8717 0.4218
78.3300 7.8584 0.4246
78.3500 7.8450 0.4219
78.3700 7.8317 0.4211
78.3900 7.8184 0.4210
78.4100 7.8051 0.4192
78.4300 7.7917 0.4199
78.4500 7.7783 0.4171
78.4700 7.7650 0.4193
78.4900 7.7517 0.4150
78.5100 7.7384 0.4175
78.5300 7.7250 0.4141
78.5500 7.7117 0.4153
78.5700 7.6984 0.4132
78.5900 7.6850 0.4143
78.6100 7.6717 0.4113
78.6300 7.6584 0.4128
78.6500 7.6451 0.4114
78.6700 7.6317 0.4087
78.6900 7.6184 0.4109
78.7100 7.6050 0.4083
78.7300 7.5917 0.4094
78.7500 7.5784 0.4063
78.7700 7.5651 0.4082
78.7900 7.5517 0.4041
78.8100 7.5383 0.4073
78.8300 7.5250 0.4035
78.8500 7.5117 0.4035
78.8700 7.4983 0.4022
78.8900 7.4850 0.4037
78.9100 7.4716 0.3995
78.9300 7.4583 0.4020
78.9500 7.4450 0.3994
78.9700 7.4317 0.3995
78.9900 7.4183 0.3983
79.0100 7.4051 0.3982
79.0300 7.3918 0.3965
79.0500 7.3784 0.3963
79.0700 7.3650 0.3970
79.0900 7.3517 0.3930
79.1100 7.3384 0.3958
79.1300 7.3251 0.3916
79.1500 7.3117 0.3931
79.1700 7.2983 0.3901
79.1900 7.2850 0.3931
79.2100 7.2716 0.3881
79.2300 7.2583 0.3918
79.2500 7.2450 0.3867
79.2700 7.2316 0.3899
79.2900 7.2184 0.3855
79.3100 7.2050 0.3881
79.3300 7.1917 0.3850
79.3500 7.1784 0.3851
79.3700 7.1651 0.3853
79.3900 7.1518 0.3817
79.4100 7.1384 0.3842
79.4300 7.1250 0.3816
79.4500 7.1117 0.3816
79.4700 7.0984 0.3795
79.4900 7.0851 0.3815
79.5100 7.0717 0.3773
79.5300 7.0583 0.3798
79.5500 7.0450 0.3765
79.5700 7.0317 0.3770
79.5900 7.0183 0.3755
79.6100 7.0050 0.3759
79.6300 6.9917 0.3748
79.6500 6.9784 0.3729
79.6700 6.9650 0.3741
79.6900 6.9517 0.3705
79.7100 6.9384 0.3730
79.7300 6.9251 0.3696
79.7500 6.9118 0.3707
79.7700 6.8984 0.3685
79.7900 6.8851 0.3696
79.8100 6.8717 0.3671
79.8300 6.8584 0.3677
79.8500 6.8451 0.3657
79.8700 6.8317 0.3660
79.8900 6.8183 0.3644
79.9100 6.8050 0.3651
79.9300 6.7917 0.3635
79.9500 6.7784 0.3618
79.9700 6.7650 0.3634
79.9900 6.7517 0.3598
80.0100 6.7383 0.3618
80.0300 6.7250 0.3585
80.0500 6.7117 0.3605
80.0700 6.6983 0.3563
80.0900 6.6850 0.3598
80.1100 6.6717 0.3542
80.1300 6.6584 0.3576
80.1500 6.6450 0.3537
80.1700 6.6317 0.3558
80.1900 6.6184 0.3521
80.2100 6.6051 0.3542
80.2300 6.5917 0.3510
80.2500 6.5783 0.3514
80.2700 6.5650 0.3519
80.2900 6.5517 0.3482
80.3100 6.5383 0.3502
80.3300 6.5250 0.3461
80.3500 6.5116 0.3496
80.3700 6.4983 0.3444
80.3900 6.4850 0.3487
80.4100 6.4717 0.3422
80.4300 6.4583 0.3469
80.4500 6.4450 0.3420
80.4700 6.4318 0.3439
80.4900 6.4184 0.3403
80.5100 6.4051 0.3429
80.5300 6.3917 0.3392
80.5500 6.3784 0.3394
80.5700 6.3651 0.3393
80.5900 6.3517 0.3369
80.6100 6.3383 0.3381
80.6300 6.3250 0.3357
80.6500 6.3117 0.3367
80.6700 6.2984 0.3332
80.6900 6.2850 0.3363
80.7100 6.2716 0.3312
80.7300 6.2583 0.3338
80.7500 6.2450 0.3315
80.7700 6.2317 0.3323
80.7900 6.2183 0.3294
80.8100 6.2050 0.3311
80.8300 6.1918 0.3281
80.8500 6.1785 0.3283
80.8700 6.1651 0.3273
80.8900 6.1517 0.3263
80.9100 6.1384 0.3257
80.9300 6.1251 0.3247
80.9500 6.1117 0.3248
80.9700 6.0984 0.3222
80.9900 6.0850 0.3247
81.0100 6.0717 0.3205
81.0300 6.0583 0.3219
81.0500 6.0450 0.3200
81.0700 6.0316 0.3206
81.0900 6.0183 0.3172
81.1100 6.0050 0.3196
81.1300 5.9917 0.3161
81.1500 5.9784 0.3175
81.1700 5.9651 0.3155
81.1900 5.9518 0.3158
81.2100 5.9385 0.3133
81.2300 5.9251 0.3144
81.2500 5.9117 0.3128
81.2700 5.8984 0.3110
81.2900 5.8851 0.3122
81.3100 5.8717 0.3090
81.3300 5.8583 0.3107
81.3500 5.8450 0.3076
81.3700 5.8317 0.3095
81.3900 5.8183 0.3054
81.4100 5.8050 0.3085
81.4300 5.7916 0.3041
81.4500 5.7783 0.3055
81.4700 5.7650 0.3033
81.4900 5.7517 0.3045
81.5100 5.7384 0.3006
81.5300 5.7251 0.3037
81.5500 5.7118 0.2998
81.5700 5.6984 0.2998
81.5900 5.6851 0.3000
81.6100 5.6717 0.2978
81.6300 5.6583 0.2980
81.6500 5.6450 0.2956
81.6700 5.6317 0.2976
81.6900 5.6183 0.2936
81.7100 5.6050 0.2962
81.7300 5.5917 0.2922
81.7500 5.5783 0.2935
81.7700 5.5650 0.2912
81.7900 5.5516 0.2929
81.8100 5.5383 0.2883
81.8300 5.5250 0.2911
81.8500 5.5117 0.2872
81.8700 5.4984 0.2890
81.8900 5.4850 0.2871
81.9100 5.4718 0.2868
81.9300 5.4584 0.2852
81.9500 5.4451 0.2838
81.9700 5.4317 0.2854
81.9900 5.4184 0.2819
82.0100 5.4051 0.2846
82.0300 5.3917 0.2803
82.0500 5.3783 0.2821
82.0700 5.3650 0.2789
82.0900 5.3517 0.2806
82.1100 5.3384 0.2763
82.1300 5.3250 0.2797
82.1500 5.3116 0.2751
82.1700 5.2983 0.2771
82.1900 5.2850 0.2748
82.2100 5.2717 0.2749
82.2300 5.2584 0.2738
82.2500 5.2451 0.2734
82.2700 5.2318 0.2726
82.2900 5.2185 0.2702
82.3100 5.2051 0.2722
82.3300 5.1917 0.2693
82.3500 5.1784 0.2697
82.3700 5.1651 0.2671
82.3900 5.1517 0.2688
82.4100 5.1383 0.2653
82.4300 5.1250 0.2677
82.4500 5.1117 0.2636
82.4700 5.0983 0.2654
82.4900 5.0850 0.2628
82.5100 5.0716 0.2640
82.5300 5.0583 0.2611
82.5500 5.0450 0.2620
82.5700 5.0317 0.2606
82.5900 5.0184 0.2588
82.6100 5.0050 0.2611
82.6300 4.9918 0.2571
82.6500 4.9785 0.2586
82.6700 4.9651 0.2552
82.6900 4.9517 0.2580
82.7100 4.9384 0.2524
82.7300 4.9250 0.2565
82.7500 4.9117 0.2518
82.7700 4.8983 0.2534
82.7900 4.8850 0.2516
82.8100 4.8717 0.2509
82.8300 4.8583 0.2503
82.8500 4.8450 0.2489
82.8700 4.8316 0.2501
82.8900 4.8183 0.2462
82.9100 4.8050 0.2487
82.9300 4.7917 0.2451
82.9500 4.7783 0.2468
82.9700 4.7650 0.2436
82.9900 4.7518 0.2458
83.0100 4.7385 0.2414
83.0300 4.7251 0.2435
83.0500 4.7118 0.2410
83.0700 4.6984 0.2408
83.0900 4.6851 0.2393
83.1100 4.6717 0.2401
83.1300 4.6583 0.2374
83.1500 4.6449 0.2388
83.1700 4.6316 0.2363
83.1900 4.6183 0.2360
83.2100 4.6050 0.2355
83.2300 4.5916 0.2347
83.2500 4.5784 0.2338
83.2700 4.5651 0.2318
83.2900 4.5517 0.2332
83.3100 4.5384 0.2297
83.3300 4.5251 0.2319
83.3500 4.5118 0.2287
83.3700 4.4985 0.2291
83.3900 4.4851 0.2263
83.4100 4.4717 0.2284
83.4300 4.4584 0.2251
83.4500 4.4450 0.2263
83.4700 4.4317 0.2249
83.4900 4.4183 0.2233
83.5100 4.4050 0.2236
83.5300 4.3917 0.2217
83.5500 4.3784 0.2222
83.5700 4.3650 0.2193
83.5900 4.3517 0.2216
83.6100 4.3383 0.2163
83.6300 4.3250 0.2199
83.6500 4.3117 0.2160
83.6700 4.2984 0.2173
83.6900 4.2850 0.2152
83.7100 4.2717 0.2161
83.7300 4.2584 0.2132
83.7500 4.2451 0.2136
83.7700 4.2317 0.2131
83.7900 4.2184 0.2106
83.8100 4.2051 0.2115
83.8300 4.1917 0.2094
83.8500 4.1783 0.2103
83.8700 4.1650 0.2067
83.8900 4.1517 0.2098
83.9100 4.1384 0.2043
83.9300 4.1250 0.2080
83.9500 4.1117 0.2039
83.9700 4.0983 0.2053
83.9900 4.0850 0.2025
84.0100 4.0717 0.2041
84.0300 4.0583 0.2008
84.0500 4.0450 0.2014
84.0700 4.0317 0.2002
84.0900 4.0184 0.1995
84.1100 4.0051 0.1981
84.1300 3.9917 0.1983
84.1500 3.9784 0.1971
84.1700 3.9651 0.1955
84.1900 3.9517 0.1966
84.2100 3.9384 0.1930
84.2300 3.9250 0.1953
84.2500 3.9117 0.1926
84.2700 3.8983 0.1927
84.2900 3.8850 0.1900
84.3100 3.8716 0.1921
84.3300 3.8583 0.1881
84.3500 3.8450 0.1897
84.3700 3.8317 0.1872
84.3900 3.8184 0.1880
84.4100 3.8050 0.1857
84.4300 3.7917 0.1860
84.4500 3.7784 0.1844
84.4700 3.7651 0.1841
84.4900 3.7517 0.1837
84.5100 3.7384 0.1804
84.5300 3.7251 0.1828
84.5500 3.7117 0.1786
84.5700 3.6983 0.1811
84.5900 3.6850 0.1772
84.6100 3.6716 0.1803
84.6300 3.6583 0.1756
84.6500 3.6450 0.1775
84.6700 3.6317 0.1748
84.6900 3.6183 0.1754
84.7100 3.6050 0.1730
84.7300 3.5917 0.1732
84.7500 3.5784 0.1718
84.7700 3.5651 0.1710
84.7900 3.5518 0.1720
84.8100 3.5384 0.1683
84.8300 3.5251 0.1701
84.8500 3.5117 0.1666
84.8700 3.4984 0.1683
84.8900 3.4850 0.1647
84.9100 3.4717 0.1670
84.9300 3.4583 0.1637
84.9500 3.4450 0.1649
84.9700 3.4317 0.1620
84.9900 3.4184 0.1624
85.0100 3.4050 0.1604
85.0300 3.3917 0.1614
85.0500 3.3783 0.1589
85.0700 3.3650 0.1581
85.0900 3.3517 0.1588
85.1100 3.3384 0.1556
85.1300 3.3250 0.1566
85.1500 3.3117 0.1549
85.1700 3.2984 0.1553
85.1900 3.2851 0.1522
85.2100 3.2717 0.1545
85.2300 3.2584 0.1502
85.2500 3.2451 0.1520
85.2700 3.2317 0.1490
85.2900 3.2184 0.1501
85.3100 3.2050 0.1473
85.3300 3.1917 0.1490
85.3500 3.1784 0.1450
85.3700 3.1650 0.1458
85.3900 3.1516 0.1451
85.4100 3.1383 0.1439
85.4300 3.1250 0.1435
85.4500 3.1117 0.1422
85.4700 3.0984 0.1429
85.4900 3.0851 0.1389
85.5100 3.0717 0.1423
85.5300 3.0584 0.1365
85.5500 3.0451 0.1401
85.5700 3.0317 0.1351
85.5900 3.0183 0.1384
85.6100 3.0050 0.1330
85.6300 2.9917 0.1372
85.6500 2.9784 0.1325
85.6700 2.9650 0.1338
85.6900 2.9517 0.1324
85.7100 2.9384 0.1313
85.7300 2.9250 0.1308
85.7500 2.9117 0.1294
85.7700 2.8983 0.1296
85.7900 2.8850 0.1264
85.8100 2.8717 0.1287
85.8300 2.8584 0.1249
85.8500 2.8450 0.1270
85.8700 2.8317 0.1244
85.8900 2.8184 0.1254
85.9100 2.8051 0.1214
85.9300 2.7918 0.1229
85.9500 2.7784 0.1212
85.9700 2.7651 0.1199
85.9900 2.7517 0.1196
86.0100 2.7384 0.1181
86.0300 2.7250 0.1176
86.0500 2.7117 0.1166
86.0700 2.6983 0.1160
86.0900 2.6850 0.1136
86.1100 2.6716 0.1151
86.1300 2.6583 0.1123
86.1500 2.6450 0.1137
86.1700 2.6317 0.1105
86.1900 2.6184 0.1123
86.2100 2.6050 0.1080
86.2300 2.5917 0.1108
86.2500 2.5784 0.1070
86.2700 2.5651 0.1074
86.2900 2.5517 0.1061
86.3100 2.5384 0.1062
86.3300 2.5251 0.1040
86.3500 2.5117 0.1041
86.3700 2.4984 0.1033
86.3900 2.4850 0.1006
86.4100 2.4716 0.1025
86.4300 2.4583 0.0986
86.4500 2.4450 0.1003
86.4700 2.4316 0.0967
86.4900 2.4183 0.0993
86.5100 2.4050 0.0942
86.5300 2.3917 0.0982
86.5500 2.3784 0.0927
86.5700 2.3650 0.0956
86.5900 2.3517 0.0917
86.6100 2.3384 0.0937
86.6300 2.3251 0.0895
86.6500 2.3118 0.0916
86.6700 2.2984 0.0886
86.6900 2.2850 0.0885
86.7100 2.2717 0.0876
86.7300 2.2584 0.0866
86.7500 2.2450 0.0862
86.7700 2.2317 0.0841
86.7900 2.2183 0.0855
86.8100 2.2050 0.0814
86.8300 2.1917 0.0842
86.8500 2.1783 0.0802
86.8700 2.1650 0.0810
86.8900 2.1517 0.0791
86.9100 2.1383 0.0792
86.9300 2.1250 0.0767
86.9500 2.1117 0.0782
86.9700 2.0984 0.0751
86.9900 2.0851 0.0754
87.0100 2.0717 0.0737
87.0300 2.0583 0.0739
87.0500 2.0450 0.0717
87.0700 2.0317 0.0716
87.0900 2.0184 0.0707
87.1100 2.0050 0.0696
87.1300 1.9917 0.0702
87.1500 1.9784 0.0679
87.1700 1.9651 0.0678
87.1900 1.9517 0.0663
87.2100 1.9383 0.0661
87.2300 1.9250 0.0637
87.2500 1.9117 0.0646
87.2700 1.8984 0.0625
87.2900 1.8850 0.0629
87.3100 1.8717 0.0605
87.3300 1.8584 0.0615
87.3500 1.8451 0.0587
87.3700 1.8317 0.0594
87.3900 1.8184 0.0591
87.4100 1.8051 0.0565
87.4300 1.7918 0.0573
87.4500 1.7784 0.0548
87.4700 1.7650 0.0552
87.4900 1.7517 0.0528
87.5100 1.7384 0.0545
87.5300 1.7250 0.0505
87.5500 1.7117 0.0522
87.5700 1.6983 0.0492
87.5900 1.6850 0.0495
87.6100 1.6717 0.0477
87.6300 1.6584 0.0481
87.6500 1.6450 0.0449
87.6700 1.6317 0.0459
87.6900 1.6184 0.0453
87.7100 1.6051 0.0424
87.7300 1.5918 0.0434
87.7500 1.5784 0.0406
87.7700 1.5650 0.0413
87.7900 1.5517 0.0386
87.8100 1.5384 0.0398
87.8300 1.5250 0.0362
87.8500 1.5117 0.0389
87.8700 1.4984 0.0358
87.8900 1.4851 0.0360
87.9100 1.4717 0.0347
87.9300 1.4583 0.0356
87.9500 1.4450 0.0333
87.9700 1.4317 0.0327
87.9900 1.4183 0.0318
88.0100 1.4050 0.0303
88.0300 1.3917 0.0301
88.0500 1.3784 0.0295
88.0700 1.3651 0.0283
88.0900 1.3518 0.0274
88.1100 1.3384 0.0274
88.1300 1.3251 0.0241
88.1500 1.3117 0.0250
88.1700 1.2984 0.0230
88.1900 1.2850 0.0232
88.2100 1.2717 0.0210
88.2300 1.2583 0.0216
88.2500 1.2450 0.0182
88.2700 1.2317 0.0200
88.2900 1.2183 0.0165
88.3100 1.2050 0.0183
88.3300 1.1917 0.0149
88.3500 1.1784 0.0152
88.3700 1.1650 0.0129
88.3900 1.1517 0.0133
88.4100 1.1384 0.0128
88.4300 1.1251 0.0093
88.4500 1.1118 0.0109
88.4700 1.0984 0.0072
88.4900 1.0850 0.0086
88.5100 1.0717 0.0054
88.5300 1.0584 0.0075
88.5500 1.0450 0.0041
88.5700 1.0316 0.0056
88.5900 1.0183 0.0027
88.6100 1.0050 0.0033
88.6300 0.9916 0.0017
88.6500 0.9783 0.0023
88.6700 0.9650 0.0012
88.6900 0.9517 -0.0007
88.7100 0.9384 0.0006
88.7300 0.9250 -0.0025
88.7500 0.9117 0.0000
88.7700 0.8984 -0.0034
88.7900 0.8851 -0.0007
88.8100 0.8718 -0.0046
88.8300 0.8584 -0.0026
88.8500 0.8450 -0.0050
88.8700 0.8317 -0.0053
88.8900 0.8184 -0.0059
88.9100 0.8050 -0.0079
88.9300 0.7916 -0.0080
88.9500 0.7783 -0.0090
88.9700 0.7650 -0.0106
88.9900 0.7517 -0.0125
89.0100 0.7383 -0.0119
89.0300 0.7250 -0.0151
89.0500 0.7117 -0.0144
89.0700 0.6984 -0.0176
89.0900 0.6850 -0.0163
89.1100 0.6717 -0.0197
89.1300 0.6584 -0.0187
89.1500 0.6451 -0.0223
89.1700 0.6318 -0.0214
89.1900 0.6184 -0.0230
89.2100 0.6050 -0.0229
89.2300 0.5917 -0.0263
89.2500 0.5784 -0.0246
89.2700 0.5650 -0.0274
89.2900 0.5516 -0.0267
89.3100 0.5383 -0.0280
89.3300 0.5250 -0.0293
89.3500 0.5117 -0.0289
89.3700 0.4983 -0.0311
89.3900 0.4850 -0.0296
89.4100 0.4717 -0.0336
89.4300 0.4583 -0.0306
89.4500 0.4450 -0.0353
89.4700 0.4317 -0.0319
89.4900 0.4184 -0.0346
89.5100 0.4051 -0.0320
89.5300 0.3917 -0.0361
89.5500 0.3784 -0.0310
89.5700 0.3651 -0.0348
89.5900 0.3518 -0.0328
89.6100 0.3384 -0.0335
89.6300 0.3250 -0.0344
89.6500 0.3116 -0.0332
89.6700 0.2983 -0.0342
89.6900 0.2850 -0.0333
89.7100 0.2717 -0.0350
89.7300 0.2583 -0.0325
89.7500 0.2449 -0.0346
89.7700 0.2316 -0.0333
89.7900 0.2183 -0.0343
89.8100 0.2050 -0.0330
89.8300 0.1917 -0.0338
89.8500 0.1784 -0.0330
89.8700 0.1651 -0.0340
89.8900 0.1518 -0.0339
89.9100 0.1384 -0.0339
89.9300 0.1250 -0.0328
89.9500 0.1117 -0.0341
89.9700 0.0984 -0.0334
89.9900 0.0850 -0.0348
90.0100 0.0716 -0.0330
90.0300 0.0583 -0.0335
90.0500 0.0450 -0.0329
90.0700 0.0317 -0.0339
90.0900 0.0183 -0.0333
90.1100 0.0050 -0.0323
90.1180 -0.0002 -0.0301
