Raw Data
Time Displacement Force
(s) (mm) (N)
0.0000 0.0000 -0.0307
0.0200 0.0001 -0.0288
0.0400 0.0018 -0.0183
0.0600 0.0088 -0.0190
0.0800 0.0204 -0.0304
0.1000 0.0327 -0.0274
0.1200 0.0452 -0.0311
0.1400 0.0586 -0.0243
0.1600 0.0728 -0.0281
0.1800 0.0871 -0.0244
0.2000 0.1011 -0.0269
0.2200 0.1147 -0.0220
0.2400 0.1281 -0.0229
0.2600 0.1414 -0.0196
0.2800 0.1547 -0.0198
0.3000 0.1680 -0.0182
0.3200 0.1814 -0.0156
0.3400 0.1947 -0.0149
0.3600 0.2081 -0.0122
0.3800 0.2214 -0.0112
0.4000 0.2347 -0.0069
0.4200 0.2480 -0.0101
0.4400 0.2614 -0.0035
0.4600 0.2747 -0.0059
0.4800 0.2881 0.0000
0.5000 0.3014 -0.0022
0.5200 0.3148 0.0041
0.5400 0.3281 0.0020
0.5600 0.3414 0.0072
0.5800 0.3548 0.0076
0.6000 0.3681 0.0101
0.6200 0.3815 0.0109
0.6400 0.3948 0.0137
0.6600 0.4081 0.0154
0.6800 0.4214 0.0163
0.7000 0.4347 0.0208
0.7200 0.4480 0.0184
0.7400 0.4614 0.0248
0.7600 0.4747 0.0232
0.7800 0.4881 0.0290
0.8000 0.5014 0.0263
0.8200 0.5148 0.0320
0.8400 0.5281 0.0300
0.8600 0.5415 0.0346
0.8800 0.5548 0.0355
0.9000 0.5681 0.0381
0.9200 0.5814 0.0390
0.9400 0.5948 0.0411
0.9600 0.6081 0.0424
0.9800 0.6215 0.0446
1.0000 0.6347 0.0475
1.0200 0.6480 0.0476
1.0400 0.6614 0.0507
1.0600 0.6747 0.0507
1.0800 0.6880 0.0544
1.1000 0.7013 0.0538
1.1200 0.7147 0.0591
1.1400 0.7280 0.0575
1.1600 0.7414 0.0605
1.1800 0.7547 0.0618
1.2000 0.7681 0.0642
1.2200 0.7814 0.0648
1.2400 0.7948 0.0682
1.2600 0.8081 0.0679
1.2800 0.8214 0.0710
1.3000 0.8347 0.0729
1.3200 0.8481 0.0741
1.3400 0.8615 0.0758
1.3600 0.8748 0.0769
1.3800 0.8881 0.0801
1.4000 0.9015 0.0786
1.4200 0.9148 0.0845
1.4400 0.9281 0.0820
1.4600 0.9414 0.0874
1.4800 0.9547 0.0862
1.5000 0.9680 0.0902
1.5200 0.9814 0.0887
1.5400 0.9947 0.0942
1.5600 1.0080 0.0922
1.5800 1.0214 0.0959
1.6000 1.0348 0.0964
1.6200 1.0481 0.0982
1.6400 1.0615 0.0997
1.6600 1.0748 0.1020
1.6800 1.0882 0.1041
1.7000 1.1015 0.1031
1.7200 1.1148 0.1089
1.7400 1.1281 0.1060
1.7600 1.1414 0.1111
1.7800 1.1548 0.1104
1.8000 1.1681 0.1139
1.8200 1.1814 0.1128
1.8400 1.1947 0.1172
1.8600 1.2080 0.1164
1.8800 1.2214 0.1189
1.9000 1.2347 0.1206
1.9200 1.2481 0.1216
1.9400 1.2614 0.1239
1.9600 1.2748 0.1241
1.9800 1.2882 0.1273
2.0000 1.3015 0.1262
2.0200 1.3148 0.1319
2.0400 1.3282 0.1289
2.0600 1.3415 0.1337
2.0800 1.3548 0.1327
2.1000 1.3681 0.1365
2.1200 1.3814 0.1352
2.1400 1.3948 0.1398
2.1600 1.4081 0.1384
2.1800 1.4214 0.1422
2.2000 1.4347 0.1419
2.2200 1.4480 0.1450
2.2400 1.4614 0.1446
2.2600 1.4747 0.1483
2.2800 1.4881 0.1471
2.3000 1.5014 0.1507
2.3200 1.5148 0.1514
2.3400 1.5282 0.1524
2.3600 1.5415 0.1542
2.3800 1.5548 0.1552
2.4000 1.5682 0.1577
2.4200 1.5815 0.1567
2.4400 1.5948 0.1615
2.4600 1.6081 0.1597
2.4800 1.6214 0.1637
2.5000 1.6347 0.1633
2.5200 1.6480 0.1664
2.5400 1.6613 0.1656
2.5600 1.6746 0.1690
2.5800 1.6880 0.1684
2.6000 1.7014 0.1698
2.6200 1.7147 0.1729
2.6400 1.7281 0.1729
2.6600 1.7414 0.1748
2.6800 1.7548 0.1751
2.7000 1.7682 0.1782
2.7200 1.7815 0.1769
2.7400 1.7948 0.1821
2.7600 1.8081 0.1800
2.7800 1.8215 0.1832
2.8000 1.8348 0.1843
2.8200 1.8481 0.1859
2.8400 1.8614 0.1862
2.8600 1.8747 0.1889
2.8800 1.8881 0.1884
2.9000 1.9014 0.1903
2.9200 1.9147 0.1928
2.9400 1.9281 0.1934
2.9600 1.9414 0.1939
2.9800 1.9547 0.1968
3.0000 1.9681 0.1973
3.0200 1.9814 0.1979
3.0400 1.9948 0.2005
3.0600 2.0081 0.2005
3.0800 2.0214 0.2021
3.1000 2.0347 0.2041
3.1200 2.0481 0.2059
3.1400 2.0615 0.2052
3.1600 2.0748 0.2096
3.1800 2.0881 0.2076
3.2000 2.1014 0.2113
3.2200 2.1148 0.2099
3.2400 2.1281 0.2146
3.2600 2.1414 0.2118
3.2800 2.1547 0.2168
3.3000 2.1681 0.2157
3.3200 2.1814 0.2181
3.3400 2.1948 0.2196
3.3600 2.2081 0.2202
3.3800 2.2214 0.2216
3.4000 2.2348 0.2226
3.4200 2.2481 0.2245
3.4400 2.2614 0.2241
3.4600 2.2748 0.2273
3.4800 2.2881 0.2270
3.5000 2.3015 0.2287
3.5200 2.3148 0.2297
3.5400 2.3281 0.2322
3.5600 2.3414 0.2321
3.5800 2.3548 0.2336
3.6000 2.3681 0.2351
3.6200 2.3814 0.2349
3.6400 2.3947 0.2385
3.6600 2.4080 0.2375
3.6800 2.4214 0.2398
3.7000 2.4347 0.2400
3.7200 2.4480 0.2429
3.7400 2.4614 0.2420
3.7600 2.4748 0.2446
3.7800 2.4882 0.2454
3.8000 2.5015 0.2467
3.8200 2.5148 0.2476
3.8400 2.5282 0.2502
3.8600 2.5415 0.2489
3.8800 2.5548 0.2522
3.9000 2.5681 0.2507
3.9200 2.5814 0.2547
3.9400 2.5947 0.2539
3.9600 2.6081 0.2568
3.9800 2.6214 0.2563
4.0000 2.6347 0.2589
4.0200 2.6480 0.2595
4.0400 2.6614 0.2605
4.0600 2.6748 0.2614
4.0800 2.6881 0.2625
4.1000 2.7014 0.2643
4.1200 2.7148 0.2639
4.1400 2.7282 0.2680
4.1600 2.7415 0.2652
4.1800 2.7548 0.2705
4.2000 2.7681 0.2679
4.2200 2.7815 0.2723
4.2400 2.7948 0.2702
4.2600 2.8081 0.2751
4.2800 2.8214 0.2726
4.3000 2.8347 0.2764
4.3200 2.8481 0.2764
4.3400 2.8614 0.2767
4.3600 2.8747 0.2790
4.3800 2.8880 0.2789
4.4000 2.9014 0.2815
4.4200 2.9148 0.2807
4.4400 2.9281 0.2839
4.4600 2.9414 0.2825
4.4800 2.9548 0.2867
4.5000 2.9682 0.2845
4.5200 2.9815 0.2888
4.5400 2.9948 0.2875
4.5600 3.0081 0.2907
4.5800 3.0215 0.2892
4.6000 3.0348 0.2924
4.6200 3.0481 0.2927
4.6400 3.0614 0.2936
4.6600 3.0748 0.2945
4.6800 3.0881 0.2962
4.7000 3.1014 0.2967
4.7200 3.1147 0.2988
4.7400 3.1280 0.2999
4.7600 3.1414 0.2998
4.7800 3.1548 0.3019
4.8000 3.1681 0.3021
4.8200 3.1814 0.3041
4.8400 3.1948 0.3040
4.8600 3.2082 0.3069
4.8800 3.2215 0.3051
4.9000 3.2348 0.3087
4.9200 3.2481 0.3081
4.9400 3.2614 0.3101
4.9600 3.2748 0.3096
4.9800 3.2881 0.3125
5.0000 3.3014 0.3128
5.0200 3.3147 0.3138
5.0400 3.3281 0.3157
5.0600 3.3414 0.3152
5.0800 3.3547 0.3182
5.1000 3.3681 0.3172
5.1200 3.3814 0.3206
5.1400 3.3947 0.3182
5.1600 3.4081 0.3240
5.1800 3.4214 0.3194
5.2000 3.4348 0.3251
5.2200 3.4481 0.3219
5.2400 3.4615 0.3264
5.2600 3.4748 0.3246
5.2800 3.4881 0.3283
5.3000 3.5015 0.3273
5.3200 3.5148 0.3290
5.3400 3.5282 0.3311
5.3600 3.5415 0.3305
5.3800 3.5548 0.3325
5.4000 3.5681 0.3325
5.4200 3.5814 0.3351
5.4400 3.5947 0.3342
5.4600 3.6080 0.3372
5.4800 3.6214 0.3357
5.5000 3.6347 0.3387
5.5200 3.6480 0.3381
5.5400 3.6614 0.3405
5.5600 3.6748 0.3396
5.5800 3.6882 0.3427
5.6000 3.7015 0.3425
5.6200 3.7148 0.3435
5.6400 3.7281 0.3458
5.6600 3.7415 0.3450
5.6800 3.7549 0.3473
5.7000 3.7681 0.3475
5.7200 3.7814 0.3495
5.7400 3.7947 0.3482
5.7600 3.8081 0.3521
5.7800 3.8214 0.3497
5.8000 3.8347 0.3545
5.8200 3.8480 0.3519
5.8400 3.8614 0.3571
5.8600 3.8747 0.3524
5.8800 3.8880 0.3591
5.9000 3.9014 0.3551
5.9200 3.9147 0.3603
5.9400 3.9281 0.3579
5.9600 3.9415 0.3611
5.9800 3.9548 0.3602
6.0000 3.9681 0.3628
6.0200 3.9815 0.3632
6.0400 3.9948 0.3629
6.0600 4.0081 0.3668
6.0800 4.0214 0.3643
6.1000 4.0347 0.3681
6.1200 4.0481 0.3662
6.1400 4.0614 0.3711
6.1600 4.0747 0.3675
6.1800 4.0880 0.3736
6.2000 4.1014 0.3700
6.2200 4.1148 0.3735
6.2400 4.1281 0.3731
6.2600 4.1414 0.3747
6.2800 4.1548 0.3749
6.3000 4.1682 0.3760
6.3200 4.1815 0.3765
6.3400 4.1948 0.3771
6.3600 4.2081 0.3797
6.3800 4.2214 0.3795
6.4000 4.2348 0.3810
6.4200 4.2481 0.3813
6.4400 4.2614 0.3841
6.4600 4.2748 0.3823
6.4800 4.2881 0.3863
6.5000 4.3014 0.3842
6.5200 4.3147 0.3874
6.5400 4.3280 0.3870
6.5600 4.3414 0.3889
6.5800 4.3547 0.3880
6.6000 4.3681 0.3911
6.6200 4.3814 0.3901
6.6400 4.3947 0.3918
6.6600 4.4081 0.3927
6.6800 4.4215 0.3930
6.7000 4.4348 0.3943
6.7200 4.4481 0.3947
6.7400 4.4615 0.3974
6.7600 4.4748 0.3947
6.7800 4.4881 0.4002
6.8000 4.5014 0.3969
6.8200 4.5148 0.4020
6.8400 4.5281 0.3988
6.8600 4.5414 0.4039
6.8800 4.5547 0.4001
6.9000 4.5680 0.4053
6.9200 4.5813 0.4018
6.9400 4.5947 0.4054
6.9600 4.6080 0.4047
6.9800 4.6214 0.4075
7.0000 4.6347 0.4067
7.0200 4.6481 0.4083
7.0400 4.6615 0.4098
7.0600 4.6748 0.4088
7.0800 4.6881 0.4126
7.1000 4.7015 0.4103
7.1200 4.7148 0.4137
7.1400 4.7282 0.4120
7.1600 4.7414 0.4162
7.1800 4.7548 0.4133
7.2000 4.7681 0.4177
7.2200 4.7815 0.4151
7.2400 4.7947 0.4181
7.2600 4.8080 0.4185
7.2800 4.8214 0.4200
7.3000 4.8347 0.4197
7.3200 4.8480 0.4210
7.3400 4.8614 0.4227
7.3600 4.8747 0.4219
7.3800 4.8881 0.4248
7.4000 4.9015 0.4232
7.4200 4.9148 0.4270
7.4400 4.9281 0.4245
7.4600 4.9415 0.4294
7.4800 4.9549 0.4247
7.5000 4.9682 0.4309
7.5200 4.9815 0.4269
7.5400 4.9948 0.4321
7.5600 5.0081 0.4301
7.5800 5.0214 0.4334
7.6000 5.0347 0.4314
7.6200 5.0480 0.4356
7.6400 5.0614 0.4344
7.6600 5.0747 0.4361
7.6800 5.0881 0.4366
7.7000 5.1014 0.4367
7.7200 5.1148 0.4386
7.7400 5.1282 0.4379
7.7600 5.1415 0.4419
7.7800 5.1548 0.4384
7.8000 5.1681 0.4436
7.8200 5.1815 0.4396
7.8400 5.1948 0.4447
7.8600 5.2081 0.4420
7.8800 5.2214 0.4468
7.9000 5.2347 0.4439
7.9200 5.2480 0.4477
7.9400 5.2614 0.4463
7.9600 5.2747 0.4482
7.9800 5.2880 0.4491
8.0000 5.3014 0.4499
8.0200 5.3147 0.4512
8.0400 5.3281 0.4503
8.0600 5.3414 0.4541
8.0800 5.3548 0.4504
8.1000 5.3681 0.4566
8.1200 5.3815 0.4518
8.1400 5.3948 0.4572
8.1600 5.4081 0.4537
8.1800 5.4215 0.4584
8.2000 5.4348 0.4562
8.2200 5.4481 0.4593
8.2400 5.4614 0.4586
8.2600 5.4747 0.4605
8.2800 5.4881 0.4604
8.3000 5.5014 0.4620
8.3200 5.5147 0.4625
8.3400 5.5280 0.4629
8.3600 5.5414 0.4648
8.3800 5.5547 0.4633
8.4000 5.5681 0.4659
8.4200 5.5814 0.4651
8.4400 5.5947 0.4678
8.4600 5.6081 0.4667
8.4800 5.6215 0.4695
8.5000 5.6348 0.4682
8.5200 5.6481 0.4709
8.5400 5.6614 0.4699
8.5600 5.6748 0.4723
8.5800 5.6882 0.4717
8.6000 5.7015 0.4743
8.6200 5.7148 0.4734
8.6400 5.7281 0.4751
8.6600 5.7415 0.4764
8.6800 5.7548 0.4758
8.7000 5.7681 0.4782
8.7200 5.7814 0.4772
8.7400 5.7947 0.4801
8.7600 5.8080 0.4781
8.7800 5.8214 0.4819
8.8000 5.8347 0.4787
8.8200 5.8481 0.4835
8.8400 5.8615 0.4803
8.8600 5.8748 0.4845
8.8800 5.8882 0.4816
8.9000 5.9015 0.4864
8.9200 5.9149 0.4838
8.9400 5.9282 0.4866
8.9600 5.9415 0.4865
8.9800 5.9548 0.4876
9.0000 5.9681 0.4896
9.0200 5.9814 0.4879
9.0400 5.9947 0.4922
9.0600 6.0080 0.4888
9.0800 6.0213 0.4936
9.1000 6.0347 0.4904
9.1200 6.0481 0.4954
9.1400 6.0614 0.4922
9.1600 6.0748 0.4963
9.1800 6.0881 0.4936
9.2000 6.1015 0.4977
9.2200 6.1148 0.4965
9.2400 6.1281 0.4972
9.2600 6.1415 0.4994
9.2800 6.1548 0.4977
9.3000 6.1682 0.4995
9.3200 6.1815 0.4990
9.3400 6.1947 0.5024
9.3600 6.2081 0.4996
9.3800 6.2214 0.5046
9.4000 6.2347 0.5015
9.4200 6.2480 0.5062
9.4400 6.2613 0.5031
9.4600 6.2747 0.5072
9.4800 6.2881 0.5044
9.5000 6.3014 0.5094
9.5200 6.3147 0.5063
9.5400 6.3281 0.5100
9.5600 6.3415 0.5080
9.5800 6.3548 0.5108
9.6000 6.3681 0.5093
9.6200 6.3815 0.5126
9.6400 6.3948 0.5116
9.6600 6.4082 0.5123
9.6800 6.4215 0.5139
9.7000 6.4347 0.5128
9.7200 6.4481 0.5165
9.7400 6.4614 0.5134
9.7600 6.4747 0.5189
9.7800 6.4880 0.5138
9.8000 6.5013 0.5204
9.8200 6.5147 0.5165
9.8400 6.5281 0.5207
9.8600 6.5414 0.5187
9.8800 6.5547 0.5216
9.9000 6.5681 0.5193
9.9200 6.5815 0.5230
9.9400 6.5948 0.5217
9.9600 6.6082 0.5227
9.9800 6.6215 0.5251
10.0000 6.6348 0.5234
10.0200 6.6482 0.5265
10.0400 6.6614 0.5251
10.0600 6.6747 0.5293
10.0800 6.6881 0.5257
10.1000 6.7014 0.5299
10.1200 6.7148 0.5279
10.1400 6.7281 0.5304
10.1600 6.7414 0.5290
10.1800 6.7547 0.5321
10.2000 6.7681 0.5304
10.2200 6.7814 0.5331
10.2400 6.7947 0.5325
10.2600 6.8081 0.5339
10.2800 6.8215 0.5344
10.3000 6.8348 0.5347
10.3200 6.8481 0.5365
10.3400 6.8614 0.5369
10.3600 6.8748 0.5388
10.3800 6.8882 0.5369
10.4000 6.9015 0.5400
10.4200 6.9148 0.5383
10.4400 6.9281 0.5412
10.4600 6.9414 0.5403
10.4800 6.9547 0.5427
10.5000 6.9680 0.5410
10.5200 6.9814 0.5439
10.5400 6.9947 0.5422
10.5600 7.0081 0.5446
10.5800 7.0214 0.5439
10.6000 7.0347 0.5464
10.6200 7.0481 0.5458
10.6400 7.0614 0.5465
10.6600 7.0748 0.5480
10.6800 7.0881 0.5476
10.7000 7.1014 0.5503
10.7200 7.1148 0.5495
10.7400 7.1281 0.5513
10.7600 7.1414 0.5506
10.7800 7.1547 0.5531
10.8000 7.1681 0.5512
10.8200 7.1815 0.5553
10.8400 7.1948 0.5529
10.8600 7.2081 0.5560
10.8800 7.2214 0.5543
10.9000 7.2347 0.5573
10.9200 7.2480 0.5560
10.9400 7.2614 0.5580
10.9600 7.2747 0.5586
10.9800 7.2881 0.5583
11.0000 7.3015 0.5599
11.0200 7.3149 0.5598
11.0400 7.3282 0.5623
11.0600 7.3415 0.5609
11.0800 7.3549 0.5630
11.1000 7.3682 0.5613
11.1200 7.3815 0.5646
11.1400 7.3947 0.5638
11.1600 7.4080 0.5659
11.1800 7.4214 0.5647
11.2000 7.4347 0.5669
11.2200 7.4480 0.5654
11.2400 7.4614 0.5681
11.2600 7.4747 0.5681
11.2800 7.4881 0.5682
11.3000 7.5014 0.5703
11.3200 7.5148 0.5697
11.3400 7.5281 0.5715
11.3600 7.5415 0.5710
11.3800 7.5549 0.5734
11.4000 7.5681 0.5718
11.4200 7.5814 0.5753
11.4400 7.5948 0.5737
11.4600 7.6081 0.5762
11.4800 7.6215 0.5738
11.5000 7.6347 0.5778
11.5200 7.6481 0.5744
11.5400 7.6614 0.5785
11.5600 7.6748 0.5765
11.5800 7.6881 0.5793
11.6000 7.7014 0.5781
11.6200 7.7147 0.5806
11.6400 7.7281 0.5790
11.6600 7.7414 0.5813
11.6800 7.7548 0.5821
11.7000 7.7681 0.5813
11.7200 7.7815 0.5839
11.7400 7.7948 0.5831
11.7600 7.8081 0.5859
11.7800 7.8214 0.5836
11.8000 7.8348 0.5878
11.8200 7.8482 0.5847
11.8400 7.8615 0.5885
11.8600 7.8747 0.5860
11.8800 7.8881 0.5897
11.9000 7.9014 0.5882
11.9200 7.9147 0.5909
11.9400 7.9280 0.5897
11.9600 7.9414 0.5911
11.9800 7.9547 0.5925
12.0000 7.9681 0.5915
12.0200 7.9814 0.5934
12.0400 7.9948 0.5935
12.0600 8.0081 0.5948
12.0800 8.0215 0.5935
12.1000 8.0348 0.5968
12.1200 8.0481 0.5954
12.1400 8.0614 0.5977
12.1600 8.0748 0.5969
12.1800 8.0881 0.5995
12.2000 8.1014 0.5974
12.2200 8.1147 0.6020
12.2400 8.1281 0.5985
12.2600 8.1414 0.6019
12.2800 8.1548 0.6009
12.3000 8.1681 0.6026
12.3200 8.1814 0.6025
12.3400 8.1947 0.6035
12.3600 8.2081 0.6038
12.3800 8.2214 0.6047
12.4000 8.2347 0.6062
12.4200 8.2481 0.6052
12.4400 8.2614 0.6061
12.4600 8.2748 0.6059
12.4800 8.2881 0.6085
12.5000 8.3014 0.6074
12.5200 8.3148 0.6102
12.5400 8.3282 0.6087
12.5600 8.3415 0.6100
12.5800 8.3548 0.6110
12.6000 8.3681 0.6115
12.6200 8.3814 0.6123
12.6400 8.3948 0.6122
12.6600 8.4081 0.6139
12.6800 8.4214 0.6130
12.7000 8.4347 0.6154
12.7200 8.4480 0.6144
12.7400 8.4614 0.6169
12.7600 8.4747 0.6155
12.7800 8.4881 0.6181
12.8000 8.5014 0.6154
12.8200 8.5148 0.6204
12.8400 8.5281 0.6168
12.8600 8.5414 0.6216
12.8800 8.5548 0.6191
12.9000 8.5682 0.6215
12.9200 8.5815 0.6200
12.9400 8.5948 0.6225
12.9600 8.6081 0.6225
12.9800 8.6214 0.6231
13.0000 8.6348 0.6239
13.0200 8.6481 0.6242
13.0400 8.6614 0.6254
13.0600 8.6747 0.6255
13.0800 8.6880 0.6272
13.1000 8.7014 0.6244
13.1200 8.7147 0.6296
13.1400 8.7281 0.6266
13.1600 8.7415 0.6303
13.1800 8.7548 0.6281
13.2000 8.7681 0.6308
13.2200 8.7814 0.6291
13.2400 8.7948 0.6318
13.2600 8.8081 0.6309
13.2800 8.8214 0.6323
13.3000 8.8347 0.6333
13.3200 8.8481 0.6331
13.3400 8.8614 0.6341
13.3600 8.8747 0.6349
13.3800 8.8881 0.6366
13.4000 8.9014 0.6352
13.4200 8.9147 0.6380
13.4400 8.9281 0.6364
13.4600 8.9415 0.6390
13.4800 8.9548 0.6376
13.5000 8.9681 0.6406
13.5200 8.9815 0.6384
13.5400 8.9948 0.6419
13.5600 9.0081 0.6396
13.5800 9.0214 0.6431
13.6000 9.0348 0.6410
13.6200 9.0481 0.6435
13.6400 9.0615 0.6404
13.6600 9.0748 0.6450
13.6800 9.0881 0.6430
13.7000 9.1014 0.6454
13.7200 9.1148 0.6448
13.7400 9.1281 0.6454
13.7600 9.1414 0.6468
13.7800 9.1547 0.6472
13.8000 9.1681 0.6490
13.8200 9.1814 0.6470
13.8400 9.1947 0.6516
13.8600 9.2080 0.6487
13.8800 9.2214 0.6519
13.9000 9.2348 0.6497
13.9200 9.2481 0.6538
13.9400 9.2615 0.6507
13.9600 9.2748 0.6548
13.9800 9.2882 0.6527
14.0000 9.3015 0.6537
14.0200 9.3148 0.6548
14.0400 9.3281 0.6553
14.0600 9.3414 0.6561
14.0800 9.3548 0.6561
14.1000 9.3681 0.6580
14.1200 9.3814 0.6558
14.1400 9.3947 0.6604
14.1600 9.4080 0.6577
14.1800 9.4214 0.6609
14.2000 9.4347 0.6590
14.2200 9.4481 0.6618
14.2400 9.4614 0.6599
14.2600 9.4748 0.6623
14.2800 9.4881 0.6619
14.3000 9.5015 0.6633
14.3200 9.5148 0.6629
14.3400 9.5281 0.6645
14.3600 9.5415 0.6630
14.3800 9.5548 0.6657
14.4000 9.5681 0.6661
14.4200 9.5814 0.6650
14.4400 9.5948 0.6676
14.4600 9.6081 0.6662
14.4800 9.6214 0.6692
14.5000 9.6347 0.6676
14.5200 9.6481 0.6714
14.5400 9.6614 0.6680
14.5600 9.6747 0.6715
14.5800 9.6880 0.6701
14.6000 9.7014 0.6723
14.6200 9.7148 0.6706
14.6400 9.7281 0.6741
14.6600 9.7414 0.6720
14.6800 9.7548 0.6740
14.7000 9.7682 0.6746
14.7200 9.7815 0.6730
14.7400 9.7948 0.6769
14.7600 9.8081 0.6743
14.7800 9.8214 0.6790
14.8000 9.8348 0.6750
14.8200 9.8481 0.6809
14.8400 9.8614 0.6758
14.8600 9.8747 0.6820
14.8800 9.8880 0.6778
14.9000 9.9014 0.6822
14.9200 9.9147 0.6787
14.9400 9.9281 0.6839
14.9600 9.9414 0.6803
14.9800 9.9548 0.6841
15.0000 9.9682 0.6826
15.0200 9.9815 0.6832
15.0400 9.9948 0.6842
15.0600 10.0081 0.6841
15.0800 10.0215 0.6851
15.1000 10.0348 0.6848
15.1200 10.0481 0.6874
15.1400 10.0614 0.6853
15.1600 10.0747 0.6886
15.1800 10.0880 0.6878
15.2000 10.1014 0.6900
15.2200 10.1147 0.6883
15.2400 10.1281 0.6916
15.2600 10.1414 0.6884
15.2800 10.1548 0.6923
15.3000 10.1681 0.6914
15.3200 10.1815 0.6933
15.3400 10.1948 0.6920
15.3600 10.2082 0.6938
15.3800 10.2215 0.6944
15.4000 10.2348 0.6942
15.4200 10.2481 0.6968
15.4400 10.2615 0.6935
15.4600 10.2748 0.6982
15.4800 10.2880 0.6948
15.5000 10.3014 0.6992
15.5200 10.3147 0.6949
15.5400 10.3281 0.7007
15.5600 10.3414 0.6957
15.5800 10.3547 0.7021
15.6000 10.3680 0.6976
15.6200 10.3814 0.7021
15.6400 10.3947 0.7000
15.6600 10.4081 0.7027
15.6800 10.4214 0.7024
15.7000 10.4348 0.7022
15.7200 10.4481 0.7052
15.7400 10.4614 0.7022
15.7600 10.4747 0.7069
15.7800 10.4881 0.7035
15.8000 10.5015 0.7074
15.8200 10.5148 0.7043
15.8400 10.5281 0.7092
15.8600 10.5415 0.7059
15.8800 10.5548 0.7095
15.9000 10.5681 0.7077
15.9200 10.5814 0.7103
15.9400 10.5947 0.7088
15.9600 10.6080 0.7118
15.9800 10.6214 0.7100
16.0000 10.6347 0.7115
16.0200 10.6480 0.7121
16.0400 10.6614 0.7118
16.0600 10.6748 0.7137
16.0800 10.6882 0.7126
16.1000 10.7015 0.7139
16.1200 10.7148 0.7136
16.1400 10.7282 0.7161
16.1600 10.7415 0.7143
16.1800 10.7548 0.7167
16.2000 10.7681 0.7160
16.2200 10.7814 0.7171
16.2400 10.7948 0.7160
16.2600 10.8081 0.7196
16.2800 10.8214 0.7172
16.3000 10.8347 0.7194
16.3200 10.8480 0.7200
16.3400 10.8614 0.7200
16.3600 10.8747 0.7211
16.3800 10.8880 0.7210
16.4000 10.9014 0.7236
16.4200 10.9148 0.7211
16.4400 10.9282 0.7254
16.4600 10.9415 0.7218
16.4800 10.9548 0.7268
16.5000 10.9682 0.7232
16.5200 10.9815 0.7272
16.5400 10.9948 0.7247
16.5600 11.0081 0.7285
16.5800 11.0214 0.7262
16.6000 11.0347 0.7284
16.6200 11.0481 0.7277
16.6400 11.0614 0.7283
16.6600 11.0747 0.7291
16.6800 11.0880 0.7294
16.7000 11.1014 0.7313
16.7200 11.1148 0.7292
16.7400 11.1281 0.7339
16.7600 11.1414 0.7304
16.7800 11.1548 0.7338
16.8000 11.1681 0.7318
16.8200 11.1815 0.7353
16.8400 11.1948 0.7327
16.8600 11.2081 0.7365
16.8800 11.2215 0.7345
16.9000 11.2348 0.7360
16.9200 11.2481 0.7373
16.9400 11.2614 0.7379
16.9600 11.2748 0.7381
16.9800 11.2881 0.7385
17.0000 11.3014 0.7394
17.0200 11.3147 0.7376
17.0400 11.3280 0.7418
17.0600 11.3414 0.7394
17.0800 11.3547 0.7414
17.1000 11.3681 0.7410
17.1200 11.3814 0.7432
17.1400 11.3948 0.7416
17.1600 11.4082 0.7440
17.1800 11.4215 0.7436
17.2000 11.4348 0.7452
17.2200 11.4481 0.7444
17.2400 11.4615 0.7468
17.2600 11.4748 0.7445
17.2800 11.4881 0.7483
17.3000 11.5014 0.7467
17.3200 11.5148 0.7479
17.3400 11.5281 0.7486
17.3600 11.5414 0.7477
17.3800 11.5547 0.7495
17.4000 11.5681 0.7483
17.4200 11.5814 0.7502
17.4400 11.5947 0.7483
17.4600 11.6080 0.7523
17.4800 11.6214 0.7494
17.5000 11.6348 0.7535
17.5200 11.6482 0.7506
17.5400 11.6614 0.7555
17.5600 11.6747 0.7513
17.5800 11.6881 0.7568
17.6000 11.7014 0.7535
17.6200 11.7148 0.7562
17.6400 11.7281 0.7559
17.6600 11.7414 0.7572
17.6800 11.7547 0.7575
17.7000 11.7681 0.7567
17.7200 11.7814 0.7600
17.7400 11.7947 0.7569
17.7600 11.8080 0.7616
17.7800 11.8214 0.7588
17.8000 11.8347 0.7615
17.8200 11.8481 0.7596
17.8400 11.8614 0.7629
17.8600 11.8748 0.7603
17.8800 11.8881 0.7642
17.9000 11.9014 0.7618
17.9200 11.9148 0.7648
17.9400 11.9281 0.7642
17.9600 11.9415 0.7650
17.9800 11.9548 0.7646
18.0000 11.9681 0.7657
18.0200 11.9814 0.7667
18.0400 11.9947 0.7661
18.0600 12.0081 0.7680
18.0800 12.0214 0.7678
18.1000 12.0347 0.7681
18.1200 12.0480 0.7683
18.1400 12.0614 0.7700
18.1600 12.0747 0.7681
18.1800 12.0880 0.7713
18.2000 12.1014 0.7701
18.2200 12.1148 0.7718
18.2400 12.1282 0.7714
18.2600 12.1415 0.7736
18.2800 12.1549 0.7719
18.3000 12.1682 0.7745
18.3200 12.1816 0.7745
18.3400 12.1949 0.7740
18.3600 12.2081 0.7762
18.3800 12.2214 0.7759
18.4000 12.2347 0.7774
18.4200 12.2481 0.7764
18.4400 12.2614 0.7797
18.4600 12.2747 0.7762
18.4800 12.2880 0.7815
18.5000 12.3014 0.7774
18.5200 12.3148 0.7817
18.5400 12.3281 0.7781
18.5600 12.3414 0.7835
18.5800 12.3548 0.7784
18.6000 12.3682 0.7839
18.6200 12.3815 0.7815
18.6400 12.3948 0.7833
18.6600 12.4081 0.7836
18.6800 12.4215 0.7844
18.7000 12.4348 0.7848
18.7200 12.4481 0.7850
18.7400 12.4614 0.7875
18.7600 12.4747 0.7843
18.7800 12.4881 0.7881
18.8000 12.5014 0.7863
18.8200 12.5147 0.7882
18.8400 12.5280 0.7870
18.8600 12.5414 0.7909
18.8800 12.5547 0.7864
18.9000 12.5681 0.7906
18.9200 12.5814 0.7886
18.9400 12.5948 0.7909
18.9600 12.6081 0.7905
18.9800 12.6215 0.7920
19.0000 12.6348 0.7915
19.0200 12.6481 0.7930
19.0400 12.6615 0.7942
19.0600 12.6748 0.7931
19.0800 12.6881 0.7953
19.1000 12.7014 0.7946
19.1200 12.7147 0.7961
19.1400 12.7281 0.7945
19.1600 12.7414 0.7991
19.1800 12.7547 0.7952
19.2000 12.7680 0.8001
19.2200 12.7814 0.7959
19.2400 12.7947 0.7998
19.2600 12.8081 0.7972
19.2800 12.8214 0.8015
19.3000 12.8348 0.7984
19.3200 12.8482 0.8009
19.3400 12.8615 0.8006
19.3600 12.8748 0.8009
19.3800 12.8881 0.8029
19.4000 12.9015 0.8022
19.4200 12.9148 0.8035
19.4400 12.9281 0.8021
19.4600 12.9414 0.8063
19.4800 12.9547 0.8026
19.5000 12.9681 0.8086
19.5200 12.9814 0.8043
19.5400 12.9947 0.8086
19.5600 13.0080 0.8045
19.5800 13.0214 0.8100
19.6000 13.0348 0.8068
19.6200 13.0481 0.8092
19.6400 13.0614 0.8090
19.6600 13.0748 0.8093
19.6800 13.0881 0.8097
19.7000 13.1015 0.8101
19.7200 13.1148 0.8110
19.7400 13.1281 0.8109
19.7600 13.1415 0.8131
19.7800 13.1549 0.8114
19.8000 13.1682 0.8145
19.8200 13.1815 0.8127
19.8400 13.1948 0.8161
19.8600 13.2081 0.8140
19.8800 13.2214 0.8173
19.9000 13.2347 0.8157
19.9200 13.2480 0.8168
19.9400 13.2614 0.8172
19.9600 13.2747 0.8182
19.9800 13.2880 0.8176
20.0000 13.3013 0.8192
20.0200 13.3147 0.8182
20.0400 13.3281 0.8192
20.0600 13.3415 0.8207
20.0800 13.3548 0.8199
20.1000 13.3681 0.8217
20.1200 13.3815 0.8211
20.1400 13.3949 0.8226
20.1600 13.4082 0.8210
20.1800 13.4214 0.8249
20.2000 13.4348 0.8217
20.2200 13.4481 0.8255
20.2400 13.4614 0.8231
20.2600 13.4747 0.8272
20.2800 13.4880 0.8237
20.3000 13.5013 0.8278
20.3200 13.5147 0.8245
20.3400 13.5280 0.8276
20.3600 13.5414 0.8270
20.3800 13.5547 0.8286
20.4000 13.5681 0.8284
20.4200 13.5815 0.8286
20.4400 13.5948 0.8314
20.4600 13.6081 0.8280
20.4800 13.6215 0.8337
20.5000 13.6348 0.8286
20.5200 13.6481 0.8342
20.5400 13.6614 0.8307
20.5600 13.6747 0.8352
20.5800 13.6881 0.8320
20.6000 13.7014 0.8360
20.6200 13.7147 0.8335
20.6400 13.7280 0.8354
20.6600 13.7414 0.8357
20.6800 13.7548 0.8352
20.7000 13.7681 0.8367
20.7200 13.7814 0.8364
20.7400 13.7948 0.8389
20.7600 13.8082 0.8362
20.7800 13.8215 0.8405
20.8000 13.8348 0.8379
20.8200 13.8481 0.8415
20.8400 13.8614 0.8394
20.8600 13.8748 0.8419
20.8800 13.8881 0.8405
20.9000 13.9014 0.8439
20.9200 13.9148 0.8418
20.9400 13.9281 0.8438
20.9600 13.9415 0.8430
20.9800 13.9548 0.8454
21.0000 13.9681 0.8435
21.0200 13.9814 0.8477
21.0400 13.9947 0.8453
21.0600 14.0081 0.8465
21.0800 14.0214 0.8472
21.1000 14.0347 0.8476
21.1200 14.0481 0.8475
21.1400 14.0615 0.8477
21.1600 14.0748 0.8494
21.1800 14.0881 0.8466
21.2000 14.1015 0.8524
21.2200 14.1148 0.8476
21.2400 14.1282 0.8530
21.2600 14.1414 0.8498
21.2800 14.1547 0.8544
21.3000 14.1681 0.8507
21.3200 14.1814 0.8548
21.3400 14.1947 0.8535
21.3600 14.2080 0.8547
21.3800 14.2214 0.8555
21.4000 14.2347 0.8555
21.4200 14.2481 0.8555
21.4400 14.2614 0.8548
21.4600 14.2747 0.8581
21.4800 14.2881 0.8541
21.5000 14.3015 0.8596
21.5200 14.3148 0.8563
21.5400 14.3281 0.8592
21.5600 14.3415 0.8588
21.5800 14.3548 0.8605
21.6000 14.3681 0.8597
21.6200 14.3814 0.8619
21.6400 14.3948 0.8618
21.6600 14.4081 0.8625
21.6800 14.4214 0.8624
21.7000 14.4347 0.8640
21.7200 14.4480 0.8627
21.7400 14.4614 0.8648
21.7600 14.4747 0.8645
21.7800 14.4881 0.8644
21.8000 14.5014 0.8661
21.8200 14.5147 0.8662
21.8400 14.5281 0.8665
21.8600 14.5415 0.8674
21.8800 14.5548 0.8689
21.9000 14.5681 0.8673
21.9200 14.5815 0.8703
21.9400 14.5949 0.8677
21.9600 14.6082 0.8705
21.9800 14.6215 0.8678
22.0000 14.6348 0.8726
22.0200 14.6481 0.8679
22.0400 14.6615 0.8725
22.0600 14.6748 0.8705
22.0800 14.6880 0.8727
22.1000 14.7014 0.8732
22.1200 14.7147 0.8733
22.1400 14.7281 0.8740
22.1600 14.7414 0.8735
22.1800 14.7547 0.8768
22.2000 14.7681 0.8745
22.2200 14.7815 0.8777
22.2400 14.7948 0.8752
22.2600 14.8081 0.8785
22.2800 14.8214 0.8765
22.3000 14.8348 0.8803
22.3200 14.8482 0.8770
22.3400 14.8615 0.8811
22.3600 14.8748 0.8793
22.3800 14.8881 0.8803
22.4000 14.9014 0.8811
22.4200 14.9147 0.8822
22.4400 14.9280 0.8821
22.4600 14.9414 0.8820
22.4800 14.9547 0.8832
22.5000 14.9680 0.8825
22.5200 14.9814 0.8847
22.5400 14.9948 0.8841
22.5600 15.0081 0.8851
22.5800 15.0215 0.8856
22.6000 15.0348 0.8876
22.6200 15.0481 0.8850
22.6400 15.0615 0.8893
22.6600 15.0748 0.8863
22.6800 15.0881 0.8890
22.7000 15.1014 0.8873
22.7200 15.1147 0.8910
22.7400 15.1281 0.8885
22.7600 15.1414 0.8915
22.7800 15.1547 0.8905
22.8000 15.1680 0.8919
22.8200 15.1814 0.8922
22.8400 15.1947 0.8930
22.8600 15.2081 0.8928
22.8800 15.2214 0.8935
22.9000 15.2347 0.8964
22.9200 15.2481 0.8920
22.9400 15.2614 0.8972
22.9600 15.2748 0.8932
22.9800 15.2881 0.8976
23.0000 15.3014 0.8947
23.0200 15.3148 0.8989
23.0400 15.3281 0.8964
23.0600 15.3414 0.8995
23.0800 15.3548 0.8989
23.1000 15.3681 0.8997
23.1200 15.3815 0.9006
23.1400 15.3948 0.9000
23.1600 15.4080 0.9020
23.1800 15.4213 0.9000
23.2000 15.4346 0.9043
23.2200 15.4480 0.9003
23.2400 15.4613 0.9050
23.2600 15.4747 0.9026
23.2800 15.4881 0.9054
23.3000 15.5015 0.9040
23.3200 15.5148 0.9073
23.3400 15.5281 0.9043
23.3600 15.5415 0.9067
23.3800 15.5549 0.9061
23.4000 15.5682 0.9058
23.4200 15.5815 0.9076
23.4400 15.5948 0.9079
23.4600 15.6081 0.9075
23.4800 15.6214 0.9083
23.5000 15.6347 0.9097
23.5200 15.6480 0.9090
23.5400 15.6613 0.9105
23.5600 15.6747 0.9107
23.5800 15.6881 0.9118
23.6000 15.7014 0.9106
23.6200 15.7147 0.9147
23.6400 15.7281 0.9111
23.6600 15.7415 0.9155
23.6800 15.7548 0.9131
23.7000 15.7682 0.9165
23.7200 15.7815 0.9139
23.7400 15.7948 0.9187
23.7600 15.8082 0.9148
23.7800 15.8215 0.9186
23.8000 15.8348 0.9181
23.8200 15.8481 0.9183
23.8400 15.8614 0.9184
23.8600 15.8747 0.9188
23.8800 15.8880 0.9202
23.9000 15.9014 0.9185
23.9200 15.9147 0.9222
23.9400 15.9281 0.9179
23.9600 15.9414 0.9235
23.9800 15.9547 0.9203
24.0000 15.9681 0.9241
24.0200 15.9815 0.9214
24.0400 15.9948 0.9253
24.0600 16.0081 0.9238
24.0800 16.0215 0.9250
24.1000 16.0348 0.9262
24.1200 16.0482 0.9261
24.1400 16.0615 0.9257
24.1600 16.0748 0.9276
24.1800 16.0881 0.9271
24.2000 16.1014 0.9277
24.2200 16.1147 0.9295
24.2400 16.1280 0.9282
24.2600 16.1413 0.9317
24.2800 16.1547 0.9297
24.3000 16.1681 0.9317
24.3200 16.1814 0.9311
24.3400 16.1947 0.9334
24.3600 16.2081 0.9325
24.3800 16.2215 0.9333
24.4000 16.2348 0.9335
24.4200 16.2481 0.9346
24.4400 16.2615 0.9337
24.4600 16.2748 0.9357
24.4800 16.2882 0.9355
24.5000 16.3015 0.9362
24.5200 16.3148 0.9380
24.5400 16.3281 0.9370
24.5600 16.3414 0.9390
24.5800 16.3548 0.9381
24.6000 16.3681 0.9407
24.6200 16.3814 0.9380
24.6400 16.3947 0.9429
24.6600 16.4081 0.9387
24.6800 16.4214 0.9425
24.7000 16.4347 0.9401
24.7200 16.4481 0.9443
24.7400 16.4615 0.9405
24.7600 16.4748 0.9452
24.7800 16.4881 0.9426
24.8000 16.5014 0.9452
24.8200 16.5147 0.9458
24.8400 16.5281 0.9447
24.8600 16.5415 0.9469
24.8800 16.5548 0.9458
24.9000 16.5681 0.9494
24.9200 16.5815 0.9463
24.9400 16.5948 0.9507
24.9600 16.6081 0.9474
24.9800 16.6214 0.9508
25.0000 16.6347 0.9500
25.0200 16.6481 0.9513
25.0400 16.6614 0.9499
25.0600 16.6747 0.9521
25.0800 16.6881 0.9498
25.1000 16.7015 0.9515
25.1200 16.7148 0.9516
25.1400 16.7281 0.9526
25.1600 16.7414 0.9526
25.1800 16.7548 0.9543
25.2000 16.7681 0.9543
25.2200 16.7815 0.9549
25.2400 16.7948 0.9561
25.2600 16.8081 0.9568
25.2800 16.8214 0.9572
25.3000 16.8347 0.9579
25.3200 16.8480 0.9580
25.3400 16.8613 0.9575
25.3600 16.8747 0.9600
25.3800 16.8880 0.9588
25.4000 16.9014 0.9607
25.4200 16.9147 0.9604
25.4400 16.9281 0.9622
25.4600 16.9415 0.9607
25.4800 16.9548 0.9636
25.5000 16.9682 0.9630
25.5200 16.9815 0.9632
25.5400 16.9948 0.9647
25.5600 17.0082 0.9644
25.5800 17.0215 0.9659
25.6000 17.0347 0.9656
25.6200 17.0480 0.9683
25.6400 17.0614 0.9648
25.6600 17.0747 0.9692
25.6800 17.0880 0.9662
25.7000 17.1014 0.9700
25.7200 17.1147 0.9683
25.7400 17.1281 0.9713
25.7600 17.1414 0.9689
25.7800 17.1548 0.9719
25.8000 17.1681 0.9716
25.8200 17.1815 0.9715
25.8400 17.1948 0.9731
25.8600 17.2081 0.9723
25.8800 17.2215 0.9744
25.9000 17.2348 0.9731
25.9200 17.2482 0.9767
25.9400 17.2615 0.9733
25.9600 17.2747 0.9782
25.9800 17.2880 0.9762
26.0000 17.3014 0.9777
26.0200 17.3148 0.9772
26.0400 17.3281 0.9798
26.0600 17.3414 0.9781
26.0800 17.3547 0.9810
26.1000 17.3681 0.9797
26.1200 17.3814 0.9812
26.1400 17.3947 0.9815
26.1600 17.4081 0.9817
26.1800 17.4215 0.9816
26.2000 17.4348 0.9817
26.2200 17.4481 0.9819
26.2400 17.4614 0.9807
26.2600 17.4748 0.9836
26.2800 17.4882 0.9829
26.3000 17.5015 0.9841
26.3200 17.5148 0.9845
26.3400 17.5281 0.9869
26.3600 17.5414 0.9853
26.3800 17.5548 0.9879
26.4000 17.5681 0.9865
26.4200 17.5814 0.9888
26.4400 17.5947 0.9871
26.4600 17.6081 0.9889
26.4800 17.6214 0.9879
26.5000 17.6347 0.9897
26.5200 17.6481 0.9907
26.5400 17.6615 0.9894
26.5600 17.6748 0.9929
26.5800 17.6881 0.9917
26.6000 17.7014 0.9934
26.6200 17.7148 0.9927
26.6400 17.7281 0.9954
26.6600 17.7414 0.9933
26.6800 17.7547 0.9975
26.7000 17.7681 0.9945
26.7200 17.7814 0.9987
26.7400 17.7948 0.9951
26.7600 17.8081 1.0003
26.7800 17.8214 0.9965
26.8000 17.8347 1.0008
26.8200 17.8481 0.9992
26.8400 17.8614 1.0000
26.8600 17.8747 1.0013
26.8800 17.8881 1.0015
26.9000 17.9014 1.0028
26.9200 17.9148 1.0018
26.9400 17.9281 1.0042
26.9600 17.9414 1.0016
26.9800 17.9548 1.0053
27.0000 17.9682 1.0021
27.0200 17.9815 1.0053
27.0400 17.9948 1.0035
27.0600 18.0081 1.0073
27.0800 18.0214 1.0053
27.1000 18.0348 1.0076
27.1200 18.0481 1.0078
27.1400 18.0614 1.0072
27.1600 18.0747 1.0101
27.1800 18.0880 1.0089
27.2000 18.1013 1.0110
27.2200 18.1146 1.0097
27.2400 18.1280 1.0112
27.2600 18.1415 1.0104
27.2800 18.1548 1.0119
27.3000 18.1682 1.0124
27.3200 18.1815 1.0138
27.3400 18.1948 1.0132
27.3600 18.2082 1.0157
27.3800 18.2215 1.0135
27.4000 18.2348 1.0171
27.4200 18.2481 1.0163
27.4400 18.2614 1.0179
27.4600 18.2748 1.0170
27.4800 18.2881 1.0192
27.5000 18.3014 1.0187
27.5200 18.3147 1.0201
27.5400 18.3280 1.0207
27.5600 18.3414 1.0194
27.5800 18.3547 1.0228
27.6000 18.3681 1.0205
27.6200 18.3814 1.0235
27.6400 18.3948 1.0196
27.6600 18.4081 1.0232
27.6800 18.4215 1.0202
27.7000 18.4348 1.0255
27.7200 18.4482 1.0217
27.7400 18.4615 1.0251
27.7600 18.4748 1.0230
27.7800 18.4881 1.0282
27.8000 18.5014 1.0257
27.8200 18.5147 1.0275
27.8400 18.5281 1.0280
27.8600 18.5414 1.0279
27.8800 18.5547 1.0303
27.9000 18.5681 1.0302
27.9200 18.5814 1.0305
27.9400 18.5948 1.0306
27.9600 18.6081 1.0330
27.9800 18.6215 1.0316
28.0000 18.6348 1.0340
28.0200 18.6481 1.0328
28.0400 18.6614 1.0356
28.0600 18.6747 1.0337
28.0800 18.6881 1.0373
28.1000 18.7015 1.0350
28.1200 18.7148 1.0377
28.1400 18.7281 1.0373
28.1600 18.7414 1.0385
28.1800 18.7548 1.0387
28.2000 18.7681 1.0398
28.2200 18.7814 1.0394
28.2400 18.7947 1.0403
28.2600 18.8081 1.0418
28.2800 18.8214 1.0411
28.3000 18.8347 1.0420
28.3200 18.8480 1.0413
28.3400 18.8614 1.0437
28.3600 18.8748 1.0409
28.3800 18.8881 1.0450
28.4000 18.9015 1.0416
28.4200 18.9148 1.0461
28.4400 18.9282 1.0444
28.4600 18.9415 1.0469
28.4800 18.9548 1.0451
28.5000 18.9681 1.0491
28.5200 18.9814 1.0472
28.5400 18.9948 1.0492
28.5600 19.0081 1.0493
28.5800 19.0214 1.0507
28.6000 19.0347 1.0508
28.6200 19.0480 1.0500
28.6400 19.0614 1.0518
28.6600 19.0747 1.0498
28.6800 19.0880 1.0547
28.7000 19.1014 1.0498
28.7200 19.1148 1.0557
28.7400 19.1281 1.0531
28.7600 19.1415 1.0577
28.7800 19.1548 1.0533
28.8000 19.1682 1.0591
28.8200 19.1815 1.0554
28.8400 19.1948 1.0593
28.8600 19.2081 1.0573
28.8800 19.2214 1.0601
28.9000 19.2348 1.0579
28.9200 19.2481 1.0614
28.9400 19.2614 1.0601
28.9600 19.2747 1.0612
28.9800 19.2881 1.0621
29.0000 19.3014 1.0607
29.0200 19.3147 1.0634
29.0400 19.3281 1.0621
29.0600 19.3414 1.0653
29.0800 19.3548 1.0626
29.1000 19.3681 1.0669
29.1200 19.3814 1.0651
29.1400 19.3948 1.0685
29.1600 19.4081 1.0658
29.1800 19.4215 1.0692
29.2000 19.4348 1.0671
29.2200 19.4481 1.0720
29.2400 19.4614 1.0686
29.2600 19.4748 1.0707
29.2800 19.4881 1.0712
29.3000 19.5014 1.0719
29.3200 19.5147 1.0727
29.3400 19.5280 1.0728
29.3600 19.5414 1.0737
29.3800 19.5547 1.0706
29.4000 19.5681 1.0755
29.4200 19.5814 1.0734
29.4400 19.5948 1.0759
29.4600 19.6082 1.0729
29.4800 19.6215 1.0779
29.5000 19.6348 1.0740
29.5200 19.6481 1.0800
29.5400 19.6615 1.0760
29.5600 19.6748 1.0800
29.5800 19.6881 1.0777
29.6000 19.7014 1.0813
29.6200 19.7147 1.0808
29.6400 19.7280 1.0817
29.6600 19.7414 1.0828
29.6800 19.7547 1.0822
29.7000 19.7680 1.0847
29.7200 19.7814 1.0836
29.7400 19.7947 1.0863
29.7600 19.8081 1.0843
29.7800 19.8214 1.0881
29.8000 19.8348 1.0850
29.8200 19.8482 1.0899
29.8400 19.8615 1.0856
29.8600 19.8748 1.0904
29.8800 19.8882 1.0884
29.9000 19.9015 1.0913
29.9200 19.9148 1.0910
29.9400 19.9281 1.0926
29.9600 19.9414 1.0917
29.9800 19.9547 1.0931
30.0000 19.9681 1.0943
30.0200 19.9814 1.0935
30.0400 19.9947 1.0960
30.0600 20.0080 1.0945
30.0800 20.0214 1.0974
30.1000 20.0347 1.0953
30.1200 20.0481 1.1000
30.1400 20.0614 1.0949
30.1600 20.0748 1.0987
30.1800 20.0881 1.0954
30.2000 20.1014 1.1002
30.2200 20.1147 1.0973
30.2400 20.1281 1.1027
30.2600 20.1415 1.0984
30.2800 20.1548 1.1029
30.3000 20.1681 1.1016
30.3200 20.1814 1.1042
30.3400 20.1948 1.1030
30.3600 20.2082 1.1043
30.3800 20.2215 1.1045
30.4000 20.2347 1.1041
30.4200 20.2480 1.1066
30.4400 20.2613 1.1048
30.4600 20.2747 1.1090
30.4800 20.2880 1.1057
30.5000 20.3014 1.1105
30.5200 20.3148 1.1081
30.5400 20.3282 1.1109
30.5600 20.3415 1.1095
30.5800 20.3548 1.1134
30.6000 20.3682 1.1108
30.6200 20.3815 1.1138
30.6400 20.3948 1.1125
30.6600 20.4081 1.1130
30.6800 20.4214 1.1157
30.7000 20.4347 1.1148
30.7200 20.4481 1.1168
30.7400 20.4614 1.1162
30.7600 20.4747 1.1179
30.7800 20.4880 1.1163
30.8000 20.5014 1.1213
30.8200 20.5147 1.1175
30.8400 20.5281 1.1220
30.8600 20.5414 1.1198
30.8800 20.5548 1.1224
30.9000 20.5682 1.1212
30.9200 20.5815 1.1249
30.9400 20.5948 1.1220
30.9600 20.6082 1.1249
30.9800 20.6215 1.1246
31.0000 20.6348 1.1249
31.0200 20.6481 1.1250
31.0400 20.6614 1.1254
31.0600 20.6747 1.1247
31.0800 20.6881 1.1263
31.1000 20.7014 1.1270
31.1200 20.7147 1.1276
31.1400 20.7280 1.1300
31.1600 20.7414 1.1277
31.1800 20.7547 1.1315
31.2000 20.7681 1.1290
31.2200 20.7814 1.1323
31.2400 20.7948 1.1311
31.2600 20.8082 1.1331
31.2800 20.8215 1.1328
31.3000 20.8348 1.1348
31.3200 20.8481 1.1341
31.3400 20.8615 1.1371
31.3600 20.8748 1.1358
31.3800 20.8881 1.1375
31.4000 20.9014 1.1395
31.4200 20.9147 1.1361
31.4400 20.9281 1.1414
31.4600 20.9414 1.1382
31.4800 20.9547 1.1433
31.5000 20.9680 1.1403
31.5200 20.9814 1.1444
31.5400 20.9947 1.1407
31.5600 21.0081 1.1467
31.5800 21.0214 1.1422
31.6000 21.0348 1.1475
31.6200 21.0482 1.1440
31.6400 21.0615 1.1476
31.6600 21.0748 1.1471
31.6800 21.0881 1.1476
31.7000 21.1015 1.1483
31.7200 21.1148 1.1478
31.7400 21.1281 1.1483
31.7600 21.1414 1.1493
31.7800 21.1548 1.1495
31.8000 21.1681 1.1495
31.8200 21.1814 1.1516
31.8400 21.1947 1.1497
31.8600 21.2081 1.1538
31.8800 21.2214 1.1522
31.9000 21.2348 1.1543
31.9200 21.2481 1.1539
31.9400 21.2614 1.1558
31.9600 21.2748 1.1566
31.9800 21.2881 1.1575
32.0000 21.3014 1.1574
32.0200 21.3147 1.1595
32.0400 21.3281 1.1580
32.0600 21.3415 1.1610
32.0800 21.3548 1.1602
32.1000 21.3681 1.1620
32.1200 21.3814 1.1633
32.1400 21.3947 1.1619
32.1600 21.4081 1.1653
32.1800 21.4214 1.1632
32.2000 21.4347 1.1676
32.2200 21.4480 1.1640
32.2400 21.4614 1.1685
32.2600 21.4747 1.1646
32.2800 21.4881 1.1682
32.3000 21.5014 1.1675
32.3200 21.5147 1.1699
32.3400 21.5281 1.1686
32.3600 21.5414 1.1701
32.3800 21.5547 1.1708
32.4000 21.5681 1.1713
32.4200 21.5815 1.1735
32.4400 21.5948 1.1726
32.4600 21.6081 1.1744
32.4800 21.6214 1.1744
32.5000 21.6347 1.1764
32.5200 21.6481 1.1759
32.5400 21.6614 1.1781
32.5600 21.6747 1.1770
32.5800 21.6880 1.1794
32.6000 21.7014 1.1783
32.6200 21.7147 1.1821
32.6400 21.7280 1.1796
32.6600 21.7414 1.1832
32.6800 21.7548 1.1818
32.7000 21.7682 1.1835
32.7200 21.7815 1.1850
32.7400 21.7948 1.1836
32.7600 21.8082 1.1849
32.7800 21.8215 1.1842
32.8000 21.8349 1.1878
32.8200 21.8481 1.1862
32.8400 21.8614 1.1891
32.8600 21.8747 1.1867
32.8800 21.8881 1.1890
32.9000 21.9014 1.1874
32.9200 21.9147 1.1911
32.9400 21.9280 1.1884
32.9600 21.9414 1.1922
32.9800 21.9548 1.1898
33.0000 21.9681 1.1922
33.0200 21.9815 1.1924
33.0400 21.9948 1.1926
33.0600 22.0082 1.1941
33.0800 22.0215 1.1942
33.1000 22.0348 1.1977
33.1200 22.0481 1.1951
33.1400 22.0615 1.1994
33.1600 22.0748 1.1968
33.1800 22.0881 1.2010
33.2000 22.1014 1.1987
33.2200 22.1147 1.2025
33.2400 22.1281 1.2007
33.2600 22.1414 1.2034
33.2800 22.1547 1.2034
33.3000 22.1680 1.2040
33.3200 22.1814 1.2066
33.3400 22.1947 1.2044
33.3600 22.2081 1.2087
33.3800 22.2214 1.2055
33.4000 22.2348 1.2114
33.4200 22.2481 1.2062
33.4400 22.2615 1.2118
33.4600 22.2748 1.2092
33.4800 22.2881 1.2124
33.5000 22.3015 1.2114
33.5200 22.3148 1.2125
33.5400 22.3281 1.2127
33.5600 22.3414 1.2133
33.5800 22.3547 1.2166
33.6000 22.3681 1.2138
33.6200 22.3814 1.2180
33.6400 22.3947 1.2158
33.6600 22.4080 1.2192
33.6800 22.4214 1.2177
33.7000 22.4347 1.2205
33.7200 22.4481 1.2200
33.7400 22.4614 1.2207
33.7600 22.4748 1.2219
33.7800 22.4881 1.2213
33.8000 22.5015 1.2244
33.8200 22.5148 1.2227
33.8400 22.5281 1.2268
33.8600 22.5414 1.2237
33.8800 22.5548 1.2284
33.9000 22.5681 1.2251
33.9200 22.5814 1.2297
33.9400 22.5947 1.2279
33.9600 22.6081 1.2298
33.9800 22.6214 1.2285
34.0000 22.6347 1.2299
34.0200 22.6480 1.2299
34.0400 22.6614 1.2308
34.0600 22.6747 1.2320
34.0800 22.6881 1.2319
34.1000 22.7014 1.2339
34.1200 22.7148 1.2333
34.1400 22.7281 1.2353
34.1600 22.7415 1.2345
34.1800 22.7548 1.2389
34.2000 22.7681 1.2358
34.2200 22.7815 1.2403
34.2400 22.7948 1.2380
34.2600 22.8082 1.2412
34.2800 22.8215 1.2408
34.3000 22.8348 1.2428
34.3200 22.8481 1.2425
34.3400 22.8614 1.2435
34.3600 22.8748 1.2449
34.3800 22.8881 1.2447
34.4000 22.9014 1.2474
34.4200 22.9147 1.2454
34.4400 22.9280 1.2501
34.4600 22.9413 1.2457
34.4800 22.9547 1.2532
34.5000 22.9681 1.2459
34.5200 22.9815 1.2529
34.5400 22.9948 1.2482
34.5600 23.0081 1.2534
34.5800 23.0215 1.2513
34.6000 23.0348 1.2545
34.6200 23.0482 1.2537
34.6400 23.0614 1.2548
34.6600 23.0747 1.2570
34.6800 23.0881 1.2542
34.7000 23.1014 1.2601
34.7200 23.1147 1.2549
34.7400 23.1280 1.2632
34.7600 23.1414 1.2549
34.7800 23.1547 1.2653
34.8000 23.1680 1.2573
34.8200 23.1814 1.2671
34.8400 23.1947 1.2611
34.8600 23.2081 1.2659
34.8800 23.2215 1.2632
34.9000 23.2348 1.2657
34.9200 23.2481 1.2663
34.9400 23.2615 1.2650
34.9600 23.2748 1.2705
34.9800 23.2881 1.2650
35.0000 23.3014 1.2735
35.0200 23.3147 1.2670
35.0400 23.3281 1.2754
35.0600 23.3414 1.2689
35.0800 23.3547 1.2770
35.1000 23.3680 1.2703
35.1200 23.3814 1.2783
35.1400 23.3948 1.2740
35.1600 23.4081 1.2785
35.1800 23.4214 1.2772
35.2000 23.4348 1.2780
35.2200 23.4481 1.2796
35.2400 23.4615 1.2776
35.2600 23.4748 1.2827
35.2800 23.4881 1.2790
35.3000 23.5014 1.2848
35.3200 23.5148 1.2802
35.3400 23.5281 1.2863
35.3600 23.5415 1.2822
35.3800 23.5548 1.2881
35.4000 23.5681 1.2833
35.4200 23.5815 1.2891
35.4400 23.5948 1.2866
35.4600 23.6081 1.2904
35.4800 23.6214 1.2885
35.5000 23.6347 1.2910
35.5200 23.6481 1.2913
35.5400 23.6614 1.2913
35.5600 23.6747 1.2944
35.5800 23.6881 1.2908
35.6000 23.7015 1.2963
35.6200 23.7148 1.2918
35.6400 23.7281 1.2987
35.6600 23.7415 1.2932
35.6800 23.7548 1.3011
35.7000 23.7682 1.2957
35.7200 23.7815 1.3024
35.7400 23.7948 1.2987
35.7600 23.8081 1.3033
35.7800 23.8214 1.3010
35.8000 23.8348 1.3037
35.8200 23.8481 1.3039
35.8400 23.8614 1.3022
35.8600 23.8747 1.3071
35.8800 23.8880 1.3024
35.9000 23.9014 1.3103
35.9200 23.9147 1.3049
35.9400 23.9281 1.3121
35.9600 23.9414 1.3064
35.9800 23.9548 1.3131
36.0000 23.9681 1.3103
36.0200 23.9814 1.3139
36.0400 23.9948 1.3139
36.0600 24.0081 1.3148
36.0800 24.0215 1.3162
36.1000 24.0348 1.3156
36.1200 24.0481 1.3196
36.1400 24.0615 1.3165
36.1600 24.0748 1.3212
36.1800 24.0881 1.3174
36.2000 24.1014 1.3223
36.2200 24.1147 1.3191
36.2400 24.1281 1.3240
36.2600 24.1414 1.3213
36.2800 24.1547 1.3248
36.3000 24.1681 1.3246
36.3200 24.1814 1.3249
36.3400 24.1948 1.3270
36.3600 24.2081 1.3261
36.3800 24.2215 1.3283
36.4000 24.2348 1.3285
36.4200 24.2482 1.3305
36.4400 24.2615 1.3304
36.4600 24.2748 1.3330
36.4800 24.2881 1.3318
36.5000 24.3014 1.3347
36.5200 24.3148 1.3347
36.5400 24.3280 1.3353
36.5600 24.3414 1.3357
36.5800 24.3547 1.3365
36.6000 24.3681 1.3384
36.6200 24.3814 1.3381
36.6400 24.3947 1.3417
36.6600 24.4081 1.3407
36.6800 24.4215 1.3421
36.7000 24.4348 1.3422
36.7200 24.4481 1.3449
36.7400 24.4615 1.3435
36.7600 24.4748 1.3454
36.7800 24.4882 1.3454
36.8000 24.5015 1.3468
36.8200 24.5147 1.3489
36.8400 24.5280 1.3486
36.8600 24.5414 1.3505
36.8800 24.5547 1.3501
36.9000 24.5680 1.3532
36.9200 24.5814 1.3516
36.9400 24.5947 1.3561
36.9600 24.6081 1.3526
36.9800 24.6214 1.3577
37.0000 24.6348 1.3552
37.0200 24.6481 1.3600
37.0400 24.6615 1.3570
37.0600 24.6748 1.3609
37.0800 24.6881 1.3604
37.1000 24.7015 1.3622
37.1200 24.7148 1.3635
37.1400 24.7281 1.3633
37.1600 24.7414 1.3666
37.1800 24.7547 1.3644
37.2000 24.7681 1.3706
37.2200 24.7814 1.3649
37.2400 24.7947 1.3725
37.2600 24.8080 1.3655
37.2800 24.8214 1.3730
37.3000 24.8347 1.3666
37.3200 24.8481 1.3734
37.3400 24.8614 1.3689
37.3600 24.8747 1.3740
37.3800 24.8881 1.3730
37.4000 24.9015 1.3739
37.4200 24.9148 1.3768
37.4400 24.9281 1.3746
37.4600 24.9414 1.3813
37.4800 24.9548 1.3758
37.5000 24.9682 1.3847
37.5200 24.9815 1.3766
37.5400 24.9948 1.3869
37.5600 25.0081 1.3796
37.5800 25.0215 1.3885
37.6000 25.0348 1.3824
37.6200 25.0481 1.3895
37.6400 25.0614 1.3854
37.6600 25.0747 1.3909
37.6800 25.0880 1.3904
37.7000 25.1014 1.3904
37.7200 25.1147 1.3928
37.7400 25.1281 1.3910
37.7600 25.1415 1.3959
37.7800 25.1548 1.3911
37.8000 25.1682 1.3994
37.8200 25.1815 1.3919
37.8400 25.1948 1.4006
37.8600 25.2082 1.3958
37.8800 25.2215 1.4024
37.9000 25.2348 1.3966
37.9200 25.2481 1.4039
37.9400 25.2614 1.3999
37.9600 25.2747 1.4051
37.9800 25.2880 1.4044
38.0000 25.3013 1.4055
38.0200 25.3147 1.4081
38.0400 25.3280 1.4065
38.0600 25.3414 1.4119
38.0800 25.3547 1.4065
38.1000 25.3681 1.4155
38.1200 25.3815 1.4065
38.1400 25.3948 1.4164
38.1600 25.4082 1.4095
38.1800 25.4215 1.4175
38.2000 25.4348 1.4125
38.2200 25.4482 1.4198
38.2400 25.4615 1.4156
38.2600 25.4747 1.4207
38.2800 25.4881 1.4204
38.3000 25.5014 1.4210
38.3200 25.5147 1.4231
38.3400 25.5280 1.4225
38.3600 25.5413 1.4273
38.3800 25.5547 1.4221
38.4000 25.5681 1.4290
38.4200 25.5814 1.4220
38.4400 25.5947 1.4296
38.4600 25.6081 1.4258
38.4800 25.6215 1.4316
38.5000 25.6348 1.4285
38.5200 25.6481 1.4336
38.5400 25.6615 1.4323
38.5600 25.6748 1.4348
38.5800 25.6882 1.4355
38.6000 25.7015 1.4348
38.6200 25.7148 1.4383
38.6400 25.7281 1.4363
38.6600 25.7414 1.4427
38.6800 25.7547 1.4369
38.7000 25.7680 1.4462
38.7200 25.7813 1.4391
38.7400 25.7947 1.4477
38.7600 25.8081 1.4433
38.7800 25.8214 1.4484
38.8000 25.8348 1.4464
38.8200 25.8481 1.4501
38.8400 25.8615 1.4496
38.8600 25.8748 1.4511
38.8800 25.8881 1.4535
38.9000 25.9015 1.4532
38.9200 25.9148 1.4562
38.9400 25.9282 1.4552
38.9600 25.9415 1.4592
38.9800 25.9548 1.4563
39.0000 25.9681 1.4613
39.0200 25.9814 1.4588
39.0400 25.9948 1.4624
39.0600 26.0081 1.4616
39.0800 26.0214 1.4635
39.1000 26.0347 1.4635
39.1200 26.0481 1.4653
39.1400 26.0614 1.4655
39.1600 26.0747 1.4661
39.1800 26.0881 1.4689
39.2000 26.1015 1.4683
39.2200 26.1148 1.4703
39.2400 26.1281 1.4726
39.2600 26.1414 1.4727
39.2800 26.1548 1.4740
39.3000 26.1681 1.4754
39.3200 26.1815 1.4759
39.3400 26.1948 1.4769
39.3600 26.2081 1.4797
39.3800 26.2214 1.4792
39.4000 26.2348 1.4815
39.4200 26.2481 1.4824
39.4400 26.2614 1.4850
39.4600 26.2747 1.4841
39.4800 26.2881 1.4882
39.5000 26.3014 1.4870
39.5200 26.3147 1.4896
39.5400 26.3281 1.4906
39.5600 26.3414 1.4916
39.5800 26.3548 1.4914
39.6000 26.3681 1.4938
39.6200 26.3814 1.4946
39.6400 26.3948 1.4954
39.6600 26.4081 1.4980
39.6800 26.4215 1.4977
39.7000 26.4348 1.5012
39.7200 26.4481 1.4990
39.7400 26.4614 1.5023
39.7600 26.4748 1.4991
39.7800 26.4881 1.5058
39.8000 26.5013 1.5021
39.8200 26.5147 1.5071
39.8400 26.5280 1.5065
39.8600 26.5414 1.5093
39.8800 26.5547 1.5100
39.9000 26.5681 1.5112
39.9200 26.5815 1.5142
39.9400 26.5948 1.5113
39.9600 26.6082 1.5194
39.9800 26.6215 1.5139
40.0000 26.6348 1.5213
40.0200 26.6482 1.5156
40.0400 26.6615 1.5228
40.0600 26.6747 1.5164
40.0800 26.6880 1.5247
40.1000 26.7014 1.5208
40.1200 26.7147 1.5250
40.1400 26.7280 1.5255
40.1600 26.7414 1.5268
40.1800 26.7547 1.5286
40.2000 26.7681 1.5281
40.2200 26.7814 1.5330
40.2400 26.7948 1.5289
40.2600 26.8081 1.5374
40.2800 26.8215 1.5311
40.3000 26.8348 1.5394
40.3200 26.8481 1.5340
40.3400 26.8614 1.5409
40.3600 26.8748 1.5367
40.3800 26.8881 1.5424
40.4000 26.9015 1.5400
40.4200 26.9147 1.5429
40.4400 26.9281 1.5436
40.4600 26.9414 1.5454
40.4800 26.9548 1.5469
40.5000 26.9681 1.5469
40.5200 26.9814 1.5524
40.5400 26.9947 1.5482
40.5600 27.0081 1.5561
40.5800 27.0214 1.5516
40.6000 27.0347 1.5580
40.6200 27.0481 1.5549
40.6400 27.0614 1.5605
40.6600 27.0748 1.5565
40.6800 27.0881 1.5627
40.7000 27.1014 1.5608
40.7200 27.1148 1.5647
40.7400 27.1282 1.5642
40.7600 27.1415 1.5674
40.7800 27.1548 1.5687
40.8000 27.1681 1.5689
40.8200 27.1814 1.5741
40.8400 27.1948 1.5688
40.8600 27.2081 1.5774
40.8800 27.2214 1.5707
40.9000 27.2347 1.5795
40.9200 27.2481 1.5735
40.9400 27.2614 1.5818
40.9600 27.2747 1.5757
40.9800 27.2881 1.5841
41.0000 27.3014 1.5800
41.0200 27.3148 1.5849
41.0400 27.3282 1.5846
41.0600 27.3415 1.5863
41.0800 27.3548 1.5879
41.1000 27.3681 1.5869
41.1200 27.3815 1.5934
41.1400 27.3948 1.5880
41.1600 27.4081 1.5987
41.1800 27.4214 1.5910
41.2000 27.4348 1.6010
41.2200 27.4481 1.5931
41.2400 27.4614 1.6032
41.2600 27.4747 1.5969
41.2800 27.4881 1.6051
41.3000 27.5014 1.6015
41.3200 27.5147 1.6061
41.3400 27.5281 1.6053
41.3600 27.5414 1.6080
41.3800 27.5548 1.6092
41.4000 27.5681 1.6089
41.4200 27.5814 1.6143
41.4400 27.5948 1.6106
41.4600 27.6081 1.6187
41.4800 27.6215 1.6142
41.5000 27.6348 1.6214
41.5200 27.6481 1.6183
41.5400 27.6614 1.6251
41.5600 27.6748 1.6212
41.5800 27.6881 1.6270
41.6000 27.7014 1.6252
41.6200 27.7147 1.6280
41.6400 27.7280 1.6288
41.6600 27.7413 1.6310
41.6800 27.7547 1.6327
41.7000 27.7680 1.6329
41.7200 27.7814 1.6360
41.7400 27.7948 1.6336
41.7600 27.8081 1.6392
41.7800 27.8214 1.6374
41.8000 27.8348 1.6419
41.8200 27.8481 1.6405
41.8400 27.8615 1.6458
41.8600 27.8748 1.6436
41.8800 27.8881 1.6482
41.9000 27.9014 1.6477
41.9200 27.9148 1.6494
41.9400 27.9281 1.6520
41.9600 27.9414 1.6537
41.9800 27.9547 1.6558
42.0000 27.9680 1.6572
42.0200 27.9814 1.6608
42.0400 27.9947 1.6603
42.0600 28.0080 1.6631
42.0800 28.0214 1.6646
42.1000 28.0348 1.6645
42.1200 28.0482 1.6672
42.1400 28.0615 1.6683
42.1600 28.0748 1.6712
42.1800 28.0882 1.6713
42.2000 28.1015 1.6761
42.2200 28.1148 1.6742
42.2400 28.1281 1.6785
42.2600 28.1414 1.6776
42.2800 28.1547 1.6811
42.3000 28.1681 1.6807
42.3200 28.1814 1.6864
42.3400 28.1947 1.6848
42.3600 28.2080 1.6873
42.3800 28.2214 1.6898
42.4000 28.2348 1.6897
42.4200 28.2481 1.6945
42.4400 28.2615 1.6936
42.4600 28.2749 1.6983
42.4800 28.2882 1.6964
42.5000 28.3014 1.7030
42.5200 28.3147 1.6981
42.5400 28.3281 1.7050
42.5600 28.3415 1.7013
42.5800 28.3548 1.7076
42.6000 28.3681 1.7053
42.6200 28.3815 1.7116
42.6400 28.3948 1.7105
42.6600 28.4081 1.7121
42.6800 28.4214 1.7166
42.7000 28.4347 1.7152
42.7200 28.4480 1.7211
42.7400 28.4614 1.7188
42.7600 28.4747 1.7249
42.7800 28.4880 1.7223
42.8000 28.5014 1.7292
42.8200 28.5148 1.7258
42.8400 28.5281 1.7319
42.8600 28.5415 1.7316
42.8800 28.5548 1.7336
42.9000 28.5681 1.7361
42.9200 28.5815 1.7376
42.9400 28.5948 1.7417
42.9600 28.6081 1.7408
42.9800 28.6214 1.7483
43.0000 28.6348 1.7439
43.0200 28.6481 1.7522
43.0400 28.6614 1.7474
43.0600 28.6747 1.7549
43.0800 28.6880 1.7518
43.1000 28.7014 1.7580
43.1200 28.7147 1.7563
43.1400 28.7280 1.7607
43.1600 28.7414 1.7619
43.1800 28.7548 1.7634
43.2000 28.7681 1.7654
43.2200 28.7814 1.7680
43.2400 28.7948 1.7719
43.2600 28.8081 1.7710
43.2800 28.8215 1.7766
43.3000 28.8348 1.7745
43.3200 28.8481 1.7812
43.3400 28.8614 1.7802
43.3600 28.8748 1.7854
43.3800 28.8881 1.7830
43.4000 28.9014 1.7882
43.4200 28.9147 1.7879
43.4400 28.9280 1.7922
43.4600 28.9414 1.7931
43.4800 28.9547 1.7973
43.5000 28.9681 1.7979
43.5200 28.9814 1.8030
43.5400 28.9948 1.8028
43.5600 29.0081 1.8059
43.5800 29.0215 1.8071
43.6000 29.0348 1.8093
43.6200 29.0481 1.8118
43.6400 29.0615 1.8131
43.6600 29.0748 1.8174
43.6800 29.0881 1.8163
43.7000 29.1014 1.8239
43.7200 29.1148 1.8214
43.7400 29.1281 1.8282
43.7600 29.1414 1.8273
43.7800 29.1547 1.8341
43.8000 29.1680 1.8320
43.8200 29.1814 1.8386
43.8400 29.1948 1.8358
43.8600 29.2081 1.8406
43.8800 29.2214 1.8421
43.9000 29.2348 1.8449
43.9200 29.2482 1.8475
43.9400 29.2615 1.8484
43.9600 29.2748 1.8532
43.9800 29.2881 1.8525
44.0000 29.3015 1.8593
44.0200 29.3148 1.8582
44.0400 29.3281 1.8639
44.0600 29.3414 1.8637
44.0800 29.3547 1.8687
44.1000 29.3680 1.8679
44.1200 29.3814 1.8723
44.1400 29.3947 1.8731
44.1600 29.4080 1.8750
44.1800 29.4214 1.8779
44.2000 29.4347 1.8800
44.2200 29.4481 1.8827
44.2400 29.4614 1.8865
44.2600 29.4748 1.8897
44.2800 29.4882 1.8910
44.3000 29.5015 1.8955
44.3200 29.5148 1.8961
44.3400 29.5281 1.8984
44.3600 29.5415 1.9014
44.3800 29.5548 1.9047
44.4000 29.5681 1.9057
44.4200 29.5814 1.9103
44.4400 29.5947 1.9103
44.4600 29.6081 1.9143
44.4800 29.6214 1.9156
44.5000 29.6347 1.9210
44.5200 29.6480 1.9193
44.5400 29.6614 1.9245
44.5600 29.6747 1.9243
44.5800 29.6881 1.9272
44.6000 29.7014 1.9308
44.6200 29.7148 1.9334
44.6400 29.7281 1.9363
44.6600 29.7414 1.9381
44.6800 29.7547 1.9425
44.7000 29.7681 1.9413
44.7200 29.7815 1.9470
44.7400 29.7948 1.9461
44.7600 29.8081 1.9505
44.7800 29.8215 1.9521
44.8000 29.8348 1.9558
44.8200 29.8482 1.9553
44.8400 29.8615 1.9605
44.8600 29.8747 1.9618
44.8800 29.8880 1.9645
44.9000 29.9014 1.9679
44.9200 29.9147 1.9692
44.9400 29.9280 1.9714
44.9600 29.9414 1.9724
44.9800 29.9548 1.9765
45.0000 29.9682 1.9764
45.0200 29.9815 1.9811
45.0400 29.9948 1.9811
45.0480 30.0000 1.9799
45.0490 30.0007 1.9797
45.0500 30.0013 1.9794
45.0700 30.0118 1.9657
45.0900 30.0141 1.9564
45.1100 30.0058 1.9600
45.1300 29.9931 1.9607
45.1500 29.9802 1.9483
45.1700 29.9673 1.9385
45.1900 29.9539 1.9282
45.2100 29.9399 1.9203
45.2300 29.9258 1.9120
45.2500 29.9120 1.9030
45.2700 29.8984 1.8973
45.2900 29.8851 1.8839
45.3100 29.8719 1.8812
45.3300 29.8585 1.8704
45.3500 29.8452 1.8674
45.3700 29.8318 1.8559
45.3900 29.8185 1.8540
45.4100 29.8051 1.8439
45.4300 29.7918 1.8395
45.4500 29.7784 1.8328
45.4700 29.7651 1.8268
45.4900 29.7517 1.8203
45.5100 29.7384 1.8146
45.5300 29.7250 1.8093
45.5500 29.7117 1.8031
45.5700 29.6984 1.7991
45.5900 29.6851 1.7920
45.6100 29.6717 1.7879
45.6300 29.6583 1.7824
45.6500 29.6450 1.7779
45.6700 29.6317 1.7711
45.6900 29.6184 1.7690
45.7100 29.6050 1.7616
45.7300 29.5917 1.7591
45.7500 29.5785 1.7529
45.7700 29.5651 1.7501
45.7900 29.5518 1.7433
45.8100 29.5384 1.7413
45.8300 29.5251 1.7350
45.8500 29.5118 1.7317
45.8700 29.4984 1.7274
45.8900 29.4850 1.7229
45.9100 29.4717 1.7191
45.9300 29.4584 1.7140
45.9500 29.4451 1.7123
45.9700 29.4317 1.7052
45.9900 29.4183 1.7053
46.0100 29.4050 1.6973
46.0300 29.3917 1.6971
46.0500 29.3784 1.6908
46.0700 29.3651 1.6898
46.0900 29.3518 1.6838
46.1100 29.3385 1.6812
46.1300 29.3251 1.6774
46.1500 29.3118 1.6730
46.1700 29.2984 1.6714
46.1900 29.2851 1.6663
46.2100 29.2718 1.6636
46.2300 29.2584 1.6596
46.2500 29.2450 1.6574
46.2700 29.2317 1.6522
46.2900 29.2184 1.6515
46.3100 29.2050 1.6461
46.3300 29.1916 1.6440
46.3500 29.1783 1.6404
46.3700 29.1650 1.6377
46.3900 29.1517 1.6341
46.4100 29.1384 1.6318
46.4300 29.1250 1.6279
46.4500 29.1117 1.6253
46.4700 29.0984 1.6221
46.4900 29.0851 1.6206
46.5100 29.0717 1.6144
46.5300 29.0584 1.6149
46.5500 29.0450 1.6100
46.5700 29.0317 1.6073
46.5900 29.0184 1.6044
46.6100 29.0050 1.6022
46.6300 28.9917 1.5993
46.6500 28.9783 1.5961
46.6700 28.9650 1.5942
46.6900 28.9516 1.5896
46.7100 28.9383 1.5897
46.7300 28.9250 1.5838
46.7500 28.9117 1.5833
46.7700 28.8984 1.5787
46.7900 28.8850 1.5799
46.8100 28.8717 1.5724
46.8300 28.8584 1.5738
46.8500 28.8451 1.5687
46.8700 28.8318 1.5672
46.8900 28.8184 1.5650
46.9100 28.8051 1.5616
46.9300 28.7917 1.5599
46.9500 28.7784 1.5560
46.9700 28.7650 1.5559
46.9900 28.7516 1.5505
47.0100 28.7383 1.5510
47.0300 28.7250 1.5463
47.0500 28.7117 1.5447
47.0700 28.6983 1.5422
47.0900 28.6850 1.5411
47.1100 28.6717 1.5367
47.1300 28.6584 1.5362
47.1500 28.6451 1.5323
47.1700 28.6317 1.5310
47.1900 28.6184 1.5289
47.2100 28.6051 1.5258
47.2300 28.5918 1.5240
47.2500 28.5784 1.5215
47.2700 28.5651 1.5197
47.2900 28.5517 1.5166
47.3100 28.5384 1.5151
47.3300 28.5250 1.5127
47.3500 28.5117 1.5118
47.3700 28.4983 1.5057
47.3900 28.4850 1.5092
47.4100 28.4717 1.5006
47.4300 28.4583 1.5051
47.4500 28.4450 1.4977
47.4700 28.4317 1.4991
47.4900 28.4184 1.4935
47.5100 28.4050 1.4964
47.5300 28.3917 1.4881
47.5500 28.3784 1.4923
47.5700 28.3651 1.4856
47.5900 28.3517 1.4853
47.6100 28.3384 1.4843
47.6300 28.3251 1.4793
47.6500 28.3117 1.4805
47.6700 28.2984 1.4754
47.6900 28.2850 1.4772
47.7100 28.2716 1.4711
47.7300 28.2583 1.4735
47.7500 28.2450 1.4670
47.7700 28.2317 1.4700
47.7900 28.2183 1.4623
47.8100 28.2050 1.4661
47.8300 28.1917 1.4594
47.8500 28.1783 1.4601
47.8700 28.1650 1.4580
47.8900 28.1517 1.4546
47.9100 28.1384 1.4549
47.9300 28.1251 1.4515
47.9500 28.1117 1.4505
47.9700 28.0984 1.4471
47.9900 28.0850 1.4485
48.0100 28.0717 1.4414
48.0300 28.0584 1.4452
48.0500 28.0450 1.4389
48.0700 28.0317 1.4404
48.0900 28.0184 1.4362
48.1100 28.0050 1.4373
48.1300 27.9917 1.4318
48.1500 27.9783 1.4342
48.1700 27.9650 1.4284
48.1900 27.9517 1.4299
48.2100 27.9384 1.4260
48.2300 27.9250 1.4254
48.2500 27.9117 1.4234
48.2700 27.8984 1.4206
48.2900 27.8851 1.4207
48.3100 27.8717 1.4177
48.3300 27.8584 1.4166
48.3500 27.8450 1.4142
48.3700 27.8317 1.4127
48.3900 27.8184 1.4093
48.4100 27.8050 1.4127
48.4300 27.7916 1.4044
48.4500 27.7783 1.4085
48.4700 27.7650 1.4021
48.4900 27.7517 1.4039
48.5100 27.7383 1.3996
48.5300 27.7250 1.4009
48.5500 27.7117 1.3968
48.5700 27.6984 1.3958
48.5900 27.6851 1.3956
48.6100 27.6717 1.3915
48.6300 27.6584 1.3927
48.6500 27.6451 1.3879
48.6700 27.6318 1.3897
48.6900 27.6184 1.3839
48.7100 27.6050 1.3874
48.7300 27.5917 1.3806
48.7500 27.5784 1.3836
48.7700 27.5650 1.3787
48.7900 27.5516 1.3798
48.8100 27.5383 1.3760
48.8300 27.5250 1.3762
48.8500 27.5117 1.3733
48.8700 27.4983 1.3713
48.8900 27.4850 1.3728
48.9100 27.4717 1.3671
48.9300 27.4584 1.3689
48.9500 27.4450 1.3649
48.9700 27.4317 1.3659
48.9900 27.4184 1.3612
49.0100 27.4051 1.3628
49.0300 27.3917 1.3583
49.0500 27.3784 1.3588
49.0700 27.3650 1.3564
49.0900 27.3517 1.3562
49.1100 27.3384 1.3525
49.1300 27.3250 1.3534
49.1500 27.3117 1.3496
49.1700 27.2983 1.3497
49.1900 27.2850 1.3476
49.2100 27.2717 1.3473
49.2300 27.2583 1.3439
49.2500 27.2450 1.3445
49.2700 27.2317 1.3409
49.2900 27.2184 1.3408
49.3100 27.2051 1.3400
49.3300 27.1917 1.3372
49.3500 27.1784 1.3369
49.3700 27.1651 1.3333
49.3900 27.1517 1.3357
49.4100 27.1384 1.3290
49.4300 27.1250 1.3347
49.4500 27.1117 1.3252
49.4700 27.0984 1.3305
49.4900 27.0850 1.3235
49.5100 27.0717 1.3278
49.5300 27.0583 1.3210
49.5500 27.0450 1.3245
49.5700 27.0317 1.3186
49.5900 27.0184 1.3201
49.6100 27.0050 1.3181
49.6300 26.9917 1.3162
49.6500 26.9784 1.3155
49.6700 26.9650 1.3137
49.6900 26.9517 1.3134
49.7100 26.9384 1.3090
49.7300 26.9251 1.3119
49.7500 26.9118 1.3066
49.7700 26.8984 1.3079
49.7900 26.8851 1.3049
49.8100 26.8717 1.3045
49.8300 26.8584 1.3024
49.8500 26.8450 1.3018
49.8700 26.8317 1.3001
49.8900 26.8183 1.2981
49.9100 26.8050 1.2977
49.9300 26.7917 1.2956
49.9500 26.7783 1.2947
49.9700 26.7650 1.2938
49.9900 26.7517 1.2921
50.0100 26.7384 1.2904
50.0300 26.7250 1.2902
50.0500 26.7117 1.2879
50.0700 26.6984 1.2866
50.0900 26.6851 1.2856
50.1100 26.6718 1.2841
50.1300 26.6584 1.2820
50.1500 26.6450 1.2832
50.1700 26.6317 1.2797
50.1900 26.6184 1.2791
50.2100 26.6051 1.2770
50.2300 26.5917 1.2772
50.2500 26.5783 1.2742
50.2700 26.5650 1.2749
50.2900 26.5516 1.2719
50.3100 26.5383 1.2717
50.3300 26.5250 1.2698
50.3500 26.5117 1.2695
50.3700 26.4984 1.2658
50.3900 26.4850 1.2681
50.4100 26.4717 1.2640
50.4300 26.4584 1.2650
50.4500 26.4451 1.2618
50.4700 26.4318 1.2623
50.4900 26.4184 1.2583
50.5100 26.4051 1.2600
50.5300 26.3917 1.2571
50.5500 26.3784 1.2557
50.5700 26.3651 1.2561
50.5900 26.3517 1.2526
50.6100 26.3383 1.2541
50.6300 26.3250 1.2492
50.6500 26.3117 1.2528
50.6700 26.2983 1.2452
50.6900 26.2850 1.2513
50.7100 26.2717 1.2436
50.7300 26.2584 1.2477
50.7500 26.2450 1.2420
50.7700 26.2317 1.2452
50.7900 26.2184 1.2403
50.8100 26.2051 1.2422
50.8300 26.1918 1.2390
50.8500 26.1784 1.2373
50.8700 26.1650 1.2385
50.8900 26.1517 1.2340
50.9100 26.1384 1.2364
50.9300 26.1250 1.2307
50.9500 26.1116 1.2358
50.9700 26.0983 1.2276
50.9900 26.0850 1.2331
51.0100 26.0717 1.2255
51.0300 26.0584 1.2293
51.0500 26.0450 1.2247
51.0700 26.0317 1.2268
51.0900 26.0184 1.2219
51.1100 26.0050 1.2248
51.1300 25.9917 1.2209
51.1500 25.9784 1.2207
51.1700 25.9651 1.2200
51.1900 25.9517 1.2182
51.2100 25.9384 1.2173
51.2300 25.9250 1.2155
51.2500 25.9117 1.2159
51.2700 25.8984 1.2120
51.2900 25.8851 1.2147
51.3100 25.8717 1.2103
51.3300 25.8583 1.2114
51.3500 25.8450 1.2085
51.3700 25.8317 1.2097
51.3900 25.8184 1.2052
51.4100 25.8050 1.2075
51.4300 25.7917 1.2041
51.4500 25.7783 1.2047
51.4700 25.7650 1.2019
51.4900 25.7517 1.2025
51.5100 25.7384 1.1996
51.5300 25.7251 1.2004
51.5500 25.7118 1.1976
51.5700 25.6984 1.1972
51.5900 25.6851 1.1965
51.6100 25.6718 1.1949
51.6300 25.6584 1.1938
51.6500 25.6451 1.1931
51.6700 25.6317 1.1918
51.6900 25.6183 1.1906
51.7100 25.6050 1.1892
51.7300 25.5917 1.1891
51.7500 25.5783 1.1862
51.7700 25.5650 1.1882
51.7900 25.5516 1.1839
51.8100 25.5383 1.1856
51.8300 25.5250 1.1812
51.8500 25.5117 1.1851
51.8700 25.4983 1.1780
51.8900 25.4851 1.1831
51.9100 25.4718 1.1761
51.9300 25.4584 1.1802
51.9500 25.4451 1.1749
51.9700 25.4317 1.1775
51.9900 25.4185 1.1737
52.0100 25.4051 1.1738
52.0300 25.3917 1.1720
52.0500 25.3783 1.1710
52.0700 25.3650 1.1714
52.0900 25.3517 1.1688
52.1100 25.3383 1.1694
52.1300 25.3250 1.1662
52.1500 25.3116 1.1681
52.1700 25.2984 1.1634
52.1900 25.2850 1.1655
52.2100 25.2717 1.1625
52.2300 25.2584 1.1630
52.2500 25.2451 1.1609
52.2700 25.2318 1.1608
52.2900 25.2184 1.1586
52.3100 25.2050 1.1587
52.3300 25.1917 1.1576
52.3500 25.1784 1.1555
52.3700 25.1650 1.1552
52.3900 25.1517 1.1539
52.4100 25.1383 1.1532
52.4300 25.1250 1.1515
52.4500 25.1117 1.1521
52.4700 25.0983 1.1492
52.4900 25.0850 1.1499
52.5100 25.0716 1.1475
52.5300 25.0583 1.1481
52.5500 25.0450 1.1449
52.5700 25.0317 1.1464
52.5900 25.0184 1.1426
52.6100 25.0051 1.1444
52.6300 24.9918 1.1412
52.6500 24.9784 1.1418
52.6700 24.9650 1.1393
52.6900 24.9517 1.1400
52.7100 24.9384 1.1378
52.7300 24.9250 1.1370
52.7500 24.9117 1.1372
52.7700 24.8983 1.1342
52.7900 24.8850 1.1355
52.8100 24.8717 1.1323
52.8300 24.8583 1.1335
52.8500 24.8450 1.1297
52.8700 24.8317 1.1328
52.8900 24.8184 1.1272
52.9100 24.8050 1.1308
52.9300 24.7917 1.1260
52.9500 24.7784 1.1283
52.9700 24.7651 1.1238
52.9900 24.7518 1.1251
53.0100 24.7384 1.1235
53.0300 24.7251 1.1228
53.0500 24.7117 1.1225
53.0700 24.6984 1.1201
53.0900 24.6851 1.1202
53.1100 24.6717 1.1184
53.1300 24.6583 1.1192
53.1500 24.6450 1.1157
53.1700 24.6317 1.1179
53.1900 24.6183 1.1136
53.2100 24.6050 1.1157
53.2300 24.5916 1.1123
53.2500 24.5783 1.1135
53.2700 24.5650 1.1103
53.2900 24.5517 1.1121
53.3100 24.5384 1.1086
53.3300 24.5251 1.1094
53.3500 24.5117 1.1074
53.3700 24.4984 1.1075
53.3900 24.4851 1.1047
53.4100 24.4718 1.1061
53.4300 24.4585 1.1035
53.4500 24.4451 1.1031
53.4700 24.4317 1.1025
53.4900 24.4183 1.1009
53.5100 24.4050 1.1011
53.5300 24.3917 1.0990
53.5500 24.3783 1.0992
53.5700 24.3649 1.0966
53.5900 24.3516 1.0977
53.6100 24.3383 1.0955
53.6300 24.3250 1.0950
53.6500 24.3117 1.0948
53.6700 24.2983 1.0927
53.6900 24.2851 1.0922
53.7100 24.2718 1.0911
53.7300 24.2584 1.0913
53.7500 24.2451 1.0886
53.7700 24.2317 1.0904
53.7900 24.2184 1.0859
53.8100 24.2051 1.0880
53.8300 24.1917 1.0846
53.8500 24.1783 1.0873
53.8700 24.1650 1.0818
53.8900 24.1517 1.0857
53.9100 24.1383 1.0802
53.9300 24.1250 1.0829
53.9500 24.1116 1.0798
53.9700 24.0983 1.0811
53.9900 24.0850 1.0770
54.0100 24.0717 1.0799
54.0300 24.0584 1.0762
54.0500 24.0451 1.0770
54.0700 24.0318 1.0753
54.0900 24.0185 1.0750
54.1100 24.0051 1.0731
54.1300 23.9917 1.0729
54.1500 23.9784 1.0724
54.1700 23.9651 1.0698
54.1900 23.9517 1.0715
54.2100 23.9383 1.0682
54.2300 23.9250 1.0692
54.2500 23.9117 1.0664
54.2700 23.8983 1.0682
54.2900 23.8850 1.0636
54.3100 23.8717 1.0675
54.3300 23.8584 1.0612
54.3500 23.8451 1.0660
54.3700 23.8317 1.0597
54.3900 23.8184 1.0641
54.4100 23.8051 1.0581
54.4300 23.7918 1.0622
54.4500 23.7785 1.0569
54.4700 23.7651 1.0593
54.4900 23.7517 1.0564
54.5100 23.7384 1.0576
54.5300 23.7251 1.0541
54.5500 23.7117 1.0559
54.5700 23.6983 1.0532
54.5900 23.6850 1.0522
54.6100 23.6717 1.0526
54.6300 23.6584 1.0512
54.6500 23.6450 1.0498
54.6700 23.6316 1.0507
54.6900 23.6183 1.0476
54.7100 23.6050 1.0480
54.7300 23.5917 1.0472
54.7500 23.5783 1.0462
54.7700 23.5650 1.0458
54.7900 23.5517 1.0441
54.8100 23.5384 1.0440
54.8300 23.5251 1.0419
54.8500 23.5117 1.0424
54.8700 23.4984 1.0412
54.8900 23.4850 1.0405
54.9100 23.4717 1.0386
54.9300 23.4583 1.0403
54.9500 23.4450 1.0369
54.9700 23.4317 1.0380
54.9900 23.4183 1.0367
55.0100 23.4050 1.0340
55.0300 23.3917 1.0368
55.0500 23.3783 1.0319
55.0700 23.3650 1.0347
55.0900 23.3517 1.0315
55.1100 23.3383 1.0326
55.1300 23.3250 1.0293
55.1500 23.3117 1.0313
55.1700 23.2984 1.0280
55.1900 23.2851 1.0287
55.2100 23.2717 1.0278
55.2300 23.2584 1.0262
55.2500 23.2451 1.0260
55.2700 23.2317 1.0238
55.2900 23.2183 1.0265
55.3100 23.2050 1.0213
55.3300 23.1917 1.0246
55.3500 23.1784 1.0204
55.3700 23.1650 1.0225
55.3900 23.1517 1.0191
55.4100 23.1384 1.0201
55.4300 23.1251 1.0187
55.4500 23.1117 1.0169
55.4700 23.0984 1.0194
55.4900 23.0851 1.0143
55.5100 23.0718 1.0176
55.5300 23.0584 1.0136
55.5500 23.0451 1.0147
55.5700 23.0317 1.0120
55.5900 23.0184 1.0146
55.6100 23.0051 1.0092
55.6300 22.9917 1.0138
55.6500 22.9783 1.0075
55.6700 22.9650 1.0115
55.6900 22.9517 1.0070
55.7100 22.9384 1.0096
55.7300 22.9250 1.0054
55.7500 22.9116 1.0081
55.7700 22.8983 1.0048
55.7900 22.8851 1.0048
55.8100 22.8718 1.0048
55.8300 22.8584 1.0017
55.8500 22.8451 1.0044
55.8700 22.8318 0.9994
55.8900 22.8184 1.0026
55.9100 22.8051 0.9984
55.9300 22.7917 1.0011
55.9500 22.7784 0.9978
55.9700 22.7650 0.9982
55.9900 22.7517 0.9962
56.0100 22.7383 0.9972
56.0300 22.7249 0.9948
56.0500 22.7117 0.9952
56.0700 22.6984 0.9941
56.0900 22.6850 0.9929
56.1100 22.6716 0.9932
56.1300 22.6583 0.9916
56.1500 22.6450 0.9914
56.1700 22.6317 0.9891
56.1900 22.6184 0.9910
56.2100 22.6050 0.9866
56.2300 22.5917 0.9895
56.2500 22.5784 0.9857
56.2700 22.5651 0.9877
56.2900 22.5517 0.9843
56.3100 22.5384 0.9863
56.3300 22.5251 0.9827
56.3500 22.5117 0.9849
56.3700 22.4983 0.9809
56.3900 22.4850 0.9834
56.4100 22.4717 0.9798
56.4300 22.4584 0.9813
56.4500 22.4450 0.9793
56.4700 22.4317 0.9780
56.4900 22.4183 0.9793
56.5100 22.4051 0.9758
56.5300 22.3917 0.9779
56.5500 22.3784 0.9748
56.5700 22.3650 0.9768
56.5900 22.3517 0.9727
56.6100 22.3384 0.9748
56.6300 22.3251 0.9713
56.6500 22.3117 0.9734
56.6700 22.2984 0.9709
56.6900 22.2850 0.9707
56.7100 22.2717 0.9705
56.7300 22.2584 0.9677
56.7500 22.2450 0.9709
56.7700 22.2317 0.9648
56.7900 22.2184 0.9696
56.8100 22.2050 0.9644
56.8300 22.1917 0.9661
56.8500 22.1783 0.9648
56.8700 22.1650 0.9643
56.8900 22.1517 0.9624
56.9100 22.1384 0.9645
56.9300 22.1250 0.9606
56.9500 22.1117 0.9619
56.9700 22.0984 0.9606
56.9900 22.0851 0.9593
57.0100 22.0717 0.9605
57.0300 22.0584 0.9574
57.0500 22.0451 0.9591
57.0700 22.0317 0.9560
57.0900 22.0184 0.9571
57.1100 22.0050 0.9555
57.1300 21.9917 0.9556
57.1500 21.9783 0.9529
57.1700 21.9650 0.9549
57.1900 21.9516 0.9507
57.2100 21.9383 0.9541
57.2300 21.9250 0.9506
57.2500 21.9117 0.9512
57.2700 21.8984 0.9490
57.2900 21.8850 0.9508
57.3100 21.8717 0.9471
57.3300 21.8584 0.9493
57.3500 21.8451 0.9469
57.3700 21.8317 0.9459
57.3900 21.8184 0.9467
57.4100 21.8051 0.9442
57.4300 21.7917 0.9446
57.4500 21.7784 0.9436
57.4700 21.7650 0.9433
57.4900 21.7516 0.9413
57.5100 21.7383 0.9434
57.5300 21.7250 0.9390
57.5500 21.7116 0.9418
57.5700 21.6983 0.9384
57.5900 21.6850 0.9398
57.6100 21.6717 0.9373
57.6300 21.6584 0.9387
57.6500 21.6450 0.9356
57.6700 21.6317 0.9369
57.6900 21.6184 0.9341
57.7100 21.6051 0.9355
57.7300 21.5917 0.9336
57.7500 21.5784 0.9330
57.7700 21.5650 0.9333
57.7900 21.5517 0.9310
57.8100 21.5384 0.9315
57.8300 21.5250 0.9298
57.8500 21.5117 0.9307
57.8700 21.4983 0.9278
57.8900 21.4850 0.9292
57.9100 21.4717 0.9258
57.9300 21.4583 0.9286
57.9500 21.4450 0.9249
57.9700 21.4317 0.9269
57.9900 21.4184 0.9233
58.0100 21.4050 0.9254
58.0300 21.3917 0.9226
58.0500 21.3784 0.9229
58.0700 21.3651 0.9226
58.0900 21.3517 0.9212
58.1100 21.3384 0.9205
58.1300 21.3251 0.9204
58.1500 21.3118 0.9189
58.1700 21.2984 0.9185
58.1900 21.2850 0.9189
58.2100 21.2717 0.9155
58.2300 21.2584 0.9176
58.2500 21.2451 0.9150
58.2700 21.2317 0.9169
58.2900 21.2183 0.9122
58.3100 21.2050 0.9157
58.3300 21.1917 0.9120
58.3500 21.1784 0.9129
58.3700 21.1650 0.9122
58.3900 21.1517 0.9109
58.4100 21.1384 0.9103
58.4300 21.1251 0.9095
58.4500 21.1117 0.9098
58.4700 21.0984 0.9075
58.4900 21.0851 0.9089
58.5100 21.0717 0.9048
58.5300 21.0584 0.9084
58.5500 21.0450 0.9037
58.5700 21.0317 0.9078
58.5900 21.0183 0.9015
58.6100 21.0050 0.9059
58.6300 20.9916 0.9010
58.6500 20.9783 0.9049
58.6700 20.9650 0.9003
58.6900 20.9517 0.9022
58.7100 20.9383 0.8998
58.7300 20.9250 0.9005
58.7500 20.9117 0.8989
58.7700 20.8984 0.8993
58.7900 20.8851 0.8978
58.8100 20.8717 0.8962
58.8300 20.8584 0.8982
58.8500 20.8451 0.8949
58.8700 20.8318 0.8967
58.8900 20.8184 0.8933
58.9100 20.8050 0.8958
58.9300 20.7917 0.8914
58.9500 20.7784 0.8945
58.9700 20.7650 0.8909
58.9900 20.7516 0.8922
59.0100 20.7383 0.8903
59.0300 20.7250 0.8907
59.0500 20.7117 0.8898
59.0700 20.6983 0.8890
59.0900 20.6850 0.8898
59.1100 20.6717 0.8868
59.1300 20.6584 0.8887
59.1500 20.6451 0.8851
59.1700 20.6317 0.8885
59.1900 20.6184 0.8827
59.2100 20.6051 0.8883
59.2300 20.5918 0.8803
59.2500 20.5784 0.8865
59.2700 20.5650 0.8800
59.2900 20.5516 0.8849
59.3100 20.5383 0.8791
59.3300 20.5250 0.8828
59.3500 20.5116 0.8783
59.3700 20.4983 0.8811
59.3900 20.4850 0.8784
59.4100 20.4717 0.8783
59.4300 20.4584 0.8776
59.4500 20.4450 0.8767
59.4700 20.4317 0.8769
59.4900 20.4184 0.8745
59.5100 20.4051 0.8765
59.5300 20.3918 0.8724
59.5500 20.3784 0.8753
59.5700 20.3650 0.8718
59.5900 20.3517 0.8739
59.6100 20.3384 0.8698
59.6300 20.3250 0.8729
59.6500 20.3116 0.8692
59.6700 20.2983 0.8702
59.6900 20.2850 0.8692
59.7100 20.2717 0.8684
59.7300 20.2583 0.8680
59.7500 20.2450 0.8670
59.7700 20.2317 0.8666
59.7900 20.2184 0.8655
59.8100 20.2050 0.8672
59.8300 20.1917 0.8632
59.8500 20.1784 0.8658
59.8700 20.1651 0.8620
59.8900 20.1517 0.8650
59.9100 20.1384 0.8602
59.9300 20.1250 0.8640
59.9500 20.1117 0.8589
59.9700 20.0983 0.8614
59.9900 20.0850 0.8596
60.0100 20.0716 0.8590
60.0300 20.0583 0.8587
60.0500 20.0450 0.8576
60.0700 20.0317 0.8571
60.0900 20.0183 0.8560
60.1100 20.0050 0.8570
60.1300 19.9917 0.8539
60.1500 19.9784 0.8563
60.1700 19.9650 0.8531
60.1900 19.9517 0.8551
60.2100 19.9384 0.8509
60.2300 19.9251 0.8542
60.2500 19.9117 0.8496
60.2700 19.8984 0.8526
60.2900 19.8850 0.8494
60.3100 19.8717 0.8504
60.3300 19.8584 0.8486
60.3500 19.8450 0.8486
60.3700 19.8316 0.8479
60.3900 19.8183 0.8475
60.4100 19.8050 0.8467
60.4300 19.7917 0.8462
60.4500 19.7783 0.8459
60.4700 19.7650 0.8435
60.4900 19.7517 0.8459
60.5100 19.7384 0.8419
60.5300 19.7250 0.8452
60.5500 19.7117 0.8402
60.5700 19.6984 0.8428
60.5900 19.6851 0.8402
60.6100 19.6717 0.8423
60.6300 19.6584 0.8386
60.6500 19.6451 0.8406
60.6700 19.6318 0.8373
60.6900 19.6184 0.8386
60.7100 19.6050 0.8375
60.7300 19.5917 0.8369
60.7500 19.5784 0.8364
60.7700 19.5650 0.8344
60.7900 19.5517 0.8362
60.8100 19.5383 0.8324
60.8300 19.5250 0.8358
60.8500 19.5117 0.8311
60.8700 19.4984 0.8342
60.8900 19.4850 0.8304
60.9100 19.4717 0.8335
60.9300 19.4584 0.8281
60.9500 19.4451 0.8317
60.9700 19.4318 0.8282
60.9900 19.4184 0.8290
61.0100 19.4051 0.8275
61.0300 19.3917 0.8286
61.0500 19.3784 0.8262
61.0700 19.3650 0.8263
61.0900 19.3516 0.8263
61.1100 19.3383 0.8239
61.1300 19.3250 0.8260
61.1500 19.3117 0.8226
61.1700 19.2983 0.8247
61.1900 19.2850 0.8212
61.2100 19.2717 0.8241
61.2300 19.2584 0.8192
61.2500 19.2450 0.8235
61.2700 19.2317 0.8189
61.2900 19.2184 0.8208
61.3100 19.2051 0.8171
61.3300 19.1918 0.8208
61.3500 19.1785 0.8159
61.3700 19.1651 0.8193
61.3900 19.1517 0.8154
61.4100 19.1383 0.8166
61.4300 19.1249 0.8150
61.4500 19.1116 0.8157
61.4700 19.0983 0.8144
61.4900 19.0850 0.8128
61.5100 19.0716 0.8147
61.5300 19.0583 0.8106
61.5500 19.0450 0.8149
61.5700 19.0317 0.8094
61.5900 19.0184 0.8130
61.6100 19.0050 0.8093
61.6300 18.9917 0.8115
61.6500 18.9784 0.8079
61.6700 18.9651 0.8100
61.6900 18.9518 0.8085
61.7100 18.9384 0.8069
61.7300 18.9250 0.8079
61.7500 18.9117 0.8053
61.7700 18.8984 0.8072
61.7900 18.8850 0.8033
61.8100 18.8717 0.8073
61.8300 18.8583 0.8011
61.8500 18.8450 0.8060
61.8700 18.8317 0.8006
61.8900 18.8183 0.8044
61.9100 18.8050 0.7998
61.9300 18.7917 0.8029
61.9500 18.7784 0.7980
61.9700 18.7650 0.8018
61.9900 18.7517 0.7982
62.0100 18.7384 0.7990
62.0300 18.7251 0.7978
62.0500 18.7117 0.7985
62.0700 18.6984 0.7960
62.0900 18.6850 0.7969
62.1100 18.6717 0.7964
62.1300 18.6584 0.7948
62.1500 18.6450 0.7959
62.1700 18.6317 0.7935
62.1900 18.6183 0.7946
62.2100 18.6050 0.7916
62.2300 18.5917 0.7944
62.2500 18.5783 0.7898
62.2700 18.5650 0.7930
62.2900 18.5517 0.7889
62.3100 18.5384 0.7908
62.3300 18.5250 0.7883
62.3500 18.5117 0.7897
62.3700 18.4984 0.7874
62.3900 18.4851 0.7876
62.4100 18.4717 0.7881
62.4300 18.4584 0.7852
62.4500 18.4450 0.7871
62.4700 18.4317 0.7834
62.4900 18.4184 0.7867
62.5100 18.4050 0.7814
62.5300 18.3917 0.7867
62.5500 18.3783 0.7802
62.5700 18.3650 0.7845
62.5900 18.3517 0.7800
62.6100 18.3383 0.7827
62.6300 18.3250 0.7795
62.6500 18.3117 0.7812
62.6700 18.2984 0.7781
62.6900 18.2850 0.7798
62.7100 18.2717 0.7789
62.7300 18.2584 0.7766
62.7500 18.2451 0.7779
62.7700 18.2318 0.7758
62.7900 18.2184 0.7769
62.8100 18.2050 0.7737
62.8300 18.1917 0.7769
62.8500 18.1784 0.7721
62.8700 18.1650 0.7747
62.8900 18.1516 0.7720
62.9100 18.1383 0.7736
62.9300 18.1250 0.7708
62.9500 18.1117 0.7730
62.9700 18.0983 0.7690
62.9900 18.0850 0.7724
63.0100 18.0717 0.7682
63.0300 18.0584 0.7710
63.0500 18.0451 0.7679
63.0700 18.0317 0.7695
63.0900 18.0184 0.7664
63.1100 18.0051 0.7674
63.1300 17.9918 0.7666
63.1500 17.9784 0.7657
63.1700 17.9650 0.7662
63.1900 17.9517 0.7647
63.2100 17.9384 0.7646
63.2300 17.9250 0.7622
63.2500 17.9116 0.7654
63.2700 17.8983 0.7603
63.2900 17.8850 0.7642
63.3100 17.8717 0.7591
63.3300 17.8583 0.7631
63.3500 17.8450 0.7586
63.3700 17.8317 0.7617
63.3900 17.8184 0.7581
63.4100 17.8050 0.7586
63.4300 17.7917 0.7581
63.4500 17.7784 0.7564
63.4700 17.7651 0.7572
63.4900 17.7518 0.7560
63.5100 17.7384 0.7565
63.5300 17.7250 0.7541
63.5500 17.7117 0.7556
63.5700 17.6984 0.7529
63.5900 17.6850 0.7548
63.6100 17.6717 0.7526
63.6300 17.6583 0.7530
63.6500 17.6450 0.7516
63.6700 17.6317 0.7518
63.6900 17.6183 0.7511
63.7100 17.6050 0.7505
63.7300 17.5917 0.7510
63.7500 17.5784 0.7484
63.7700 17.5651 0.7493
63.7900 17.5517 0.7486
63.8100 17.5384 0.7483
63.8300 17.5251 0.7460
63.8500 17.5117 0.7480
63.8700 17.4984 0.7446
63.8900 17.4850 0.7468
63.9100 17.4717 0.7438
63.9300 17.4584 0.7453
63.9500 17.4450 0.7424
63.9700 17.4317 0.7452
63.9900 17.4183 0.7410
64.0100 17.4050 0.7428
64.0300 17.3917 0.7405
64.0500 17.3784 0.7414
64.0700 17.3650 0.7396
64.0900 17.3517 0.7402
64.1100 17.3384 0.7391
64.1300 17.3250 0.7379
64.1500 17.3117 0.7388
64.1700 17.2984 0.7368
64.1900 17.2851 0.7376
64.2100 17.2718 0.7356
64.2300 17.2584 0.7374
64.2500 17.2451 0.7333
64.2700 17.2317 0.7365
64.2900 17.2184 0.7325
64.3100 17.2051 0.7341
64.3300 17.1917 0.7322
64.3500 17.1783 0.7330
64.3700 17.1650 0.7310
64.3900 17.1517 0.7311
64.4100 17.1383 0.7310
64.4300 17.1250 0.7296
64.4500 17.1117 0.7316
64.4700 17.0984 0.7270
64.4900 17.0850 0.7300
64.5100 17.0717 0.7266
64.5300 17.0584 0.7298
64.5500 17.0451 0.7246
64.5700 17.0318 0.7287
64.5900 17.0184 0.7244
64.6100 17.0050 0.7268
64.6300 16.9917 0.7235
64.6500 16.9784 0.7258
64.6700 16.9651 0.7218
64.6900 16.9517 0.7244
64.7100 16.9383 0.7221
64.7300 16.9250 0.7218
64.7500 16.9116 0.7220
64.7700 16.8983 0.7208
64.7900 16.8849 0.7204
64.8100 16.8717 0.7199
64.8300 16.8584 0.7197
64.8500 16.8450 0.7176
64.8700 16.8317 0.7196
64.8900 16.8184 0.7162
64.9100 16.8051 0.7180
64.9300 16.7918 0.7148
64.9500 16.7784 0.7174
64.9700 16.7651 0.7134
64.9900 16.7517 0.7168
65.0100 16.7384 0.7122
65.0300 16.7251 0.7147
65.0500 16.7117 0.7122
65.0700 16.6983 0.7141
65.0900 16.6850 0.7112
65.1100 16.6717 0.7119
65.1300 16.6583 0.7114
65.1500 16.6450 0.7093
65.1700 16.6317 0.7115
65.1900 16.6183 0.7084
65.2100 16.6050 0.7102
65.2300 16.5917 0.7063
65.2500 16.5784 0.7106
65.2700 16.5651 0.7032
65.2900 16.5518 0.7103
65.3100 16.5384 0.7038
65.3300 16.5250 0.7065
65.3500 16.5117 0.7046
65.3700 16.4984 0.7053
65.3900 16.4850 0.7036
65.4100 16.4717 0.7035
65.4300 16.4583 0.7037
65.4500 16.4450 0.7011
65.4700 16.4317 0.7032
65.4900 16.4184 0.7003
65.5100 16.4050 0.7022
65.5300 16.3917 0.6997
65.5500 16.3784 0.7011
65.5700 16.3650 0.6967
65.5900 16.3517 0.7007
65.6100 16.3383 0.6968
65.6300 16.3250 0.6985
65.6500 16.3117 0.6964
65.6700 16.2984 0.6976
65.6900 16.2850 0.6949
65.7100 16.2717 0.6956
65.7300 16.2584 0.6953
65.7500 16.2451 0.6939
65.7700 16.2317 0.6940
65.7900 16.2183 0.6934
65.8100 16.2050 0.6924
65.8300 16.1917 0.6920
65.8500 16.1783 0.6927
65.8700 16.1650 0.6892
65.8900 16.1516 0.6927
65.9100 16.1383 0.6880
65.9300 16.1250 0.6911
65.9500 16.1117 0.6875
65.9700 16.0983 0.6907
65.9900 16.0851 0.6853
66.0100 16.0718 0.6896
66.0300 16.0584 0.6856
66.0500 16.0451 0.6871
66.0700 16.0317 0.6849
66.0900 16.0184 0.6863
66.1100 16.0051 0.6835
66.1300 15.9917 0.6841
66.1500 15.9784 0.6847
66.1700 15.9651 0.6813
66.1900 15.9517 0.6844
66.2100 15.9384 0.6804
66.2300 15.9250 0.6827
66.2500 15.9116 0.6794
66.2700 15.8983 0.6825
66.2900 15.8850 0.6773
66.3100 15.8717 0.6813
66.3300 15.8583 0.6774
66.3500 15.8451 0.6786
66.3700 15.8318 0.6778
66.3900 15.8185 0.6775
66.4100 15.8051 0.6768
66.4300 15.7917 0.6753
66.4500 15.7784 0.6766
66.4700 15.7651 0.6732
66.4900 15.7517 0.6759
66.5100 15.7383 0.6728
66.5300 15.7250 0.6742
66.5500 15.7117 0.6711
66.5700 15.6983 0.6742
66.5900 15.6850 0.6696
66.6100 15.6716 0.6733
66.6300 15.6584 0.6693
66.6500 15.6451 0.6704
66.6700 15.6317 0.6687
66.6900 15.6184 0.6707
66.7100 15.6051 0.6670
66.7300 15.5918 0.6690
66.7500 15.5784 0.6671
66.7700 15.5650 0.6668
66.7900 15.5517 0.6668
66.8100 15.5384 0.6663
66.8300 15.5251 0.6647
66.8500 15.5117 0.6640
66.8700 15.4983 0.6656
66.8900 15.4850 0.6623
66.9100 15.4717 0.6648
66.9300 15.4583 0.6610
66.9500 15.4450 0.6633
66.9700 15.4316 0.6601
66.9900 15.4183 0.6631
67.0100 15.4050 0.6592
67.0300 15.3917 0.6609
67.0500 15.3784 0.6594
67.0700 15.3651 0.6584
67.0900 15.3518 0.6581
67.1100 15.3385 0.6581
67.1300 15.3251 0.6580
67.1500 15.3117 0.6555
67.1700 15.2984 0.6578
67.1900 15.2850 0.6531
67.2100 15.2717 0.6577
67.2300 15.2583 0.6523
67.2500 15.2450 0.6565
67.2700 15.2317 0.6511
67.2900 15.2183 0.6554
67.3100 15.2050 0.6506
67.3300 15.1917 0.6530
67.3500 15.1784 0.6510
67.3700 15.1651 0.6513
67.3900 15.1517 0.6497
67.4100 15.1384 0.6507
67.4300 15.1251 0.6493
67.4500 15.1118 0.6485
67.4700 15.0984 0.6490
67.4900 15.0851 0.6463
67.5100 15.0717 0.6483
67.5300 15.0584 0.6457
67.5500 15.0451 0.6469
67.5700 15.0317 0.6442
67.5900 15.0183 0.6460
67.6100 15.0050 0.6432
67.6300 14.9917 0.6446
67.6500 14.9783 0.6427
67.6700 14.9650 0.6435
67.6900 14.9516 0.6417
67.7100 14.9383 0.6426
67.7300 14.9250 0.6403
67.7500 14.9117 0.6414
67.7700 14.8984 0.6403
67.7900 14.8851 0.6389
67.8100 14.8718 0.6390
67.8300 14.8584 0.6386
67.8500 14.8451 0.6398
67.8700 14.8318 0.6354
67.8900 14.8184 0.6393
67.9100 14.8051 0.6344
67.9300 14.7917 0.6372
67.9500 14.7783 0.6344
67.9700 14.7650 0.6366
67.9900 14.7517 0.6327
68.0100 14.7383 0.6358
68.0300 14.7250 0.6322
68.0500 14.7116 0.6337
68.0700 14.6983 0.6327
68.0900 14.6850 0.6316
68.1100 14.6717 0.6322
68.1300 14.6583 0.6298
68.1500 14.6450 0.6324
68.1700 14.6318 0.6269
68.1900 14.6185 0.6321
68.2100 14.6051 0.6262
68.2300 14.5917 0.6307
68.2500 14.5784 0.6259
68.2700 14.5650 0.6284
68.2900 14.5517 0.6250
68.3100 14.5383 0.6275
68.3300 14.5250 0.6247
68.3500 14.5117 0.6247
68.3700 14.4983 0.6247
68.3900 14.4850 0.6235
68.4100 14.4716 0.6237
68.4300 14.4583 0.6220
68.4500 14.4451 0.6234
68.4700 14.4317 0.6198
68.4900 14.4184 0.6234
68.5100 14.4051 0.6187
68.5300 14.3918 0.6217
68.5500 14.3785 0.6186
68.5700 14.3651 0.6204
68.5900 14.3517 0.6171
68.6100 14.3384 0.6192
68.6300 14.3251 0.6168
68.6500 14.3117 0.6175
68.6700 14.2983 0.6158
68.6900 14.2850 0.6164
68.7100 14.2717 0.6145
68.7300 14.2583 0.6152
68.7500 14.2450 0.6144
68.7700 14.2316 0.6136
68.7900 14.2184 0.6146
68.8100 14.2051 0.6113
68.8300 14.1917 0.6131
68.8500 14.1784 0.6111
68.8700 14.1651 0.6142
68.8900 14.1518 0.6076
68.9100 14.1385 0.6132
68.9300 14.1251 0.6070
68.9500 14.1117 0.6114
68.9700 14.0984 0.6064
68.9900 14.0851 0.6100
69.0100 14.0717 0.6054
69.0300 14.0583 0.6082
69.0500 14.0450 0.6059
69.0700 14.0317 0.6056
69.0900 14.0184 0.6059
69.1100 14.0050 0.6036
69.1300 13.9917 0.6055
69.1500 13.9783 0.6022
69.1700 13.9650 0.6058
69.1900 13.9517 0.5994
69.2100 13.9383 0.6053
69.2300 13.9250 0.5997
69.2500 13.9117 0.6022
69.2700 13.8984 0.5996
69.2900 13.8851 0.6017
69.3100 13.8717 0.5977
69.3300 13.8584 0.6004
69.3500 13.8451 0.5984
69.3700 13.8317 0.5978
69.3900 13.8183 0.5972
69.4100 13.8050 0.5978
69.4300 13.7917 0.5957
69.4500 13.7783 0.5960
69.4700 13.7650 0.5958
69.4900 13.7516 0.5937
69.5100 13.7383 0.5952
69.5300 13.7250 0.5926
69.5500 13.7117 0.5932
69.5700 13.6983 0.5924
69.5900 13.6850 0.5931
69.6100 13.6717 0.5902
69.6300 13.6584 0.5918
69.6500 13.6450 0.5894
69.6700 13.6317 0.5909
69.6900 13.6184 0.5889
69.7100 13.6051 0.5902
69.7300 13.5917 0.5874
69.7500 13.5783 0.5879
69.7700 13.5650 0.5881
69.7900 13.5517 0.5856
69.8100 13.5383 0.5878
69.8300 13.5250 0.5842
69.8500 13.5117 0.5864
69.8700 13.4983 0.5834
69.8900 13.4850 0.5859
69.9100 13.4717 0.5813
69.9300 13.4584 0.5853
69.9500 13.4450 0.5816
69.9700 13.4318 0.5830
69.9900 13.4184 0.5803
70.0100 13.4051 0.5831
70.0300 13.3917 0.5789
70.0500 13.3784 0.5805
70.0700 13.3651 0.5793
70.0900 13.3517 0.5778
70.1100 13.3384 0.5792
70.1300 13.3250 0.5772
70.1500 13.3117 0.5776
70.1700 13.2984 0.5759
70.1900 13.2850 0.5768
70.2100 13.2716 0.5753
70.2300 13.2583 0.5768
70.2500 13.2450 0.5746
70.2700 13.2317 0.5737
70.2900 13.2184 0.5738
70.3100 13.2051 0.5750
70.3300 13.1918 0.5718
70.3500 13.1784 0.5735
70.3700 13.1651 0.5714
70.3900 13.1517 0.5709
70.4100 13.1384 0.5707
70.4300 13.1250 0.5699
70.4500 13.1117 0.5696
70.4700 13.0983 0.5684
70.4900 13.0850 0.5699
70.5100 13.0717 0.5660
70.5300 13.0584 0.5693
70.5500 13.0450 0.5652
70.5700 13.0317 0.5678
70.5900 13.0183 0.5636
70.6100 13.0050 0.5680
70.6300 12.9917 0.5618
70.6500 12.9784 0.5665
70.6700 12.9650 0.5629
70.6900 12.9517 0.5636
70.7100 12.9384 0.5613
70.7300 12.9251 0.5637
70.7500 12.9117 0.5609
70.7700 12.8984 0.5612
70.7900 12.8851 0.5617
70.8100 12.8717 0.5582
70.8300 12.8584 0.5605
70.8500 12.8450 0.5582
70.8700 12.8317 0.5593
70.8900 12.8183 0.5564
70.9100 12.8050 0.5590
70.9300 12.7916 0.5547
70.9500 12.7783 0.5588
70.9700 12.7650 0.5543
70.9900 12.7517 0.5566
71.0100 12.7384 0.5533
71.0300 12.7250 0.5557
71.0500 12.7117 0.5520
71.0700 12.6984 0.5532
71.0900 12.6851 0.5532
71.1100 12.6717 0.5514
71.1300 12.6583 0.5521
71.1500 12.6450 0.5501
71.1700 12.6317 0.5508
71.1900 12.6184 0.5482
71.2100 12.6050 0.5512
71.2300 12.5917 0.5468
71.2500 12.5784 0.5497
71.2700 12.5650 0.5465
71.2900 12.5517 0.5479
71.3100 12.5383 0.5456
71.3300 12.5251 0.5469
71.3500 12.5117 0.5442
71.3700 12.4984 0.5446
71.3900 12.4850 0.5454
71.4100 12.4717 0.5424
71.4300 12.4584 0.5440
71.4500 12.4451 0.5417
71.4700 12.4318 0.5433
71.4900 12.4184 0.5396
71.5100 12.4051 0.5433
71.5300 12.3917 0.5381
71.5500 12.3784 0.5419
71.5700 12.3650 0.5381
71.5900 12.3517 0.5399
71.6100 12.3384 0.5367
71.6300 12.3250 0.5397
71.6500 12.3116 0.5354
71.6700 12.2983 0.5384
71.6900 12.2850 0.5357
71.7100 12.2717 0.5350
71.7300 12.2584 0.5351
71.7500 12.2450 0.5348
71.7700 12.2317 0.5349
71.7900 12.2184 0.5316
71.8100 12.2051 0.5351
71.8300 12.1917 0.5306
71.8500 12.1784 0.5337
71.8700 12.1651 0.5296
71.8900 12.1517 0.5328
71.9100 12.1384 0.5279
71.9300 12.1250 0.5324
71.9500 12.1116 0.5269
71.9700 12.0983 0.5302
71.9900 12.0850 0.5272
72.0100 12.0716 0.5283
72.0300 12.0583 0.5270
72.0500 12.0450 0.5267
72.0700 12.0317 0.5268
72.0900 12.0184 0.5240
72.1100 12.0050 0.5275
72.1300 11.9917 0.5234
72.1500 11.9784 0.5255
72.1700 11.9651 0.5226
72.1900 11.9517 0.5242
72.2100 11.9384 0.5209
72.2300 11.9251 0.5241
72.2500 11.9117 0.5194
72.2700 11.8984 0.5222
72.2900 11.8850 0.5197
72.3100 11.8717 0.5202
72.3300 11.8583 0.5190
72.3500 11.8450 0.5186
72.3700 11.8317 0.5189
72.3900 11.8183 0.5165
72.4100 11.8050 0.5190
72.4300 11.7917 0.5149
72.4500 11.7784 0.5174
72.4700 11.7650 0.5151
72.4900 11.7517 0.5164
72.5100 11.7384 0.5129
72.5300 11.7251 0.5157
72.5500 11.7117 0.5126
72.5700 11.6984 0.5139
72.5900 11.6851 0.5112
72.6100 11.6718 0.5126
72.6300 11.6584 0.5102
72.6500 11.6450 0.5123
72.6700 11.6317 0.5095
72.6900 11.6184 0.5098
72.7100 11.6051 0.5094
72.7300 11.5917 0.5078
72.7500 11.5783 0.5083
72.7700 11.5650 0.5072
72.7900 11.5517 0.5080
72.8100 11.5384 0.5042
72.8300 11.5250 0.5080
72.8500 11.5117 0.5028
72.8700 11.4984 0.5066
72.8900 11.4851 0.5020
72.9100 11.4717 0.5057
72.9300 11.4584 0.5006
72.9500 11.4451 0.5044
72.9700 11.4317 0.5004
72.9900 11.4184 0.5016
73.0100 11.4050 0.5010
73.0300 11.3917 0.4997
73.0500 11.3784 0.5002
73.0700 11.3650 0.4983
73.0900 11.3517 0.4999
73.1100 11.3383 0.4964
73.1300 11.3250 0.4997
73.1500 11.3117 0.4952
73.1700 11.2983 0.4978
73.1900 11.2850 0.4949
73.2100 11.2717 0.4973
73.2300 11.2584 0.4929
73.2500 11.2451 0.4953
73.2700 11.2317 0.4937
73.2900 11.2184 0.4931
73.3100 11.2051 0.4929
73.3300 11.1918 0.4913
73.3500 11.1784 0.4924
73.3700 11.1650 0.4900
73.3900 11.1517 0.4921
73.4100 11.1384 0.4876
73.4300 11.1250 0.4917
73.4500 11.1117 0.4864
73.4700 11.0983 0.4898
73.4900 11.0850 0.4866
73.5100 11.0717 0.4898
73.5300 11.0583 0.4838
73.5500 11.0450 0.4886
73.5700 11.0317 0.4842
73.5900 11.0184 0.4867
73.6100 11.0051 0.4836
73.6300 10.9917 0.4855
73.6500 10.9784 0.4823
73.6700 10.9651 0.4831
73.6900 10.9518 0.4821
73.7100 10.9384 0.4815
73.7300 10.9250 0.4821
73.7500 10.9117 0.4800
73.7700 10.8983 0.4806
73.7900 10.8850 0.4789
73.8100 10.8716 0.4805
73.8300 10.8583 0.4766
73.8500 10.8450 0.4798
73.8700 10.8317 0.4766
73.8900 10.8184 0.4775
73.9100 10.8050 0.4762
73.9300 10.7917 0.4773
73.9500 10.7784 0.4738
73.9700 10.7651 0.4751
73.9900 10.7518 0.4749
74.0100 10.7384 0.4721
74.0300 10.7251 0.4749
74.0500 10.7117 0.4709
74.0700 10.6984 0.4727
74.0900 10.6850 0.4699
74.1100 10.6716 0.4732
74.1300 10.6583 0.4679
74.1500 10.6450 0.4720
74.1700 10.6317 0.4675
74.1900 10.6183 0.4697
74.2100 10.6050 0.4673
74.2300 10.5917 0.4692
74.2500 10.5784 0.4655
74.2700 10.5650 0.4674
74.2900 10.5517 0.4664
74.3100 10.5384 0.4641
74.3300 10.5251 0.4656
74.3500 10.5117 0.4639
74.3700 10.4984 0.4638
74.3900 10.4850 0.4628
74.4100 10.4717 0.4634
74.4300 10.4584 0.4613
74.4500 10.4450 0.4631
74.4700 10.4317 0.4602
74.4900 10.4184 0.4614
74.5100 10.4050 0.4593
74.5300 10.3917 0.4610
74.5500 10.3783 0.4570
74.5700 10.3650 0.4601
74.5900 10.3517 0.4568
74.6100 10.3384 0.4579
74.6300 10.3250 0.4557
74.6500 10.3117 0.4573
74.6700 10.2984 0.4549
74.6900 10.2851 0.4553
74.7100 10.2718 0.4552
74.7300 10.2584 0.4533
74.7500 10.2450 0.4544
74.7700 10.2317 0.4521
74.7900 10.2184 0.4532
74.8100 10.2050 0.4505
74.8300 10.1916 0.4534
74.8500 10.1783 0.4475
74.8700 10.1650 0.4521
74.8900 10.1517 0.4479
74.9100 10.1383 0.4497
74.9300 10.1250 0.4472
74.9500 10.1117 0.4488
74.9700 10.0983 0.4464
74.9900 10.0850 0.4474
75.0100 10.0717 0.4467
75.0300 10.0584 0.4448
75.0500 10.0451 0.4459
75.0700 10.0318 0.4442
75.0900 10.0184 0.4444
75.1100 10.0051 0.4424
75.1300 9.9918 0.4437
75.1500 9.9784 0.4407
75.1700 9.9650 0.4434
75.1900 9.9517 0.4397
75.2100 9.9383 0.4423
75.2300 9.9250 0.4374
75.2500 9.9116 0.4414
75.2700 9.8983 0.4374
75.2900 9.8849 0.4397
75.3100 9.8717 0.4368
75.3300 9.8584 0.4373
75.3500 9.8450 0.4360
75.3700 9.8317 0.4371
75.3900 9.8184 0.4346
75.4100 9.8051 0.4348
75.4300 9.7918 0.4353
75.4500 9.7784 0.4327
75.4700 9.7650 0.4345
75.4900 9.7517 0.4314
75.5100 9.7384 0.4332
75.5300 9.7250 0.4300
75.5500 9.7116 0.4334
75.5700 9.6983 0.4281
75.5900 9.6850 0.4315
75.6100 9.6717 0.4280
75.6300 9.6583 0.4296
75.6500 9.6450 0.4268
75.6700 9.6317 0.4295
75.6900 9.6184 0.4252
75.7100 9.6050 0.4266
75.7300 9.5917 0.4268
75.7500 9.5784 0.4254
75.7700 9.5651 0.4247
75.7900 9.5518 0.4237
75.8100 9.5384 0.4247
75.8300 9.5251 0.4212
75.8500 9.5117 0.4247
75.8700 9.4984 0.4195
75.8900 9.4850 0.4227
75.9100 9.4716 0.4195
75.9300 9.4583 0.4213
75.9500 9.4450 0.4181
75.9700 9.4317 0.4214
75.9900 9.4183 0.4166
76.0100 9.4050 0.4188
76.0300 9.3917 0.4173
76.0500 9.3784 0.4170
76.0700 9.3651 0.4162
76.0900 9.3517 0.4162
76.1100 9.3384 0.4155
76.1300 9.3251 0.4137
76.1500 9.3118 0.4158
76.1700 9.2984 0.4124
76.1900 9.2850 0.4147
76.2100 9.2717 0.4115
76.2300 9.2584 0.4127
76.2500 9.2450 0.4100
76.2700 9.2317 0.4132
76.2900 9.2183 0.4078
76.3100 9.2050 0.4109
76.3300 9.1917 0.4077
76.3500 9.1783 0.4090
76.3700 9.1650 0.4070
76.3900 9.1517 0.4081
76.4100 9.1384 0.4056
76.4300 9.1250 0.4059
76.4500 9.1117 0.4058
76.4700 9.0984 0.4044
76.4900 9.0851 0.4051
76.5100 9.0717 0.4024
76.5300 9.0584 0.4043
76.5500 9.0450 0.4006
76.5700 9.0317 0.4043
76.5900 9.0184 0.3995
76.6100 9.0051 0.4020
76.6300 8.9917 0.3990
76.6500 8.9783 0.4008
76.6700 8.9650 0.3979
76.6900 8.9517 0.4003
76.7100 8.9383 0.3973
76.7300 8.9250 0.3974
76.7500 8.9117 0.3978
76.7700 8.8984 0.3954
76.7900 8.8850 0.3974
76.8100 8.8717 0.3947
76.8300 8.8584 0.3966
76.8500 8.8451 0.3916
76.8700 8.8317 0.3959
76.8900 8.8184 0.3913
76.9100 8.8050 0.3943
76.9300 8.7917 0.3903
76.9500 8.7784 0.3925
76.9700 8.7650 0.3899
76.9900 8.7517 0.3917
77.0100 8.7383 0.3890
77.0300 8.7250 0.3889
77.0500 8.7117 0.3893
77.0700 8.6983 0.3868
77.0900 8.6850 0.3882
77.1100 8.6717 0.3855
77.1300 8.6584 0.3878
77.1500 8.6450 0.3833
77.1700 8.6317 0.3869
77.1900 8.6184 0.3829
77.2100 8.6051 0.3846
77.2300 8.5918 0.3823
77.2500 8.5784 0.3832
77.2700 8.5650 0.3808
77.2900 8.5517 0.3832
77.3100 8.5384 0.3792
77.3300 8.5250 0.3815
77.3500 8.5117 0.3790
77.3700 8.4983 0.3797
77.3900 8.4850 0.3775
77.4100 8.4717 0.3780
77.4300 8.4583 0.3777
77.4500 8.4450 0.3754
77.4700 8.4317 0.3777
77.4900 8.4184 0.3743
77.5100 8.4051 0.3755
77.5300 8.3917 0.3736
77.5500 8.3784 0.3752
77.5700 8.3651 0.3707
77.5900 8.3518 0.3750
77.6100 8.3384 0.3701
77.6300 8.3250 0.3729
77.6500 8.3117 0.3694
77.6700 8.2984 0.3708
77.6900 8.2850 0.3685
77.7100 8.2716 0.3697
77.7300 8.2583 0.3688
77.7500 8.2450 0.3668
77.7700 8.2317 0.3689
77.7900 8.2183 0.3646
77.8100 8.2050 0.3677
77.8300 8.1917 0.3639
77.8500 8.1784 0.3671
77.8700 8.1650 0.3619
77.8900 8.1517 0.3660
77.9100 8.1384 0.3617
77.9300 8.1251 0.3643
77.9500 8.1117 0.3607
77.9700 8.0984 0.3625
77.9900 8.0850 0.3606
78.0100 8.0717 0.3603
78.0300 8.0584 0.3600
78.0500 8.0451 0.3585
78.0700 8.0317 0.3602
78.0900 8.0183 0.3568
78.1100 8.0050 0.3581
78.1300 7.9917 0.3569
78.1500 7.9783 0.3573
78.1700 7.9650 0.3545
78.1900 7.9517 0.3568
78.2100 7.9384 0.3539
78.2300 7.9251 0.3543
78.2500 7.9117 0.3534
78.2700 7.8984 0.3540
78.2900 7.8851 0.3519
78.3100 7.8717 0.3523
78.3300 7.8584 0.3509
78.3500 7.8450 0.3507
78.3700 7.8317 0.3502
78.3900 7.8184 0.3489
78.4100 7.8051 0.3492
78.4300 7.7917 0.3473
78.4500 7.7783 0.3491
78.4700 7.7650 0.3451
78.4900 7.7517 0.3486
78.5100 7.7384 0.3442
78.5300 7.7250 0.3471
78.5500 7.7117 0.3428
78.5700 7.6984 0.3460
78.5900 7.6850 0.3415
78.6100 7.6717 0.3447
78.6300 7.6584 0.3415
78.6500 7.6451 0.3426
78.6700 7.6318 0.3411
78.6900 7.6184 0.3402
78.7100 7.6051 0.3411
78.7300 7.5917 0.3376
78.7500 7.5784 0.3415
78.7700 7.5650 0.3350
78.7900 7.5517 0.3411
78.8100 7.5383 0.3344
78.8300 7.5250 0.3388
78.8500 7.5117 0.3339
78.8700 7.4983 0.3368
78.8900 7.4850 0.3331
78.9100 7.4716 0.3349
78.9300 7.4583 0.3332
78.9500 7.4450 0.3325
78.9700 7.4317 0.3328
78.9900 7.4184 0.3313
79.0100 7.4051 0.3317
79.0300 7.3918 0.3289
79.0500 7.3784 0.3318
79.0700 7.3650 0.3269
79.0900 7.3517 0.3309
79.1100 7.3384 0.3265
79.1300 7.3251 0.3285
79.1500 7.3117 0.3264
79.1700 7.2983 0.3277
79.1900 7.2850 0.3247
79.2100 7.2717 0.3264
79.2300 7.2583 0.3240
79.2500 7.2450 0.3249
79.2700 7.2316 0.3232
79.2900 7.2183 0.3241
79.3100 7.2050 0.3219
79.3300 7.1917 0.3221
79.3500 7.1784 0.3219
79.3700 7.1651 0.3210
79.3900 7.1518 0.3212
79.4100 7.1384 0.3186
79.4300 7.1250 0.3212
79.4500 7.1117 0.3164
79.4700 7.0984 0.3202
79.4900 7.0851 0.3147
79.5100 7.0717 0.3195
79.5300 7.0583 0.3139
79.5500 7.0450 0.3172
79.5700 7.0317 0.3131
79.5900 7.0183 0.3169
79.6100 7.0050 0.3117
79.6300 6.9917 0.3145
79.6500 6.9784 0.3123
79.6700 6.9650 0.3109
79.6900 6.9517 0.3125
79.7100 6.9384 0.3094
79.7300 6.9251 0.3122
79.7500 6.9118 0.3073
79.7700 6.8984 0.3109
79.7900 6.8851 0.3059
79.8100 6.8718 0.3095
79.8300 6.8585 0.3057
79.8500 6.8451 0.3072
79.8700 6.8317 0.3046
79.8900 6.8183 0.3068
79.9100 6.8050 0.3034
79.9300 6.7917 0.3041
79.9500 6.7784 0.3043
79.9700 6.7650 0.3021
79.9900 6.7517 0.3031
80.0100 6.7384 0.3013
80.0300 6.7250 0.3024
80.0500 6.7117 0.2993
80.0700 6.6984 0.3016
80.0900 6.6850 0.2983
80.1100 6.6717 0.3004
80.1300 6.6584 0.2978
80.1500 6.6450 0.2987
80.1700 6.6317 0.2961
80.1900 6.6184 0.2975
80.2100 6.6051 0.2946
80.2300 6.5917 0.2961
80.2500 6.5783 0.2942
80.2700 6.5650 0.2946
80.2900 6.5517 0.2927
80.3100 6.5383 0.2931
80.3300 6.5250 0.2925
80.3500 6.5116 0.2908
80.3700 6.4983 0.2926
80.3900 6.4850 0.2888
80.4100 6.4717 0.2910
80.4300 6.4583 0.2878
80.4500 6.4451 0.2904
80.4700 6.4318 0.2850
80.4900 6.4184 0.2904
80.5100 6.4051 0.2841
80.5300 6.3917 0.2882
80.5500 6.3784 0.2833
80.5700 6.3651 0.2864
80.5900 6.3517 0.2830
80.6100 6.3383 0.2848
80.6300 6.3250 0.2824
80.6500 6.3117 0.2816
80.6700 6.2984 0.2832
80.6900 6.2850 0.2794
80.7100 6.2716 0.2818
80.7300 6.2583 0.2783
80.7500 6.2450 0.2813
80.7700 6.2317 0.2760
80.7900 6.2183 0.2807
80.8100 6.2050 0.2759
80.8300 6.1918 0.2783
80.8500 6.1784 0.2749
80.8700 6.1651 0.2772
80.8900 6.1517 0.2743
80.9100 6.1384 0.2747
80.9300 6.1251 0.2736
80.9500 6.1117 0.2729
80.9700 6.0984 0.2742
80.9900 6.0850 0.2710
81.0100 6.0717 0.2724
81.0300 6.0583 0.2697
81.0500 6.0450 0.2717
81.0700 6.0316 0.2683
81.0900 6.0184 0.2710
81.1100 6.0051 0.2674
81.1300 5.9917 0.2694
81.1500 5.9784 0.2665
81.1700 5.9651 0.2686
81.1900 5.9518 0.2645
81.2100 5.9384 0.2674
81.2300 5.9251 0.2638
81.2500 5.9117 0.2659
81.2700 5.8984 0.2628
81.2900 5.8851 0.2636
81.3100 5.8717 0.2627
81.3300 5.8583 0.2616
81.3500 5.8450 0.2630
81.3700 5.8316 0.2593
81.3900 5.8183 0.2619
81.4100 5.8050 0.2579
81.4300 5.7916 0.2611
81.4500 5.7783 0.2573
81.4700 5.7650 0.2600
81.4900 5.7517 0.2552
81.5100 5.7384 0.2585
81.5300 5.7251 0.2552
81.5500 5.7118 0.2559
81.5700 5.6984 0.2547
81.5900 5.6851 0.2544
81.6100 5.6717 0.2545
81.6300 5.6584 0.2518
81.6500 5.6450 0.2546
81.6700 5.6317 0.2491
81.6900 5.6183 0.2544
81.7100 5.6050 0.2476
81.7300 5.5917 0.2520
81.7500 5.5783 0.2470
81.7700 5.5650 0.2508
81.7900 5.5516 0.2464
81.8100 5.5383 0.2492
81.8300 5.5250 0.2459
81.8500 5.5117 0.2469
81.8700 5.4984 0.2453
81.8900 5.4851 0.2457
81.9100 5.4718 0.2446
81.9300 5.4584 0.2432
81.9500 5.4451 0.2447
81.9700 5.4317 0.2412
81.9900 5.4184 0.2446
82.0100 5.4051 0.2398
82.0300 5.3917 0.2424
82.0500 5.3783 0.2390
82.0700 5.3650 0.2414
82.0900 5.3517 0.2373
82.1100 5.3383 0.2406
82.1300 5.3250 0.2359
82.1500 5.3116 0.2390
82.1700 5.2983 0.2348
82.1900 5.2850 0.2380
82.2100 5.2717 0.2342
82.2300 5.2584 0.2360
82.2500 5.2451 0.2350
82.2700 5.2318 0.2330
82.2900 5.2184 0.2337
82.3100 5.2051 0.2322
82.3300 5.1917 0.2326
82.3500 5.1784 0.2298
82.3700 5.1651 0.2320
82.3900 5.1517 0.2278
82.4100 5.1383 0.2320
82.4300 5.1250 0.2266
82.4500 5.1117 0.2295
82.4700 5.0983 0.2260
82.4900 5.0850 0.2293
82.5100 5.0716 0.2238
82.5300 5.0583 0.2279
82.5500 5.0450 0.2244
82.5700 5.0317 0.2260
82.5900 5.0184 0.2236
82.6100 5.0051 0.2248
82.6300 4.9918 0.2236
82.6500 4.9785 0.2223
82.6700 4.9651 0.2235
82.6900 4.9517 0.2210
82.7100 4.9384 0.2222
82.7300 4.9251 0.2197
82.7500 4.9117 0.2212
82.7700 4.8983 0.2188
82.7900 4.8850 0.2215
82.8100 4.8717 0.2180
82.8300 4.8583 0.2207
82.8500 4.8450 0.2199
82.8700 4.8316 0.2197
82.8900 4.8183 0.2189
82.9100 4.8050 0.2185
82.9300 4.7917 0.2196
82.9500 4.7784 0.2185
82.9700 4.7650 0.2200
82.9900 4.7518 0.2162
83.0100 4.7384 0.2179
83.0300 4.7251 0.2145
83.0500 4.7118 0.2165
83.0700 4.6984 0.2121
83.0900 4.6851 0.2151
83.1100 4.6717 0.2112
83.1300 4.6583 0.2140
83.1500 4.6449 0.2106
83.1700 4.6316 0.2126
83.1900 4.6183 0.2080
83.2100 4.6050 0.2118
83.2300 4.5916 0.2064
83.2500 4.5783 0.2093
83.2700 4.5651 0.2060
83.2900 4.5517 0.2069
83.3100 4.5384 0.2055
83.3300 4.5251 0.2054
83.3500 4.5118 0.2048
83.3700 4.4985 0.2020
83.3900 4.4851 0.2032
83.4100 4.4717 0.2007
83.4300 4.4584 0.2020
83.4500 4.4450 0.1985
83.4700 4.4317 0.2006
83.4900 4.4183 0.1966
83.5100 4.4050 0.1991
83.5300 4.3917 0.1950
83.5500 4.3784 0.1961
83.5700 4.3650 0.1953
83.5900 4.3517 0.1938
83.6100 4.3383 0.1933
83.6300 4.3250 0.1923
83.6500 4.3117 0.1930
83.6700 4.2984 0.1895
83.6900 4.2850 0.1923
83.7100 4.2717 0.1881
83.7300 4.2584 0.1902
83.7500 4.2451 0.1868
83.7700 4.2317 0.1888
83.7900 4.2184 0.1850
83.8100 4.2051 0.1880
83.8300 4.1917 0.1831
83.8500 4.1783 0.1866
83.8700 4.1650 0.1835
83.8900 4.1517 0.1837
83.9100 4.1384 0.1822
83.9300 4.1250 0.1821
83.9500 4.1116 0.1815
83.9700 4.0983 0.1805
83.9900 4.0850 0.1806
84.0100 4.0717 0.1790
84.0300 4.0583 0.1788
84.0500 4.0450 0.1779
84.0700 4.0317 0.1780
84.0900 4.0184 0.1753
84.1100 4.0051 0.1776
84.1300 3.9917 0.1736
84.1500 3.9784 0.1762
84.1700 3.9651 0.1720
84.1900 3.9517 0.1745
84.2100 3.9384 0.1704
84.2300 3.9250 0.1734
84.2500 3.9117 0.1694
84.2700 3.8983 0.1708
84.2900 3.8850 0.1688
84.3100 3.8716 0.1693
84.3300 3.8583 0.1676
84.3500 3.8450 0.1678
84.3700 3.8317 0.1671
84.3900 3.8184 0.1644
84.4100 3.8050 0.1674
84.4300 3.7917 0.1627
84.4500 3.7784 0.1663
84.4700 3.7651 0.1616
84.4900 3.7517 0.1650
84.5100 3.7384 0.1604
84.5300 3.7251 0.1619
84.5500 3.7117 0.1592
84.5700 3.6983 0.1600
84.5900 3.6850 0.1591
84.6100 3.6716 0.1586
84.6300 3.6583 0.1571
84.6500 3.6450 0.1573
84.6700 3.6317 0.1566
84.6900 3.6183 0.1553
84.7100 3.6050 0.1554
84.7300 3.5917 0.1536
84.7500 3.5784 0.1542
84.7700 3.5651 0.1522
84.7900 3.5518 0.1528
84.8100 3.5385 0.1502
84.8300 3.5251 0.1514
84.8500 3.5117 0.1487
84.8700 3.4984 0.1502
84.8900 3.4850 0.1477
84.9100 3.4717 0.1478
84.9300 3.4583 0.1458
84.9500 3.4450 0.1472
84.9700 3.4317 0.1444
84.9900 3.4184 0.1446
85.0100 3.4050 0.1435
85.0300 3.3917 0.1424
85.0500 3.3783 0.1421
85.0700 3.3650 0.1408
85.0900 3.3517 0.1422
85.1100 3.3384 0.1383
85.1300 3.3250 0.1411
85.1500 3.3117 0.1368
85.1700 3.2984 0.1396
85.1900 3.2851 0.1347
85.2100 3.2717 0.1386
85.2300 3.2584 0.1334
85.2500 3.2451 0.1371
85.2700 3.2318 0.1321
85.2900 3.2184 0.1349
85.3100 3.2050 0.1321
85.3300 3.1917 0.1324
85.3500 3.1784 0.1302
85.3700 3.1650 0.1303
85.3900 3.1516 0.1306
85.4100 3.1383 0.1277
85.4300 3.1250 0.1292
85.4500 3.1117 0.1265
85.4700 3.0984 0.1278
85.4900 3.0850 0.1249
85.5100 3.0717 0.1271
85.5300 3.0584 0.1234
85.5500 3.0451 0.1242
85.5700 3.0317 0.1231
85.5900 3.0183 0.1222
85.6100 3.0050 0.1216
85.6300 2.9917 0.1209
85.6500 2.9784 0.1201
85.6700 2.9650 0.1192
85.6900 2.9517 0.1195
85.7100 2.9384 0.1162
85.7300 2.9250 0.1186
85.7500 2.9117 0.1152
85.7700 2.8983 0.1169
85.7900 2.8850 0.1131
85.8100 2.8717 0.1157
85.8300 2.8584 0.1119
85.8500 2.8450 0.1138
85.8700 2.8317 0.1111
85.8900 2.8184 0.1122
85.9100 2.8051 0.1086
85.9300 2.7918 0.1111
85.9500 2.7784 0.1083
85.9700 2.7651 0.1085
85.9900 2.7517 0.1067
86.0100 2.7384 0.1060
86.0300 2.7250 0.1064
86.0500 2.7117 0.1043
86.0700 2.6984 0.1051
86.0900 2.6850 0.1017
86.1100 2.6716 0.1045
86.1300 2.6583 0.0997
86.1500 2.6450 0.1031
86.1700 2.6317 0.0985
86.1900 2.6184 0.1007
86.2100 2.6050 0.0978
86.2300 2.5917 0.0993
86.2500 2.5784 0.0968
86.2700 2.5651 0.0966
86.2900 2.5517 0.0958
86.3100 2.5384 0.0945
86.3300 2.5251 0.0953
86.3500 2.5117 0.0922
86.3700 2.4984 0.0944
86.3900 2.4850 0.0892
86.4100 2.4717 0.0942
86.4300 2.4583 0.0871
86.4500 2.4450 0.0921
86.4700 2.4316 0.0866
86.4900 2.4183 0.0902
86.5100 2.4050 0.0849
86.5300 2.3917 0.0883
86.5500 2.3784 0.0841
86.5700 2.3650 0.0867
86.5900 2.3517 0.0837
86.6100 2.3384 0.0841
86.6300 2.3251 0.0823
86.6500 2.3118 0.0814
86.6700 2.2984 0.0820
86.6900 2.2850 0.0791
86.7100 2.2717 0.0809
86.7300 2.2584 0.0772
86.7500 2.2450 0.0798
86.7700 2.2317 0.0758
86.7900 2.2184 0.0780
86.8100 2.2050 0.0744
86.8300 2.1917 0.0769
86.8500 2.1783 0.0723
86.8700 2.1650 0.0748
86.8900 2.1517 0.0718
86.9100 2.1384 0.0733
86.9300 2.1250 0.0695
86.9500 2.1117 0.0726
86.9700 2.0984 0.0689
86.9900 2.0851 0.0687
87.0100 2.0717 0.0676
87.0300 2.0584 0.0676
87.0500 2.0451 0.0661
87.0700 2.0318 0.0656
87.0900 2.0184 0.0648
87.1100 2.0050 0.0634
87.1300 1.9916 0.0648
87.1500 1.9784 0.0613
87.1700 1.9651 0.0625
87.1900 1.9517 0.0599
87.2100 1.9383 0.0615
87.2300 1.9250 0.0577
87.2500 1.9117 0.0600
87.2700 1.8984 0.0571
87.2900 1.8850 0.0578
87.3100 1.8717 0.0559
87.3300 1.8584 0.0553
87.3500 1.8451 0.0546
87.3700 1.8317 0.0538
87.3900 1.8184 0.0539
87.4100 1.8051 0.0504
87.4300 1.7917 0.0533
87.4500 1.7784 0.0490
87.4700 1.7650 0.0509
87.4900 1.7517 0.0480
87.5100 1.7383 0.0491
87.5300 1.7250 0.0452
87.5500 1.7117 0.0482
87.5700 1.6983 0.0443
87.5900 1.6850 0.0453
87.6100 1.6717 0.0438
87.6300 1.6584 0.0431
87.6500 1.6450 0.0418
87.6700 1.6317 0.0408
87.6900 1.6184 0.0408
87.7100 1.6051 0.0376
87.7300 1.5917 0.0402
87.7500 1.5784 0.0366
87.7700 1.5651 0.0378
87.7900 1.5517 0.0350
87.8100 1.5384 0.0362
87.8300 1.5250 0.0331
87.8500 1.5117 0.0353
87.8700 1.4984 0.0317
87.8900 1.4850 0.0324
87.9100 1.4717 0.0307
87.9300 1.4583 0.0308
87.9500 1.4450 0.0280
87.9700 1.4317 0.0287
87.9900 1.4183 0.0279
88.0100 1.4050 0.0253
88.0300 1.3917 0.0268
88.0500 1.3784 0.0235
88.0700 1.3651 0.0248
88.0900 1.3518 0.0217
88.1100 1.3384 0.0236
88.1300 1.3251 0.0194
88.1500 1.3117 0.0217
88.1700 1.2984 0.0179
88.1900 1.2850 0.0196
88.2100 1.2716 0.0162
88.2300 1.2583 0.0186
88.2500 1.2450 0.0130
88.2700 1.2316 0.0170
88.2900 1.2183 0.0134
88.3100 1.2050 0.0130
88.3300 1.1917 0.0127
88.3500 1.1784 0.0107
88.3700 1.1651 0.0108
88.3900 1.1517 0.0085
88.4100 1.1384 0.0100
88.4300 1.1251 0.0059
88.4500 1.1118 0.0086
88.4700 1.0984 0.0041
88.4900 1.0850 0.0070
88.5100 1.0717 0.0024
88.5300 1.0584 0.0048
88.5500 1.0450 0.0005
88.5700 1.0316 0.0038
88.5900 1.0183 -0.0003
88.6100 1.0050 0.0001
88.6300 0.9917 -0.0010
88.6500 0.9783 -0.0019
88.6700 0.9650 -0.0023
88.6900 0.9517 -0.0043
88.7100 0.9384 -0.0032
88.7300 0.9250 -0.0062
88.7500 0.9117 -0.0056
88.7700 0.8984 -0.0077
88.7900 0.8851 -0.0072
88.8100 0.8718 -0.0098
88.8300 0.8584 -0.0083
88.8500 0.8450 -0.0120
88.8700 0.8317 -0.0108
88.8900 0.8184 -0.0133
88.9100 0.8050 -0.0133
88.9300 0.7917 -0.0136
88.9500 0.7783 -0.0151
88.9700 0.7650 -0.0155
88.9900 0.7517 -0.0135
89.0100 0.7383 -0.0089
89.0300 0.7250 -0.0103
89.0500 0.7117 -0.0091
89.0700 0.6984 -0.0128
89.0900 0.6850 -0.0120
89.1100 0.6717 -0.0156
89.1300 0.6584 -0.0130
89.1500 0.6451 -0.0193
89.1700 0.6318 -0.0154
89.1900 0.6184 -0.0206
89.2100 0.6050 -0.0182
89.2300 0.5917 -0.0220
89.2500 0.5784 -0.0207
89.2700 0.5650 -0.0242
89.2900 0.5517 -0.0226
89.3100 0.5383 -0.0245
89.3300 0.5250 -0.0268
89.3500 0.5117 -0.0247
89.3700 0.4983 -0.0283
89.3900 0.4850 -0.0266
89.4100 0.4717 -0.0306
89.4300 0.4583 -0.0265
89.4500 0.4450 -0.0324
89.4700 0.4317 -0.0285
89.4900 0.4184 -0.0330
89.5100 0.4051 -0.0309
89.5300 0.3917 -0.0334
89.5500 0.3784 -0.0320
89.5700 0.3651 -0.0333
89.5900 0.3518 -0.0341
89.6100 0.3384 -0.0332
89.6300 0.3251 -0.0356
89.6500 0.3117 -0.0326
89.6700 0.2983 -0.0350
89.6900 0.2850 -0.0336
89.7100 0.2716 -0.0354
89.7300 0.2583 -0.0324
89.7500 0.2449 -0.0358
89.7700 0.2317 -0.0328
89.7900 0.2184 -0.0346
89.8100 0.2050 -0.0328
89.8300 0.1917 -0.0356
89.8500 0.1784 -0.0324
89.8700 0.1651 -0.0357
89.8900 0.1518 -0.0327
89.9100 0.1384 -0.0351
89.9300 0.1250 -0.0341
89.9500 0.1117 -0.0346
89.9700 0.0984 -0.0344
89.9900 0.0850 -0.0340
90.0100 0.0716 -0.0350
90.0300 0.0583 -0.0321
90.0500 0.0450 -0.0364
90.0700 0.0317 -0.0325
90.0900 0.0183 -0.0353
90.1100 0.0050 -0.0315
90.1180 -0.0002 -0.0307
