Raw Data
Time Displacement Force
(s) (mm) (N)
0.0000 0.0000 -0.0214
0.0200 0.0001 -0.0203
0.0400 0.0018 -0.0099
0.0600 0.0089 -0.0123
0.0800 0.0204 -0.0217
0.1000 0.0327 -0.0209
0.1200 0.0452 -0.0196
0.1400 0.0586 -0.0173
0.1600 0.0728 -0.0205
0.1800 0.0872 -0.0175
0.2000 0.1012 -0.0189
0.2200 0.1148 -0.0159
0.2400 0.1282 -0.0144
0.2600 0.1415 -0.0127
0.2800 0.1548 -0.0134
0.3000 0.1681 -0.0098
0.3200 0.1815 -0.0100
0.3400 0.1948 -0.0065
0.3600 0.2081 -0.0062
0.3800 0.2214 -0.0027
0.4000 0.2348 -0.0029
0.4200 0.2481 0.0008
0.4400 0.2615 0.0013
0.4600 0.2748 0.0020
0.4800 0.2881 0.0073
0.5000 0.3015 0.0049
0.5200 0.3149 0.0115
0.5400 0.3282 0.0101
0.5600 0.3415 0.0164
0.5800 0.3549 0.0133
0.6000 0.3682 0.0206
0.6200 0.3816 0.0180
0.6400 0.3949 0.0233
0.6600 0.4081 0.0231
0.6800 0.4214 0.0276
0.7000 0.4348 0.0268
0.7200 0.4481 0.0315
0.7400 0.4614 0.0324
0.7600 0.4748 0.0334
0.7800 0.4881 0.0373
0.8000 0.5015 0.0368
0.8200 0.5148 0.0417
0.8400 0.5282 0.0418
0.8600 0.5416 0.0461
0.8800 0.5549 0.0460
0.9000 0.5682 0.0507
0.9200 0.5815 0.0507
0.9400 0.5949 0.0543
0.9600 0.6082 0.0551
0.9800 0.6215 0.0595
1.0000 0.6348 0.0586
1.0200 0.6481 0.0638
1.0400 0.6614 0.0635
1.0600 0.6748 0.0664
1.0800 0.6881 0.0688
1.1000 0.7014 0.0709
1.1200 0.7147 0.0721
1.1400 0.7281 0.0756
1.1600 0.7415 0.0766
1.1800 0.7548 0.0790
1.2000 0.7681 0.0816
1.2200 0.7815 0.0828
1.2400 0.7948 0.0856
1.2600 0.8082 0.0863
1.2800 0.8215 0.0911
1.3000 0.8348 0.0895
1.3200 0.8482 0.0955
1.3400 0.8616 0.0940
1.3600 0.8749 0.0983
1.3800 0.8882 0.0990
1.4000 0.9015 0.1025
1.4200 0.9149 0.1029
1.4400 0.9282 0.1059
1.4600 0.9415 0.1082
1.4800 0.9547 0.1086
1.5000 0.9681 0.1128
1.5200 0.9814 0.1125
1.5400 0.9947 0.1155
1.5600 1.0081 0.1167
1.5800 1.0214 0.1206
1.6000 1.0348 0.1192
1.6200 1.0482 0.1242
1.6400 1.0615 0.1239
1.6600 1.0749 0.1274
1.6800 1.0882 0.1285
1.7000 1.1016 0.1311
1.7200 1.1149 0.1327
1.7400 1.1282 0.1343
1.7600 1.1415 0.1371
1.7800 1.1548 0.1379
1.8000 1.1682 0.1406
1.8200 1.1814 0.1427
1.8400 1.1947 0.1432
1.8600 1.2081 0.1455
1.8800 1.2214 0.1481
1.9000 1.2348 0.1484
1.9200 1.2481 0.1520
1.9400 1.2615 0.1527
1.9600 1.2749 0.1550
1.9800 1.2882 0.1561
2.0000 1.3016 0.1594
2.0200 1.3149 0.1603
2.0400 1.3282 0.1628
2.0600 1.3416 0.1631
2.0800 1.3549 0.1661
2.1000 1.3682 0.1671
2.1200 1.3815 0.1701
2.1400 1.3948 0.1706
2.1600 1.4082 0.1722
2.1800 1.4214 0.1758
2.2000 1.4347 0.1749
2.2200 1.4481 0.1798
2.2400 1.4615 0.1786
2.2600 1.4748 0.1825
2.2800 1.4881 0.1814
2.3000 1.5015 0.1868
2.3200 1.5149 0.1846
2.3400 1.5283 0.1897
2.3600 1.5416 0.1897
2.3800 1.5549 0.1914
2.4000 1.5682 0.1931
2.4200 1.5816 0.1950
2.4400 1.5949 0.1973
2.4600 1.6082 0.1971
2.4800 1.6214 0.2018
2.5000 1.6348 0.1996
2.5200 1.6481 0.2052
2.5400 1.6614 0.2043
2.5600 1.6747 0.2079
2.5800 1.6881 0.2072
2.6000 1.7015 0.2116
2.6200 1.7148 0.2101
2.6400 1.7281 0.2145
2.6600 1.7415 0.2150
2.6800 1.7549 0.2167
2.7000 1.7683 0.2183
2.7200 1.7815 0.2201
2.7400 1.7948 0.2225
2.7600 1.8082 0.2220
2.7800 1.8216 0.2268
2.8000 1.8349 0.2252
2.8200 1.8482 0.2294
2.8400 1.8615 0.2297
2.8600 1.8748 0.2320
2.8800 1.8882 0.2328
2.9000 1.9015 0.2361
2.9200 1.9148 0.2354
2.9400 1.9281 0.2388
2.9600 1.9415 0.2391
2.9800 1.9548 0.2414
3.0000 1.9681 0.2424
3.0200 1.9815 0.2455
3.0400 1.9949 0.2453
3.0600 2.0082 0.2470
3.0800 2.0215 0.2499
3.1000 2.0348 0.2500
3.1200 2.0481 0.2533
3.1400 2.0615 0.2538
3.1600 2.0749 0.2561
3.1800 2.0882 0.2564
3.2000 2.1015 0.2605
3.2200 2.1148 0.2585
3.2400 2.1282 0.2637
3.2600 2.1415 0.2621
3.2800 2.1548 0.2662
3.3000 2.1681 0.2647
3.3200 2.1815 0.2698
3.3400 2.1948 0.2689
3.3600 2.2081 0.2699
3.3800 2.2215 0.2736
3.4000 2.2348 0.2730
3.4200 2.2482 0.2753
3.4400 2.2615 0.2765
3.4600 2.2748 0.2788
3.4800 2.2882 0.2789
3.5000 2.3015 0.2834
3.5200 2.3149 0.2810
3.5400 2.3282 0.2862
3.5600 2.3415 0.2847
3.5800 2.3548 0.2882
3.6000 2.3682 0.2863
3.6200 2.3815 0.2920
3.6400 2.3948 0.2911
3.6600 2.4081 0.2935
3.6800 2.4214 0.2946
3.7000 2.4348 0.2953
3.7200 2.4481 0.2976
3.7400 2.4615 0.2992
3.7600 2.4749 0.3000
3.7800 2.4883 0.2998
3.8000 2.5016 0.3041
3.8200 2.5149 0.3027
3.8400 2.5283 0.3069
3.8600 2.5416 0.3064
3.8800 2.5549 0.3106
3.9000 2.5681 0.3075
3.9200 2.5814 0.3146
3.9400 2.5948 0.3113
3.9600 2.6082 0.3148
3.9800 2.6215 0.3161
4.0000 2.6348 0.3173
4.0200 2.6481 0.3175
4.0400 2.6615 0.3208
4.0600 2.6748 0.3207
4.0800 2.6882 0.3224
4.1000 2.7015 0.3251
4.1200 2.7149 0.3247
4.1400 2.7282 0.3269
4.1600 2.7415 0.3280
4.1800 2.7548 0.3309
4.2000 2.7682 0.3296
4.2200 2.7816 0.3334
4.2400 2.7949 0.3320
4.2600 2.8082 0.3362
4.2800 2.8215 0.3359
4.3000 2.8348 0.3395
4.3200 2.8482 0.3376
4.3400 2.8615 0.3422
4.3600 2.8748 0.3413
4.3800 2.8881 0.3432
4.4000 2.9015 0.3454
4.4200 2.9148 0.3456
4.4400 2.9282 0.3480
4.4600 2.9415 0.3481
4.4800 2.9549 0.3512
4.5000 2.9682 0.3497
4.5200 2.9815 0.3549
4.5400 2.9948 0.3526
4.5600 3.0082 0.3563
4.5800 3.0215 0.3564
4.6000 3.0349 0.3585
4.6200 3.0482 0.3590
4.6400 3.0615 0.3613
4.6600 3.0748 0.3622
4.6800 3.0882 0.3621
4.7000 3.1015 0.3653
4.7200 3.1148 0.3651
4.7400 3.1281 0.3678
4.7600 3.1415 0.3679
4.7800 3.1548 0.3711
4.8000 3.1682 0.3703
4.8200 3.1815 0.3738
4.8400 3.1949 0.3733
4.8600 3.2082 0.3757
4.8800 3.2216 0.3759
4.9000 3.2348 0.3793
4.9200 3.2481 0.3777
4.9400 3.2615 0.3819
4.9600 3.2748 0.3812
4.9800 3.2881 0.3836
5.0000 3.3014 0.3848
5.0200 3.3148 0.3862
5.0400 3.3282 0.3866
5.0600 3.3415 0.3890
5.0800 3.3548 0.3892
5.1000 3.3681 0.3902
5.1200 3.3815 0.3927
5.1400 3.3948 0.3924
5.1600 3.4081 0.3947
5.1800 3.4215 0.3953
5.2000 3.4348 0.3980
5.2200 3.4482 0.3964
5.2400 3.4615 0.4009
5.2600 3.4748 0.3999
5.2800 3.4882 0.4026
5.3000 3.5016 0.4033
5.3200 3.5149 0.4049
5.3400 3.5282 0.4057
5.3600 3.5415 0.4070
5.3800 3.5548 0.4088
5.4000 3.5682 0.4088
5.4200 3.5815 0.4119
5.4400 3.5948 0.4111
5.4600 3.6081 0.4140
5.4800 3.6214 0.4134
5.5000 3.6348 0.4175
5.5200 3.6481 0.4148
5.5400 3.6614 0.4198
5.5600 3.6748 0.4181
5.5800 3.6882 0.4208
5.6000 3.7015 0.4218
5.6200 3.7149 0.4232
5.6400 3.7282 0.4237
5.6600 3.7416 0.4259
5.6800 3.7549 0.4266
5.7000 3.7682 0.4271
5.7200 3.7815 0.4294
5.7400 3.7948 0.4299
5.7600 3.8082 0.4303
5.7800 3.8215 0.4307
5.8000 3.8348 0.4355
5.8200 3.8481 0.4322
5.8400 3.8614 0.4380
5.8600 3.8748 0.4357
5.8800 3.8881 0.4400
5.9000 3.9015 0.4383
5.9200 3.9148 0.4426
5.9400 3.9282 0.4405
5.9600 3.9415 0.4450
5.9800 3.9549 0.4438
6.0000 3.9682 0.4466
6.0200 3.9815 0.4469
6.0400 3.9949 0.4489
6.0600 4.0082 0.4490
6.0800 4.0215 0.4509
6.1000 4.0348 0.4526
6.1200 4.0481 0.4518
6.1400 4.0615 0.4557
6.1600 4.0748 0.4544
6.1800 4.0881 0.4578
6.2000 4.1015 0.4564
6.2200 4.1148 0.4609
6.2400 4.1282 0.4579
6.2600 4.1415 0.4625
6.2800 4.1549 0.4612
6.3000 4.1682 0.4636
6.3200 4.1816 0.4637
6.3400 4.1948 0.4658
6.3600 4.2081 0.4668
6.3800 4.2215 0.4667
6.4000 4.2348 0.4700
6.4200 4.2482 0.4679
6.4400 4.2615 0.4732
6.4600 4.2748 0.4701
6.4800 4.2882 0.4750
6.5000 4.3015 0.4717
6.5200 4.3148 0.4780
6.5400 4.3281 0.4745
6.5600 4.3415 0.4795
6.5800 4.3548 0.4768
6.6000 4.3681 0.4808
6.6200 4.3814 0.4797
6.6400 4.3948 0.4831
6.6600 4.4082 0.4825
6.6800 4.4215 0.4840
6.7000 4.4349 0.4844
6.7200 4.4482 0.4857
6.7400 4.4615 0.4873
6.7600 4.4749 0.4881
6.7800 4.4882 0.4905
6.8000 4.5015 0.4898
6.8200 4.5148 0.4934
6.8400 4.5282 0.4914
6.8600 4.5415 0.4947
6.8800 4.5548 0.4945
6.9000 4.5681 0.4970
6.9200 4.5814 0.4954
6.9400 4.5948 0.4992
6.9600 4.6081 0.4987
6.9800 4.6215 0.5007
7.0000 4.6348 0.5017
7.0200 4.6482 0.5017
7.0400 4.6615 0.5036
7.0600 4.6749 0.5041
7.0800 4.6882 0.5058
7.1000 4.7016 0.5047
7.1200 4.7149 0.5090
7.1400 4.7282 0.5062
7.1600 4.7415 0.5112
7.1800 4.7549 0.5086
7.2000 4.7682 0.5131
7.2200 4.7815 0.5114
7.2400 4.7948 0.5144
7.2600 4.8081 0.5145
7.2800 4.8214 0.5160
7.3000 4.8348 0.5170
7.3200 4.8481 0.5171
7.3400 4.8614 0.5199
7.3600 4.8748 0.5189
7.3800 4.8882 0.5222
7.4000 4.9015 0.5198
7.4200 4.9149 0.5257
7.4400 4.9282 0.5220
7.4600 4.9416 0.5272
7.4800 4.9549 0.5246
7.5000 4.9683 0.5293
7.5200 4.9815 0.5262
7.5400 4.9948 0.5317
7.5600 5.0082 0.5294
7.5800 5.0215 0.5321
7.6000 5.0348 0.5327
7.6200 5.0481 0.5332
7.6400 5.0614 0.5344
7.6600 5.0748 0.5367
7.6800 5.0881 0.5366
7.7000 5.1015 0.5370
7.7200 5.1148 0.5394
7.7400 5.1282 0.5392
7.7600 5.1416 0.5409
7.7800 5.1549 0.5410
7.8000 5.1682 0.5432
7.8200 5.1815 0.5414
7.8400 5.1949 0.5454
7.8600 5.2082 0.5446
7.8800 5.2215 0.5463
7.9000 5.2348 0.5480
7.9200 5.2481 0.5480
7.9400 5.2614 0.5492
7.9600 5.2748 0.5507
7.9800 5.2881 0.5522
8.0000 5.3014 0.5515
8.0200 5.3148 0.5546
8.0400 5.3281 0.5530
8.0600 5.3415 0.5569
8.0800 5.3548 0.5552
8.1000 5.3682 0.5596
8.1200 5.3816 0.5560
8.1400 5.3949 0.5619
8.1600 5.4082 0.5589
8.1800 5.4215 0.5625
8.2000 5.4349 0.5625
8.2200 5.4482 0.5644
8.2400 5.4615 0.5638
8.2600 5.4748 0.5661
8.2800 5.4881 0.5666
8.3000 5.5015 0.5667
8.3200 5.5148 0.5692
8.3400 5.5281 0.5693
8.3600 5.5414 0.5707
8.3800 5.5548 0.5702
8.4000 5.5681 0.5737
8.4200 5.5815 0.5707
8.4400 5.5948 0.5768
8.4600 5.6082 0.5729
8.4800 5.6215 0.5775
8.5000 5.6349 0.5758
8.5200 5.6482 0.5793
8.5400 5.6615 0.5776
8.5600 5.6749 0.5804
8.5800 5.6882 0.5801
8.6000 5.7015 0.5801
8.6200 5.7149 0.5835
8.6400 5.7282 0.5825
8.6600 5.7416 0.5854
8.6800 5.7549 0.5842
8.7000 5.7681 0.5882
8.7200 5.7814 0.5847
8.7400 5.7948 0.5903
8.7600 5.8081 0.5880
8.7800 5.8214 0.5904
8.8000 5.8348 0.5897
8.8200 5.8482 0.5910
8.8400 5.8616 0.5919
8.8600 5.8749 0.5929
8.8800 5.8882 0.5951
8.9000 5.9016 0.5939
8.9200 5.9149 0.5969
8.9400 5.9283 0.5955
8.9600 5.9416 0.5989
8.9800 5.9548 0.5981
9.0000 5.9682 0.6013
9.0200 5.9815 0.5987
9.0400 5.9948 0.6033
9.0600 6.0081 0.6019
9.0800 6.0214 0.6042
9.1000 6.0348 0.6044
9.1200 6.0481 0.6055
9.1400 6.0615 0.6055
9.1600 6.0748 0.6080
9.1800 6.0882 0.6083
9.2000 6.1016 0.6090
9.2200 6.1149 0.6104
9.2400 6.1282 0.6110
9.2600 6.1415 0.6122
9.2800 6.1549 0.6126
9.3000 6.1682 0.6141
9.3200 6.1815 0.6144
9.3400 6.1948 0.6165
9.3600 6.2081 0.6163
9.3800 6.2215 0.6185
9.4000 6.2348 0.6178
9.4200 6.2481 0.6204
9.4400 6.2614 0.6190
9.4600 6.2748 0.6221
9.4800 6.2881 0.6216
9.5000 6.3015 0.6231
9.5200 6.3148 0.6241
9.5400 6.3282 0.6241
9.5600 6.3416 0.6270
9.5800 6.3549 0.6250
9.6000 6.3682 0.6292
9.6200 6.3815 0.6265
9.6400 6.3949 0.6307
9.6600 6.4082 0.6280
9.6800 6.4215 0.6323
9.7000 6.4348 0.6306
9.7200 6.4481 0.6341
9.7400 6.4615 0.6322
9.7600 6.4748 0.6350
9.7800 6.4880 0.6342
9.8000 6.5014 0.6350
9.8200 6.5148 0.6367
9.8400 6.5281 0.6361
9.8600 6.5415 0.6394
9.8800 6.5548 0.6371
9.9000 6.5682 0.6415
9.9200 6.5816 0.6391
9.9400 6.5949 0.6427
9.9600 6.6082 0.6421
9.9800 6.6215 0.6434
10.0000 6.6349 0.6436
10.0200 6.6482 0.6454
10.0400 6.6615 0.6449
10.0600 6.6748 0.6468
10.0800 6.6881 0.6468
10.1000 6.7015 0.6474
10.1200 6.7148 0.6486
10.1400 6.7281 0.6493
10.1600 6.7415 0.6494
10.1800 6.7548 0.6504
10.2000 6.7682 0.6512
10.2200 6.7815 0.6517
10.2400 6.7948 0.6539
10.2600 6.8082 0.6539
10.2800 6.8216 0.6555
10.3000 6.8349 0.6551
10.3200 6.8481 0.6586
10.3400 6.8615 0.6565
10.3600 6.8748 0.6615
10.3800 6.8882 0.6579
10.4000 6.9015 0.6632
10.4200 6.9148 0.6598
10.4400 6.9281 0.6647
10.4600 6.9415 0.6620
10.4800 6.9548 0.6654
10.5000 6.9681 0.6648
10.5200 6.9814 0.6661
10.5400 6.9948 0.6672
10.5600 7.0081 0.6680
10.5800 7.0215 0.6688
10.6000 7.0348 0.6691
10.6200 7.0481 0.6712
10.6400 7.0615 0.6698
10.6600 7.0748 0.6726
10.6800 7.0882 0.6723
10.7000 7.1015 0.6738
10.7200 7.1149 0.6734
10.7400 7.1282 0.6757
10.7600 7.1415 0.6754
10.7800 7.1548 0.6772
10.8000 7.1682 0.6777
10.8200 7.1815 0.6784
10.8400 7.1948 0.6785
10.8600 7.2081 0.6809
10.8800 7.2214 0.6800
10.9000 7.2348 0.6822
10.9200 7.2481 0.6813
10.9400 7.2614 0.6841
10.9600 7.2748 0.6829
10.9800 7.2882 0.6857
11.0000 7.3016 0.6855
11.0200 7.3149 0.6852
11.0400 7.3282 0.6873
11.0600 7.3416 0.6871
11.0800 7.3549 0.6890
11.1000 7.3683 0.6883
11.1200 7.3815 0.6914
11.1400 7.3948 0.6896
11.1600 7.4081 0.6936
11.1800 7.4215 0.6916
11.2000 7.4348 0.6947
11.2200 7.4481 0.6937
11.2400 7.4614 0.6958
11.2600 7.4748 0.6956
11.2800 7.4882 0.6970
11.3000 7.5015 0.6984
11.3200 7.5148 0.6971
11.3400 7.5282 0.7007
11.3600 7.5416 0.6985
11.3800 7.5549 0.7022
11.4000 7.5682 0.7005
11.4200 7.5815 0.7041
11.4400 7.5949 0.7011
11.4600 7.6082 0.7049
11.4800 7.6215 0.7029
11.5000 7.6348 0.7048
11.5200 7.6481 0.7052
11.5400 7.6615 0.7064
11.5600 7.6748 0.7064
11.5800 7.6881 0.7079
11.6000 7.7014 0.7088
11.6200 7.7148 0.7088
11.6400 7.7281 0.7111
11.6600 7.7415 0.7100
11.6800 7.7548 0.7125
11.7000 7.7682 0.7127
11.7200 7.7815 0.7150
11.7400 7.7949 0.7129
11.7600 7.8082 0.7172
11.7800 7.8215 0.7149
11.8000 7.8349 0.7182
11.8200 7.8482 0.7170
11.8400 7.8615 0.7193
11.8600 7.8748 0.7190
11.8800 7.8881 0.7207
11.9000 7.9015 0.7206
11.9200 7.9148 0.7216
11.9400 7.9281 0.7230
11.9600 7.9414 0.7229
11.9800 7.9548 0.7252
12.0000 7.9682 0.7240
12.0200 7.9815 0.7275
12.0400 7.9948 0.7240
12.0600 8.0082 0.7297
12.0800 8.0215 0.7257
12.1000 8.0349 0.7308
12.1200 8.0482 0.7274
12.1400 8.0615 0.7321
12.1600 8.0748 0.7294
12.1800 8.0882 0.7334
12.2000 8.1015 0.7315
12.2200 8.1148 0.7339
12.2400 8.1281 0.7344
12.2600 8.1415 0.7349
12.2800 8.1549 0.7362
12.3000 8.1682 0.7351
12.3200 8.1815 0.7387
12.3400 8.1948 0.7351
12.3600 8.2081 0.7402
12.3800 8.2215 0.7364
12.4000 8.2348 0.7409
12.4200 8.2481 0.7376
12.4400 8.2615 0.7420
12.4600 8.2749 0.7398
12.4800 8.2882 0.7441
12.5000 8.3015 0.7422
12.5200 8.3149 0.7450
12.5400 8.3282 0.7441
12.5600 8.3416 0.7459
12.5800 8.3549 0.7466
12.6000 8.3682 0.7473
12.6200 8.3815 0.7495
12.6400 8.3948 0.7474
12.6600 8.4082 0.7513
12.6800 8.4215 0.7496
12.7000 8.4348 0.7525
12.7200 8.4481 0.7516
12.7400 8.4614 0.7538
12.7600 8.4747 0.7521
12.7800 8.4881 0.7553
12.8000 8.5015 0.7541
12.8200 8.5149 0.7566
12.8400 8.5282 0.7552
12.8600 8.5415 0.7587
12.8800 8.5549 0.7567
12.9000 8.5682 0.7595
12.9200 8.5816 0.7597
12.9400 8.5949 0.7604
12.9600 8.6082 0.7615
12.9800 8.6215 0.7616
13.0000 8.6348 0.7626
13.0200 8.6481 0.7633
13.0400 8.6614 0.7648
13.0600 8.6747 0.7636
13.0800 8.6881 0.7665
13.1000 8.7014 0.7649
13.1200 8.7148 0.7672
13.1400 8.7281 0.7661
13.1600 8.7415 0.7696
13.1800 8.7549 0.7676
13.2000 8.7682 0.7697
13.2200 8.7815 0.7704
13.2400 8.7949 0.7697
13.2600 8.8082 0.7726
13.2800 8.8215 0.7701
13.3000 8.8348 0.7741
13.3200 8.8481 0.7711
13.3400 8.8615 0.7765
13.3600 8.8748 0.7717
13.3800 8.8881 0.7779
13.4000 8.9015 0.7752
13.4200 8.9148 0.7785
13.4400 8.9282 0.7766
13.4600 8.9415 0.7804
13.4800 8.9548 0.7789
13.5000 8.9682 0.7805
13.5200 8.9815 0.7821
13.5400 8.9949 0.7810
13.5600 9.0082 0.7835
13.5800 9.0215 0.7828
13.6000 9.0348 0.7857
13.6200 9.0482 0.7834
13.6400 9.0615 0.7883
13.6600 9.0748 0.7850
13.6800 9.0882 0.7888
13.7000 9.1015 0.7874
13.7200 9.1149 0.7892
13.7400 9.1282 0.7884
13.7600 9.1415 0.7916
13.7800 9.1548 0.7893
13.8000 9.1681 0.7921
13.8200 9.1815 0.7910
13.8400 9.1948 0.7931
13.8600 9.2081 0.7931
13.8800 9.2215 0.7945
13.9000 9.2349 0.7942
13.9200 9.2482 0.7946
13.9400 9.2615 0.7964
13.9600 9.2749 0.7948
13.9800 9.2882 0.7976
14.0000 9.3016 0.7962
14.0200 9.3149 0.7991
14.0400 9.3282 0.7977
14.0600 9.3415 0.8016
14.0800 9.3549 0.7991
14.1000 9.3682 0.8031
14.1200 9.3814 0.8006
14.1400 9.3947 0.8044
14.1600 9.4081 0.8021
14.1800 9.4215 0.8049
14.2000 9.4348 0.8044
14.2200 9.4481 0.8051
14.2400 9.4615 0.8072
14.2600 9.4749 0.8061
14.2800 9.4882 0.8089
14.3000 9.5015 0.8070
14.3200 9.5149 0.8109
14.3400 9.5282 0.8075
14.3600 9.5416 0.8126
14.3800 9.5549 0.8093
14.4000 9.5682 0.8140
14.4200 9.5815 0.8112
14.4400 9.5949 0.8142
14.4600 9.6082 0.8133
14.4800 9.6215 0.8163
14.5000 9.6348 0.8145
14.5200 9.6481 0.8163
14.5400 9.6615 0.8165
14.5600 9.6748 0.8177
14.5800 9.6881 0.8187
14.6000 9.7014 0.8188
14.6200 9.7148 0.8200
14.6400 9.7282 0.8195
14.6600 9.7415 0.8215
14.6800 9.7549 0.8215
14.7000 9.7682 0.8223
14.7200 9.7816 0.8232
14.7400 9.7949 0.8238
14.7600 9.8082 0.8231
14.7800 9.8215 0.8267
14.8000 9.8348 0.8243
14.8200 9.8482 0.8275
14.8400 9.8615 0.8264
14.8600 9.8748 0.8287
14.8800 9.8881 0.8278
14.9000 9.9015 0.8300
14.9200 9.9148 0.8295
14.9400 9.9281 0.8302
14.9600 9.9415 0.8313
14.9800 9.9549 0.8304
15.0000 9.9682 0.8325
15.0200 9.9815 0.8328
15.0400 9.9949 0.8355
15.0600 10.0082 0.8330
15.0800 10.0216 0.8374
15.1000 10.0349 0.8344
15.1200 10.0481 0.8383
15.1400 10.0614 0.8362
15.1600 10.0748 0.8396
15.1800 10.0881 0.8379
15.2000 10.1014 0.8398
15.2200 10.1148 0.8408
15.2400 10.1281 0.8398
15.2600 10.1415 0.8426
15.2800 10.1548 0.8409
15.3000 10.1682 0.8426
15.3200 10.1815 0.8426
15.3400 10.1949 0.8450
15.3600 10.2082 0.8427
15.3800 10.2215 0.8472
15.4000 10.2349 0.8449
15.4200 10.2482 0.8476
15.4400 10.2616 0.8460
15.4600 10.2748 0.8492
15.4800 10.2881 0.8481
15.5000 10.3014 0.8503
15.5200 10.3148 0.8500
15.5400 10.3281 0.8501
15.5600 10.3414 0.8522
15.5800 10.3547 0.8526
15.6000 10.3681 0.8528
15.6200 10.3815 0.8536
15.6400 10.3948 0.8547
15.6600 10.4082 0.8538
15.6800 10.4215 0.8563
15.7000 10.4349 0.8551
15.7200 10.4482 0.8571
15.7400 10.4615 0.8557
15.7600 10.4748 0.8598
15.7800 10.4882 0.8558
15.8000 10.5015 0.8610
15.8200 10.5149 0.8577
15.8400 10.5282 0.8612
15.8600 10.5415 0.8599
15.8800 10.5549 0.8617
15.9000 10.5682 0.8598
15.9200 10.5815 0.8626
15.9400 10.5948 0.8629
15.9600 10.6081 0.8628
15.9800 10.6214 0.8653
16.0000 10.6348 0.8635
16.0200 10.6481 0.8675
16.0400 10.6615 0.8636
16.0600 10.6749 0.8693
16.0800 10.6882 0.8650
16.1000 10.7016 0.8696
16.1200 10.7149 0.8672
16.1400 10.7282 0.8697
16.1600 10.7416 0.8698
16.1800 10.7549 0.8707
16.2000 10.7682 0.8703
16.2200 10.7815 0.8704
16.2400 10.7948 0.8721
16.2600 10.8082 0.8703
16.2800 10.8214 0.8742
16.3000 10.8347 0.8729
16.3200 10.8481 0.8749
16.3400 10.8614 0.8739
16.3600 10.8748 0.8772
16.3800 10.8881 0.8746
16.4000 10.9015 0.8790
16.4200 10.9149 0.8764
16.4400 10.9282 0.8785
16.4600 10.9416 0.8657
16.4800 10.9549 0.8504
16.5000 10.9682 0.8409
16.5200 10.9816 0.8437
16.5400 10.9949 0.8457
16.5600 11.0082 0.8488
16.5800 11.0215 0.8506
16.6000 11.0348 0.8525
16.6200 11.0482 0.8533
16.6400 11.0615 0.8561
16.6600 11.0748 0.8577
16.6800 11.0881 0.8574
16.7000 11.1015 0.8610
16.7200 11.1148 0.8601
16.7400 11.1281 0.8639
16.7600 11.1415 0.8628
16.7800 11.1548 0.8670
16.8000 11.1682 0.8648
16.8200 11.1816 0.8694
16.8400 11.1949 0.8689
16.8600 11.2082 0.8710
16.8800 11.2216 0.8713
16.9000 11.2349 0.8730
16.9200 11.2482 0.8736
16.9400 11.2615 0.8742
16.9600 11.2748 0.8768
16.9800 11.2882 0.8748
17.0000 11.3014 0.8784
17.0200 11.3147 0.8772
17.0400 11.3281 0.8810
17.0600 11.3414 0.8784
17.0800 11.3548 0.8826
17.1000 11.3682 0.8805
17.1200 11.3815 0.8838
17.1400 11.3949 0.8836
17.1600 11.4082 0.8842
17.1800 11.4215 0.8865
17.2000 11.4349 0.8860
17.2200 11.4482 0.8876
17.2400 11.4615 0.8871
17.2600 11.4748 0.8901
17.2800 11.4881 0.8891
17.3000 11.5015 0.8912
17.3200 11.5148 0.8905
17.3400 11.5282 0.8932
17.3600 11.5415 0.8913
17.3800 11.5548 0.8960
17.4000 11.5681 0.8914
17.4200 11.5815 0.8969
17.4400 11.5948 0.8941
17.4600 11.6081 0.8972
17.4800 11.6215 0.8959
17.5000 11.6349 0.8990
17.5200 11.6482 0.8972
17.5400 11.6615 0.8993
17.5600 11.6748 0.9003
17.5800 11.6881 0.9005
17.6000 11.7015 0.9012
17.6200 11.7149 0.9015
17.6400 11.7282 0.9037
17.6600 11.7415 0.9022
17.6800 11.7548 0.9060
17.7000 11.7682 0.9026
17.7200 11.7815 0.9071
17.7400 11.7948 0.9046
17.7600 11.8081 0.9081
17.7800 11.8214 0.9056
17.8000 11.8348 0.9096
17.8200 11.8481 0.9070
17.8400 11.8615 0.9098
17.8600 11.8748 0.9099
17.8800 11.8882 0.9101
17.9000 11.9015 0.9115
17.9200 11.9148 0.9125
17.9400 11.9282 0.9136
17.9600 11.9415 0.9119
17.9800 11.9549 0.9162
18.0000 11.9682 0.9121
18.0200 11.9815 0.9179
18.0400 11.9948 0.9139
18.0600 12.0082 0.9193
18.0800 12.0215 0.9153
18.1000 12.0348 0.9200
18.1200 12.0481 0.9163
18.1400 12.0614 0.9195
18.1600 12.0748 0.9184
18.1800 12.0881 0.9204
18.2000 12.1014 0.9205
18.2200 12.1149 0.9211
18.2400 12.1283 0.9230
18.2600 12.1416 0.9209
18.2800 12.1549 0.9256
18.3000 12.1683 0.9219
18.3200 12.1816 0.9266
18.3400 12.1949 0.9240
18.3600 12.2082 0.9283
18.3800 12.2215 0.9249
18.4000 12.2348 0.9296
18.4200 12.2481 0.9262
18.4400 12.2614 0.9299
18.4600 12.2748 0.9293
18.4800 12.2881 0.9310
18.5000 12.3015 0.9299
18.5200 12.3148 0.9321
18.5400 12.3282 0.9324
18.5600 12.3415 0.9323
18.5800 12.3549 0.9340
18.6000 12.3682 0.9332
18.6200 12.3815 0.9352
18.6400 12.3948 0.9344
18.6600 12.4082 0.9378
18.6800 12.4215 0.9345
18.7000 12.4349 0.9388
18.7200 12.4482 0.9360
18.7400 12.4615 0.9393
18.7600 12.4748 0.9385
18.7800 12.4882 0.9404
18.8000 12.5015 0.9390
18.8200 12.5148 0.9411
18.8400 12.5281 0.9412
18.8600 12.5415 0.9411
18.8800 12.5548 0.9431
18.9000 12.5681 0.9421
18.9200 12.5815 0.9441
18.9400 12.5948 0.9430
18.9600 12.6082 0.9465
18.9800 12.6215 0.9433
19.0000 12.6348 0.9479
19.0200 12.6482 0.9448
19.0400 12.6615 0.9491
19.0600 12.6749 0.9462
19.0800 12.6882 0.9501
19.1000 12.7015 0.9473
19.1200 12.7148 0.9516
19.1400 12.7282 0.9493
19.1600 12.7415 0.9508
19.1800 12.7548 0.9520
19.2000 12.7681 0.9516
19.2200 12.7815 0.9530
19.2400 12.7948 0.9524
19.2600 12.8081 0.9557
19.2800 12.8215 0.9521
19.3000 12.8348 0.9575
19.3200 12.8482 0.9535
19.3400 12.8616 0.9586
19.3600 12.8748 0.9553
19.3800 12.8882 0.9594
19.4000 12.9015 0.9566
19.4200 12.9149 0.9601
19.4400 12.9282 0.9592
19.4600 12.9415 0.9594
19.4800 12.9548 0.9612
19.5000 12.9682 0.9609
19.5200 12.9815 0.9620
19.5400 12.9948 0.9626
19.5600 13.0081 0.9644
19.5800 13.0215 0.9622
19.6000 13.0348 0.9665
19.6200 13.0481 0.9638
19.6400 13.0615 0.9677
19.6600 13.0748 0.9651
19.6800 13.0882 0.9691
19.7000 13.1016 0.9657
19.7200 13.1149 0.9700
19.7400 13.1282 0.9681
19.7600 13.1415 0.9709
19.7800 13.1549 0.9688
19.8000 13.1682 0.9727
19.8200 13.1815 0.9699
19.8400 13.1949 0.9736
19.8600 13.2082 0.9724
19.8800 13.2215 0.9738
19.9000 13.2348 0.9752
19.9200 13.2481 0.9741
19.9400 13.2614 0.9767
19.9600 13.2747 0.9748
19.9800 13.2880 0.9791
20.0000 13.3014 0.9751
20.0200 13.3148 0.9804
20.0400 13.3282 0.9763
20.0600 13.3416 0.9791
20.0800 13.3549 0.9776
20.1000 13.3682 0.9807
20.1200 13.3816 0.9791
20.1400 13.3949 0.9819
20.1600 13.4082 0.9816
20.1800 13.4215 0.9823
20.2000 13.4348 0.9835
20.2200 13.4482 0.9835
20.2400 13.4615 0.9847
20.2600 13.4748 0.9842
20.2800 13.4881 0.9878
20.3000 13.5014 0.9838
20.3200 13.5148 0.9882
20.3400 13.5281 0.9867
20.3600 13.5414 0.9889
20.3800 13.5548 0.9878
20.4000 13.5682 0.9903
20.4200 13.5815 0.9880
20.4400 13.5949 0.9918
20.4600 13.6082 0.9904
20.4800 13.6215 0.9922
20.5000 13.6349 0.9916
20.5200 13.6482 0.9942
20.5400 13.6615 0.9927
20.5600 13.6748 0.9942
20.5800 13.6881 0.9953
20.6000 13.7015 0.9942
20.6200 13.7148 0.9973
20.6400 13.7281 0.9960
20.6600 13.7415 0.9978
20.6800 13.7548 0.9961
20.7000 13.7682 1.0007
20.7200 13.7815 0.9964
20.7400 13.7949 1.0024
20.7600 13.8082 0.9985
20.7800 13.8215 1.0024
20.8000 13.8348 0.9991
20.8200 13.8481 1.0048
20.8400 13.8615 1.0005
20.8600 13.8749 1.0043
20.8800 13.8882 1.0032
20.9000 13.9015 1.0047
20.9200 13.9148 1.0058
20.9400 13.9282 1.0055
20.9600 13.9415 1.0060
20.9800 13.9548 1.0068
21.0000 13.9681 1.0092
21.0200 13.9815 1.0070
21.0400 13.9948 1.0099
21.0600 14.0081 1.0084
21.0800 14.0214 1.0107
21.1000 14.0348 1.0093
21.1200 14.0482 1.0122
21.1400 14.0615 1.0106
21.1600 14.0749 1.0131
21.1800 14.0882 1.0127
21.2000 14.1015 1.0135
21.2200 14.1149 1.0147
21.2400 14.1282 1.0147
21.2600 14.1415 1.0163
21.2800 14.1548 1.0152
21.3000 14.1682 1.0188
21.3200 14.1815 1.0155
21.3400 14.1948 1.0194
21.3600 14.2081 1.0175
21.3800 14.2214 1.0205
21.4000 14.2348 1.0186
21.4200 14.2481 1.0218
21.4400 14.2615 1.0199
21.4600 14.2748 1.0232
21.4800 14.2882 1.0216
21.5000 14.3015 1.0224
21.5200 14.3149 1.0223
21.5400 14.3282 1.0232
21.5600 14.3415 1.0242
21.5800 14.3549 1.0236
21.6000 14.3682 1.0269
21.6200 14.3815 1.0238
21.6400 14.3948 1.0282
21.6600 14.4082 1.0252
21.6800 14.4215 1.0296
21.7000 14.4348 1.0264
21.7200 14.4481 1.0313
21.7400 14.4615 1.0270
21.7600 14.4748 1.0321
21.7800 14.4881 1.0287
21.8000 14.5014 1.0332
21.8200 14.5148 1.0300
21.8400 14.5281 1.0345
21.8600 14.5415 1.0320
21.8800 14.5549 1.0337
21.9000 14.5682 1.0353
21.9200 14.5816 1.0332
21.9400 14.5949 1.0369
21.9600 14.6082 1.0350
21.9800 14.6215 1.0384
22.0000 14.6348 1.0355
22.0200 14.6482 1.0401
22.0400 14.6615 1.0363
22.0600 14.6748 1.0405
22.0800 14.6881 1.0389
22.1000 14.7014 1.0412
22.1200 14.7148 1.0395
22.1400 14.7281 1.0425
22.1600 14.7415 1.0416
22.1800 14.7548 1.0421
22.2000 14.7682 1.0446
22.2200 14.7816 1.0425
22.2400 14.7949 1.0454
22.2600 14.8082 1.0442
22.2800 14.8215 1.0471
22.3000 14.8349 1.0446
22.3200 14.8482 1.0485
22.3400 14.8615 1.0464
22.3600 14.8748 1.0492
22.3800 14.8881 1.0484
22.4000 14.9014 1.0505
22.4200 14.9148 1.0481
22.4400 14.9281 1.0531
22.4600 14.9414 1.0501
22.4800 14.9548 1.0533
22.5000 14.9681 1.0520
22.5200 14.9815 1.0535
22.5400 14.9948 1.0529
22.5600 15.0082 1.0555
22.5800 15.0216 1.0541
22.6000 15.0349 1.0555
22.6200 15.0482 1.0574
22.6400 15.0615 1.0559
22.6600 15.0749 1.0579
22.6800 15.0882 1.0574
22.7000 15.1015 1.0606
22.7200 15.1148 1.0575
22.7400 15.1281 1.0627
22.7600 15.1415 1.0585
22.7800 15.1548 1.0634
22.8000 15.1681 1.0604
22.8200 15.1814 1.0642
22.8400 15.1948 1.0621
22.8600 15.2081 1.0649
22.8800 15.2215 1.0636
22.9000 15.2348 1.0647
22.9200 15.2482 1.0657
22.9400 15.2615 1.0657
22.9600 15.2748 1.0660
22.9800 15.2882 1.0659
23.0000 15.3015 1.0676
23.0200 15.3148 1.0655
23.0400 15.3282 1.0689
23.0600 15.3415 1.0675
23.0800 15.3548 1.0700
23.1000 15.3682 1.0694
23.1200 15.3815 1.0710
23.1400 15.3949 1.0701
23.1600 15.4081 1.0728
23.1800 15.4214 1.0718
23.2000 15.4347 1.0730
23.2200 15.4481 1.0740
23.2400 15.4614 1.0737
23.2600 15.4748 1.0750
23.2800 15.4882 1.0757
23.3000 15.5016 1.0770
23.3200 15.5149 1.0756
23.3400 15.5282 1.0785
23.3600 15.5416 1.0772
23.3800 15.5549 1.0798
23.4000 15.5683 1.0779
23.4200 15.5815 1.0819
23.4400 15.5948 1.0784
23.4600 15.6082 1.0834
23.4800 15.6215 1.0800
23.5000 15.6348 1.0840
23.5200 15.6481 1.0815
23.5400 15.6614 1.0853
23.5600 15.6748 1.0825
23.5800 15.6881 1.0860
23.6000 15.7015 1.0846
23.6200 15.7148 1.0858
23.6400 15.7282 1.0862
23.6600 15.7415 1.0867
23.6800 15.7549 1.0871
23.7000 15.7682 1.0877
23.7200 15.7816 1.0889
23.7400 15.7949 1.0877
23.7600 15.8082 1.0916
23.7800 15.8215 1.0895
23.8000 15.8348 1.0912
23.8200 15.8481 1.0912
23.8400 15.8615 1.0929
23.8600 15.8748 1.0921
23.8800 15.8881 1.0939
23.9000 15.9014 1.0941
23.9200 15.9148 1.0942
23.9400 15.9281 1.0958
23.9600 15.9415 1.0955
23.9800 15.9548 1.0966
24.0000 15.9682 1.0969
24.0200 15.9816 1.0985
24.0400 15.9949 1.0963
24.0600 16.0082 1.1009
24.0800 16.0215 1.0979
24.1000 16.0349 1.1013
24.1200 16.0482 1.1000
24.1400 16.0615 1.1033
24.1600 16.0748 1.1007
24.1800 16.0881 1.1037
24.2000 16.1015 1.1029
24.2200 16.1148 1.1043
24.2400 16.1281 1.1042
24.2600 16.1414 1.1055
24.2800 16.1548 1.1046
24.3000 16.1681 1.1069
24.3200 16.1815 1.1068
24.3400 16.1948 1.1069
24.3600 16.2082 1.1083
24.3800 16.2216 1.1073
24.4000 16.2349 1.1091
24.4200 16.2482 1.1073
24.4400 16.2615 1.1111
24.4600 16.2749 1.1082
24.4800 16.2882 1.1129
24.5000 16.3015 1.1101
24.5200 16.3148 1.1138
24.5400 16.3281 1.1117
24.5600 16.3415 1.1157
24.5800 16.3548 1.1114
24.6000 16.3681 1.1169
24.6200 16.3815 1.1150
24.6400 16.3948 1.1164
24.6600 16.4082 1.1165
24.6800 16.4215 1.1175
24.7000 16.4348 1.1181
24.7200 16.4482 1.1177
24.7400 16.4616 1.1204
24.7600 16.4749 1.1180
24.7800 16.4882 1.1211
24.8000 16.5015 1.1207
24.8200 16.5148 1.1213
24.8400 16.5282 1.1219
24.8600 16.5415 1.1237
24.8800 16.5548 1.1225
24.9000 16.5681 1.1242
24.9200 16.5815 1.1253
24.9400 16.5949 1.1246
24.9600 16.6082 1.1267
24.9800 16.6215 1.1257
25.0000 16.6348 1.1276
25.0200 16.6481 1.1265
25.0400 16.6615 1.1295
25.0600 16.6748 1.1272
25.0800 16.6882 1.1300
25.1000 16.7015 1.1299
25.1200 16.7149 1.1305
25.1400 16.7282 1.1307
25.1600 16.7415 1.1330
25.1800 16.7549 1.1310
25.2000 16.7682 1.1333
25.2200 16.7815 1.1332
25.2400 16.7948 1.1347
25.2600 16.8081 1.1343
25.2800 16.8215 1.1365
25.3000 16.8348 1.1347
25.3200 16.8481 1.1373
25.3400 16.8614 1.1371
25.3600 16.8747 1.1377
25.3800 16.8881 1.1384
25.4000 16.9014 1.1398
25.4200 16.9148 1.1404
25.4400 16.9281 1.1394
25.4600 16.9415 1.1421
25.4800 16.9549 1.1405
25.5000 16.9682 1.1431
25.5200 16.9815 1.1417
25.5400 16.9949 1.1450
25.5600 17.0082 1.1428
25.5800 17.0215 1.1466
25.6000 17.0348 1.1447
25.6200 17.0481 1.1468
25.6400 17.0615 1.1474
25.6600 17.0748 1.1463
25.6800 17.0881 1.1486
25.7000 17.1014 1.1480
25.7200 17.1148 1.1502
25.7400 17.1281 1.1476
25.7600 17.1415 1.1526
25.7800 17.1548 1.1488
25.8000 17.1682 1.1534
25.8200 17.1816 1.1511
25.8400 17.1949 1.1531
25.8600 17.2082 1.1526
25.8800 17.2215 1.1546
25.9000 17.2349 1.1538
25.9200 17.2482 1.1536
25.9400 17.2615 1.1558
25.9600 17.2748 1.1547
25.9800 17.2881 1.1568
26.0000 17.3015 1.1568
26.0200 17.3148 1.1582
26.0400 17.3282 1.1564
26.0600 17.3415 1.1606
26.0800 17.3548 1.1583
26.1000 17.3681 1.1610
26.1200 17.3815 1.1616
26.1400 17.3948 1.1620
26.1600 17.4081 1.1613
26.1800 17.4215 1.1652
26.2000 17.4349 1.1616
26.2200 17.4482 1.1657
26.2400 17.4615 1.1637
26.2600 17.4749 1.1671
26.2800 17.4882 1.1646
26.3000 17.5016 1.1681
26.3200 17.5148 1.1669
26.3400 17.5282 1.1673
26.3600 17.5415 1.1699
26.3800 17.5548 1.1674
26.4000 17.5681 1.1712
26.4200 17.5814 1.1692
26.4400 17.5948 1.1722
26.4600 17.6082 1.1692
26.4800 17.6215 1.1749
26.5000 17.6348 1.1699
26.5200 17.6482 1.1756
26.5400 17.6615 1.1714
26.5600 17.6749 1.1763
26.5800 17.6882 1.1730
26.6000 17.7015 1.1775
26.6200 17.7148 1.1757
26.6400 17.7282 1.1764
26.6600 17.7415 1.1788
26.6800 17.7548 1.1769
26.7000 17.7681 1.1802
26.7200 17.7815 1.1791
26.7400 17.7948 1.1813
26.7600 17.8082 1.1794
26.7800 17.8215 1.1833
26.8000 17.8348 1.1803
26.8200 17.8481 1.1836
26.8400 17.8615 1.1817
26.8600 17.8748 1.1845
26.8800 17.8881 1.1814
26.9000 17.9015 1.1852
26.9200 17.9149 1.1831
26.9400 17.9282 1.1855
26.9600 17.9415 1.1852
26.9800 17.9549 1.1875
27.0000 17.9682 1.1854
27.0200 17.9816 1.1894
27.0400 17.9949 1.1873
27.0600 18.0082 1.1905
27.0800 18.0215 1.1900
27.1000 18.0348 1.1914
27.1200 18.0481 1.1912
27.1400 18.0614 1.1920
27.1600 18.0748 1.1942
27.1800 18.0881 1.1910
27.2000 18.1014 1.1964
27.2200 18.1147 1.1932
27.2400 18.1281 1.1967
27.2600 18.1415 1.1952
27.2800 18.1549 1.1973
27.3000 18.1682 1.1958
27.3200 18.1815 1.1992
27.3400 18.1949 1.1978
27.3600 18.2083 1.1988
27.3800 18.2216 1.2005
27.4000 18.2349 1.1997
27.4200 18.2482 1.2022
27.4400 18.2615 1.2008
27.4600 18.2749 1.2045
27.4800 18.2881 1.2006
27.5000 18.3014 1.2058
27.5200 18.3147 1.2028
27.5400 18.3281 1.2058
27.5600 18.3414 1.2046
27.5800 18.3548 1.2072
27.6000 18.3681 1.2060
27.6200 18.3815 1.2082
27.6400 18.3949 1.2081
27.6600 18.4082 1.2085
27.6800 18.4215 1.2100
27.7000 18.4349 1.2105
27.7200 18.4482 1.2106
27.7400 18.4616 1.2111
27.7600 18.4749 1.2127
27.7800 18.4882 1.2115
27.8000 18.5015 1.2144
27.8200 18.5148 1.2130
27.8400 18.5281 1.2150
27.8600 18.5414 1.2142
27.8800 18.5548 1.2169
27.9000 18.5681 1.2143
27.9200 18.5815 1.2190
27.9400 18.5948 1.2160
27.9600 18.6082 1.2197
27.9800 18.6215 1.2172
28.0000 18.6349 1.2207
28.0200 18.6482 1.2185
28.0400 18.6615 1.2220
28.0600 18.6748 1.2206
28.0800 18.6882 1.2218
28.1000 18.7015 1.2226
28.1200 18.7148 1.2229
28.1400 18.7282 1.2241
28.1600 18.7415 1.2240
28.1800 18.7549 1.2268
28.2000 18.7682 1.2228
28.2200 18.7815 1.2278
28.2400 18.7948 1.2249
28.2600 18.8081 1.2275
28.2800 18.8215 1.2267
28.3000 18.8348 1.2286
28.3200 18.8481 1.2281
28.3400 18.8615 1.2297
28.3600 18.8748 1.2297
28.3800 18.8882 1.2298
28.4000 18.9015 1.2322
28.4200 18.9149 1.2311
28.4400 18.9282 1.2336
28.4600 18.9416 1.2325
28.4800 18.9549 1.2360
28.5000 18.9682 1.2328
28.5200 18.9815 1.2371
28.5400 18.9948 1.2344
28.5600 19.0082 1.2382
28.5800 19.0215 1.2365
28.6000 19.0348 1.2388
28.6200 19.0481 1.2377
28.6400 19.0614 1.2399
28.6600 19.0748 1.2394
28.6800 19.0881 1.2407
28.7000 19.1015 1.2408
28.7200 19.1149 1.2423
28.7400 19.1282 1.2408
28.7600 19.1415 1.2436
28.7800 19.1549 1.2446
28.8000 19.1682 1.2432
28.8200 19.1816 1.2461
28.8400 19.1949 1.2445
28.8600 19.2082 1.2472
28.8800 19.2215 1.2456
28.9000 19.2348 1.2495
28.9200 19.2482 1.2459
28.9400 19.2615 1.2506
28.9600 19.2748 1.2472
28.9800 19.2881 1.2506
29.0000 19.3015 1.2474
29.0200 19.3148 1.2523
29.0400 19.3281 1.2489
29.0600 19.3415 1.2534
29.0800 19.3548 1.2523
29.1000 19.3682 1.2526
29.1200 19.3815 1.2555
29.1400 19.3948 1.2541
29.1600 19.4082 1.2560
29.1800 19.4216 1.2550
29.2000 19.4349 1.2587
29.2200 19.4482 1.2554
29.2400 19.4615 1.2601
29.2600 19.4749 1.2585
29.2800 19.4882 1.2599
29.3000 19.5015 1.2596
29.3200 19.5147 1.2626
29.3400 19.5281 1.2605
29.3600 19.5415 1.2628
29.3800 19.5548 1.2634
29.4000 19.5682 1.2633
29.4200 19.5815 1.2649
29.4400 19.5949 1.2649
29.4600 19.6083 1.2664
29.4800 19.6216 1.2656
29.5000 19.6349 1.2683
29.5200 19.6482 1.2665
29.5400 19.6616 1.2688
29.5600 19.6749 1.2690
29.5800 19.6882 1.2702
29.6000 19.7014 1.2699
29.6200 19.7148 1.2726
29.6400 19.7281 1.2701
29.6600 19.7414 1.2739
29.6800 19.7548 1.2721
29.7000 19.7681 1.2748
29.7200 19.7815 1.2733
29.7400 19.7948 1.2756
29.7600 19.8081 1.2745
29.7800 19.8215 1.2762
29.8000 19.8349 1.2773
29.8200 19.8482 1.2767
29.8400 19.8615 1.2787
29.8600 19.8749 1.2779
29.8800 19.8882 1.2804
29.9000 19.9016 1.2783
29.9200 19.9149 1.2828
29.9400 19.9282 1.2798
29.9600 19.9415 1.2841
29.9800 19.9548 1.2814
30.0000 19.9681 1.2848
30.0200 19.9814 1.2830
30.0400 19.9948 1.2859
30.0600 20.0081 1.2847
30.0800 20.0215 1.2863
30.1000 20.0348 1.2878
30.1200 20.0481 1.2869
30.1400 20.0615 1.2888
30.1600 20.0748 1.2883
30.1800 20.0882 1.2904
30.2000 20.1015 1.2890
30.2200 20.1148 1.2928
30.2400 20.1282 1.2902
30.2600 20.1415 1.2934
30.2800 20.1549 1.2925
30.3000 20.1682 1.2949
30.3200 20.1815 1.2937
30.3400 20.1949 1.2962
30.3600 20.2082 1.2939
30.3800 20.2215 1.2953
30.4000 20.2348 1.2971
30.4200 20.2481 1.2959
30.4400 20.2614 1.2983
30.4600 20.2748 1.2976
30.4800 20.2881 1.3002
30.5000 20.3014 1.2981
30.5200 20.3148 1.3021
30.5400 20.3282 1.2996
30.5600 20.3416 1.3034
30.5800 20.3549 1.3013
30.6000 20.3682 1.3044
30.6200 20.3816 1.3022
30.6400 20.3949 1.3057
30.6600 20.4082 1.3037
30.6800 20.4215 1.3073
30.7000 20.4348 1.3056
30.7200 20.4481 1.3070
30.7400 20.4614 1.3078
30.7600 20.4748 1.3087
30.7800 20.4881 1.3097
30.8000 20.5015 1.3090
30.8200 20.5148 1.3121
30.8400 20.5281 1.3099
30.8600 20.5415 1.3130
30.8800 20.5549 1.3121
30.9000 20.5682 1.3144
30.9200 20.5816 1.3115
30.9400 20.5949 1.3178
30.9600 20.6082 1.3126
30.9800 20.6216 1.3184
31.0000 20.6349 1.3153
31.0200 20.6482 1.3185
31.0400 20.6615 1.3174
31.0600 20.6748 1.3189
31.0800 20.6882 1.3193
31.1000 20.7014 1.3195
31.1200 20.7148 1.3213
31.1400 20.7281 1.3200
31.1600 20.7415 1.3214
31.1800 20.7548 1.3205
31.2000 20.7681 1.3228
31.2200 20.7815 1.3213
31.2400 20.7949 1.3248
31.2600 20.8082 1.3227
31.2800 20.8216 1.3262
31.3000 20.8349 1.3246
31.3200 20.8482 1.3281
31.3400 20.8616 1.3261
31.3600 20.8749 1.3294
31.3800 20.8882 1.3282
31.4000 20.9015 1.3299
31.4200 20.9148 1.3305
31.4400 20.9281 1.3314
31.4600 20.9414 1.3315
31.4800 20.9547 1.3328
31.5000 20.9681 1.3332
31.5200 20.9814 1.3331
31.5400 20.9948 1.3360
31.5600 21.0081 1.3344
31.5800 21.0215 1.3372
31.6000 21.0349 1.3356
31.6200 21.0483 1.3388
31.6400 21.0616 1.3362
31.6600 21.0749 1.3413
31.6800 21.0882 1.3387
31.7000 21.1016 1.3412
31.7200 21.1149 1.3406
31.7400 21.1282 1.3433
31.7600 21.1415 1.3417
31.7800 21.1548 1.3442
31.8000 21.1682 1.3436
31.8200 21.1815 1.3452
31.8400 21.1948 1.3458
31.8600 21.2081 1.3460
31.8800 21.2215 1.3476
31.9000 21.2348 1.3470
31.9200 21.2481 1.3500
31.9400 21.2615 1.3471
31.9600 21.2748 1.3521
31.9800 21.2882 1.3481
32.0000 21.3015 1.3525
32.0200 21.3148 1.3506
32.0400 21.3281 1.3541
32.0600 21.3415 1.3515
32.0800 21.3549 1.3544
32.1000 21.3682 1.3544
32.1200 21.3815 1.3551
32.1400 21.3948 1.3564
32.1600 21.4082 1.3562
32.1800 21.4215 1.3572
32.2000 21.4348 1.3568
32.2200 21.4481 1.3598
32.2400 21.4614 1.3573
32.2600 21.4748 1.3616
32.2800 21.4881 1.3598
32.3000 21.5014 1.3621
32.3200 21.5148 1.3620
32.3400 21.5282 1.3633
32.3600 21.5415 1.3631
32.3800 21.5548 1.3647
32.4000 21.5682 1.3649
32.4200 21.5815 1.3655
32.4400 21.5949 1.3668
32.4600 21.6082 1.3679
32.4800 21.6215 1.3677
32.5000 21.6348 1.3684
32.5200 21.6482 1.3703
32.5400 21.6615 1.3684
32.5600 21.6748 1.3725
32.5800 21.6881 1.3699
32.6000 21.7014 1.3742
32.6200 21.7148 1.3704
32.6400 21.7281 1.3759
32.6600 21.7414 1.3719
32.6800 21.7548 1.3769
32.7000 21.7682 1.3736
32.7200 21.7816 1.3771
32.7400 21.7949 1.3762
32.7600 21.8082 1.3785
32.7800 21.8216 1.3765
32.8000 21.8349 1.3786
32.8200 21.8482 1.3803
32.8400 21.8615 1.3788
32.8600 21.8748 1.3819
32.8800 21.8881 1.3792
32.9000 21.9014 1.3826
32.9200 21.9148 1.3803
32.9400 21.9281 1.3853
32.9600 21.9415 1.3817
32.9800 21.9548 1.3864
33.0000 21.9682 1.3838
33.0200 21.9815 1.3867
33.0400 21.9949 1.3865
33.0600 22.0082 1.3885
33.0800 22.0216 1.3880
33.1000 22.0349 1.3897
33.1200 22.0482 1.3909
33.1400 22.0615 1.3905
33.1600 22.0749 1.3930
33.1800 22.0882 1.3923
33.2000 22.1015 1.3945
33.2200 22.1148 1.3934
33.2400 22.1282 1.3965
33.2600 22.1415 1.3942
33.2800 22.1548 1.3985
33.3000 22.1681 1.3965
33.3200 22.1814 1.3989
33.3400 22.1948 1.3983
33.3600 22.2081 1.4013
33.3800 22.2215 1.3996
33.4000 22.2348 1.4023
33.4200 22.2482 1.4014
33.4400 22.2615 1.4036
33.4600 22.2749 1.4033
33.4800 22.2882 1.4046
33.5000 22.3015 1.4046
33.5200 22.3149 1.4057
33.5400 22.3282 1.4080
33.5600 22.3415 1.4059
33.5800 22.3548 1.4104
33.6000 22.3682 1.4072
33.6200 22.3815 1.4114
33.6400 22.3948 1.4081
33.6600 22.4081 1.4130
33.6800 22.4214 1.4091
33.7000 22.4348 1.4130
33.7200 22.4481 1.4107
33.7400 22.4615 1.4149
33.7600 22.4748 1.4120
33.7800 22.4882 1.4160
33.8000 22.5016 1.4139
33.8200 22.5148 1.4158
33.8400 22.5282 1.4163
33.8600 22.5415 1.4161
33.8800 22.5549 1.4179
33.9000 22.5682 1.4186
33.9200 22.5815 1.4195
33.9400 22.5948 1.4200
33.9600 22.6082 1.4218
33.9800 22.6215 1.4216
34.0000 22.6348 1.4231
34.0200 22.6481 1.4232
34.0400 22.6615 1.4244
34.0600 22.6748 1.4239
34.0800 22.6881 1.4266
34.1000 22.7015 1.4260
34.1200 22.7148 1.4270
34.1400 22.7282 1.4287
34.1600 22.7416 1.4275
34.1800 22.7549 1.4307
34.2000 22.7682 1.4291
34.2200 22.7815 1.4327
34.2400 22.7949 1.4295
34.2600 22.8082 1.4348
34.2800 22.8215 1.4320
34.3000 22.8348 1.4364
34.3200 22.8482 1.4335
34.3400 22.8615 1.4375
34.3600 22.8748 1.4350
34.3800 22.8881 1.4397
34.4000 22.9015 1.4368
34.4200 22.9148 1.4400
34.4400 22.9281 1.4399
34.4600 22.9414 1.4414
34.4800 22.9548 1.4411
34.5000 22.9682 1.4425
34.5200 22.9816 1.4434
34.5400 22.9949 1.4432
34.5600 23.0082 1.4460
34.5800 23.0216 1.4443
34.6000 23.0349 1.4479
34.6200 23.0482 1.4461
34.6400 23.0615 1.4498
34.6600 23.0748 1.4474
34.6800 23.0882 1.4518
34.7000 23.1015 1.4483
34.7200 23.1148 1.4523
34.7400 23.1281 1.4502
34.7600 23.1414 1.4536
34.7800 23.1548 1.4518
34.8000 23.1681 1.4554
34.8200 23.1814 1.4549
34.8400 23.1948 1.4558
34.8600 23.2082 1.4572
34.8800 23.2216 1.4566
34.9000 23.2349 1.4590
34.9200 23.2482 1.4581
34.9400 23.2615 1.4615
34.9600 23.2749 1.4590
34.9800 23.2882 1.4642
35.0000 23.3015 1.4608
35.0200 23.3148 1.4659
35.0400 23.3281 1.4621
35.0600 23.3415 1.4673
35.0800 23.3548 1.4637
35.1000 23.3681 1.4686
35.1200 23.3814 1.4657
35.1400 23.3948 1.4698
35.1600 23.4082 1.4685
35.1800 23.4215 1.4702
35.2000 23.4348 1.4710
35.2200 23.4482 1.4715
35.2400 23.4615 1.4732
35.2600 23.4748 1.4712
35.2800 23.4882 1.4755
35.3000 23.5015 1.4733
35.3200 23.5149 1.4767
35.3400 23.5282 1.4747
35.3600 23.5415 1.4789
35.3800 23.5548 1.4763
35.4000 23.5682 1.4801
35.4200 23.5816 1.4776
35.4400 23.5949 1.4804
35.4600 23.6081 1.4789
35.4800 23.6215 1.4813
35.5000 23.6348 1.4807
35.5200 23.6481 1.4823
35.5400 23.6614 1.4835
35.5600 23.6748 1.4836
35.5800 23.6882 1.4858
35.6000 23.7015 1.4849
35.6200 23.7148 1.4873
35.6400 23.7282 1.4870
35.6600 23.7415 1.4901
35.6800 23.7549 1.4873
35.7000 23.7682 1.4922
35.7200 23.7815 1.4895
35.7400 23.7948 1.4930
35.7600 23.8082 1.4921
35.7800 23.8215 1.4948
35.8000 23.8348 1.4940
35.8200 23.8481 1.4957
35.8400 23.8614 1.4965
35.8600 23.8748 1.4966
35.8800 23.8881 1.4978
35.9000 23.9014 1.4984
35.9200 23.9148 1.4997
35.9400 23.9281 1.4992
35.9600 23.9415 1.5017
35.9800 23.9549 1.4999
36.0000 23.9682 1.5038
36.0200 23.9815 1.5021
36.0400 23.9949 1.5051
36.0600 24.0082 1.5034
36.0800 24.0215 1.5073
36.1000 24.0348 1.5052
36.1200 24.0482 1.5082
36.1400 24.0615 1.5079
36.1600 24.0748 1.5092
36.1800 24.0881 1.5100
36.2000 24.1014 1.5120
36.2200 24.1148 1.5117
36.2400 24.1281 1.5132
36.2600 24.1414 1.5144
36.2800 24.1548 1.5148
36.3000 24.1681 1.5158
36.3200 24.1815 1.5150
36.3400 24.1949 1.5178
36.3600 24.2082 1.5154
36.3800 24.2215 1.5205
36.4000 24.2349 1.5172
36.4200 24.2482 1.5221
36.4400 24.2615 1.5204
36.4600 24.2748 1.5237
36.4800 24.2882 1.5219
36.5000 24.3015 1.5258
36.5200 24.3148 1.5238
36.5400 24.3281 1.5275
36.5600 24.3414 1.5266
36.5800 24.3548 1.5279
36.6000 24.3681 1.5293
36.6200 24.3815 1.5290
36.6400 24.3948 1.5322
36.6600 24.4082 1.5298
36.6800 24.4216 1.5346
36.7000 24.4349 1.5311
36.7200 24.4482 1.5360
36.7400 24.4615 1.5340
36.7600 24.4749 1.5379
36.7800 24.4882 1.5356
36.8000 24.5015 1.5396
36.8200 24.5148 1.5380
36.8400 24.5281 1.5403
36.8600 24.5414 1.5405
36.8800 24.5548 1.5414
36.9000 24.5681 1.5425
36.9200 24.5814 1.5438
36.9400 24.5948 1.5443
36.9600 24.6081 1.5439
36.9800 24.6215 1.5469
37.0000 24.6348 1.5462
37.0200 24.6482 1.5482
37.0400 24.6616 1.5478
37.0600 24.6749 1.5503
37.0800 24.6882 1.5486
37.1000 24.7015 1.5515
37.1200 24.7149 1.5502
37.1400 24.7282 1.5534
37.1600 24.7415 1.5522
37.1800 24.7548 1.5546
37.2000 24.7681 1.5534
37.2200 24.7815 1.5571
37.2400 24.7948 1.5552
37.2600 24.8081 1.5582
37.2800 24.8214 1.5583
37.3000 24.8348 1.5597
37.3200 24.8481 1.5607
37.3400 24.8614 1.5611
37.3600 24.8748 1.5636
37.3800 24.8881 1.5625
37.4000 24.9015 1.5662
37.4200 24.9149 1.5635
37.4400 24.9282 1.5687
37.4600 24.9415 1.5665
37.4800 24.9549 1.5706
37.5000 24.9682 1.5682
37.5200 24.9815 1.5725
37.5400 24.9949 1.5711
37.5600 25.0082 1.5734
37.5800 25.0216 1.5737
37.6000 25.0349 1.5747
37.6200 25.0482 1.5765
37.6400 25.0614 1.5761
37.6600 25.0748 1.5795
37.6800 25.0881 1.5774
37.7000 25.1014 1.5817
37.7200 25.1148 1.5793
37.7400 25.1281 1.5827
37.7600 25.1416 1.5816
37.7800 25.1549 1.5835
37.8000 25.1682 1.5813
37.8200 25.1816 1.5855
37.8400 25.1949 1.5835
37.8600 25.2083 1.5866
37.8800 25.2215 1.5863
37.9000 25.2348 1.5879
37.9200 25.2481 1.5885
37.9400 25.2615 1.5902
37.9600 25.2748 1.5906
37.9800 25.2881 1.5918
38.0000 25.3014 1.5938
38.0200 25.3147 1.5936
38.0400 25.3281 1.5951
38.0600 25.3415 1.5960
38.0800 25.3548 1.5976
38.1000 25.3682 1.5971
38.1200 25.3816 1.6002
38.1400 25.3949 1.5985
38.1600 25.4082 1.6021
38.1800 25.4215 1.6005
38.2000 25.4349 1.6041
38.2200 25.4482 1.6019
38.2400 25.4615 1.6058
38.2600 25.4748 1.6043
38.2800 25.4881 1.6070
38.3000 25.5015 1.6069
38.3200 25.5148 1.6083
38.3400 25.5281 1.6091
38.3600 25.5414 1.6097
38.3800 25.5548 1.6121
38.4000 25.5681 1.6109
38.4200 25.5815 1.6144
38.4400 25.5948 1.6124
38.4600 25.6081 1.6161
38.4800 25.6215 1.6145
38.5000 25.6349 1.6181
38.5200 25.6482 1.6152
38.5400 25.6616 1.6198
38.5600 25.6749 1.6183
38.5800 25.6882 1.6202
38.6000 25.7016 1.6221
38.6200 25.7149 1.6219
38.6400 25.7282 1.6245
38.6600 25.7415 1.6239
38.6800 25.7548 1.6275
38.7000 25.7681 1.6257
38.7200 25.7814 1.6300
38.7400 25.7947 1.6282
38.7600 25.8081 1.6315
38.7800 25.8215 1.6301
38.8000 25.8348 1.6343
38.8200 25.8482 1.6313
38.8400 25.8615 1.6354
38.8600 25.8749 1.6334
38.8800 25.8882 1.6359
38.9000 25.9015 1.6363
38.9200 25.9149 1.6383
38.9400 25.9282 1.6385
38.9600 25.9415 1.6400
38.9800 25.9548 1.6419
39.0000 25.9681 1.6417
39.0200 25.9815 1.6441
39.0400 25.9948 1.6443
39.0600 26.0082 1.6462
39.0800 26.0215 1.6460
39.1000 26.0348 1.6495
39.1200 26.0481 1.6475
39.1400 26.0614 1.6520
39.1600 26.0748 1.6497
39.1800 26.0881 1.6534
39.2000 26.1015 1.6522
39.2200 26.1149 1.6555
39.2400 26.1282 1.6546
39.2600 26.1415 1.6569
39.2800 26.1548 1.6576
39.3000 26.1682 1.6589
39.3200 26.1816 1.6597
39.3400 26.1949 1.6614
39.3600 26.2082 1.6622
39.3800 26.2215 1.6624
39.4000 26.2349 1.6654
39.4200 26.2482 1.6626
39.4400 26.2615 1.6680
39.4600 26.2748 1.6649
39.4800 26.2881 1.6692
39.5000 26.3015 1.6673
39.5200 26.3148 1.6711
39.5400 26.3281 1.6693
39.5600 26.3415 1.6724
39.5800 26.3549 1.6720
39.6000 26.3682 1.6734
39.6200 26.3815 1.6753
39.6400 26.3948 1.6753
39.6600 26.4082 1.6775
39.6800 26.4215 1.6773
39.7000 26.4348 1.6806
39.7200 26.4481 1.6790
39.7400 26.4615 1.6823
39.7600 26.4748 1.6820
39.7800 26.4881 1.6849
39.8000 26.5014 1.6847
39.8200 26.5148 1.6883
39.8400 26.5281 1.6866
39.8600 26.5415 1.6900
39.8800 26.5548 1.6896
39.9000 26.5681 1.6914
39.9200 26.5815 1.6909
39.9400 26.5949 1.6939
39.9600 26.6082 1.6929
39.9800 26.6216 1.6960
40.0000 26.6349 1.6963
40.0200 26.6482 1.6982
40.0400 26.6615 1.6987
40.0600 26.6748 1.7010
40.0800 26.6881 1.7007
40.1000 26.7015 1.7020
40.1200 26.7148 1.7043
40.1400 26.7281 1.7031
40.1600 26.7414 1.7079
40.1800 26.7548 1.7057
40.2000 26.7681 1.7099
40.2200 26.7815 1.7082
40.2400 26.7948 1.7129
40.2600 26.8082 1.7114
40.2800 26.8215 1.7142
40.3000 26.8349 1.7153
40.3200 26.8482 1.7168
40.3400 26.8615 1.7176
40.3600 26.8748 1.7195
40.3800 26.8882 1.7204
40.4000 26.9015 1.7206
40.4200 26.9148 1.7247
40.4400 26.9281 1.7222
40.4600 26.9415 1.7272
40.4800 26.9548 1.7252
40.5000 26.9681 1.7288
40.5200 26.9814 1.7280
40.5400 26.9948 1.7313
40.5600 27.0081 1.7307
40.5800 27.0215 1.7322
40.6000 27.0348 1.7343
40.6200 27.0482 1.7339
40.6400 27.0615 1.7360
40.6600 27.0749 1.7360
40.6800 27.0882 1.7376
40.7000 27.1015 1.7374
40.7200 27.1149 1.7406
40.7400 27.1282 1.7388
40.7600 27.1416 1.7429
40.7800 27.1548 1.7421
40.8000 27.1681 1.7454
40.8200 27.1815 1.7445
40.8400 27.1948 1.7486
40.8600 27.2081 1.7477
40.8800 27.2214 1.7503
40.9000 27.2348 1.7509
40.9200 27.2481 1.7534
40.9400 27.2615 1.7522
40.9600 27.2748 1.7559
40.9800 27.2882 1.7546
41.0000 27.3015 1.7575
41.0200 27.3149 1.7592
41.0400 27.3282 1.7594
41.0600 27.3415 1.7619
41.0800 27.3548 1.7614
41.1000 27.3682 1.7650
41.1200 27.3815 1.7628
41.1400 27.3948 1.7691
41.1600 27.4081 1.7659
41.1800 27.4215 1.7711
41.2000 27.4348 1.7698
41.2200 27.4482 1.7732
41.2400 27.4615 1.7723
41.2600 27.4748 1.7760
41.2800 27.4882 1.7753
41.3000 27.5015 1.7774
41.3200 27.5148 1.7803
41.3400 27.5281 1.7789
41.3600 27.5415 1.7827
41.3800 27.5549 1.7802
41.4000 27.5682 1.7861
41.4200 27.5815 1.7820
41.4400 27.5949 1.7891
41.4600 27.6082 1.7854
41.4800 27.6216 1.7908
41.5000 27.6349 1.7897
41.5200 27.6482 1.7930
41.5400 27.6615 1.7922
41.5600 27.6748 1.7956
41.5800 27.6881 1.7953
41.6000 27.7015 1.7973
41.6200 27.7148 1.7991
41.6400 27.7281 1.7995
41.6600 27.7414 1.8016
41.6800 27.7547 1.8025
41.7000 27.7681 1.8051
41.7200 27.7815 1.8040
41.7400 27.7949 1.8085
41.7600 27.8082 1.8075
41.7800 27.8215 1.8119
41.8000 27.8349 1.8111
41.8200 27.8482 1.8157
41.8400 27.8616 1.8131
41.8600 27.8749 1.8195
41.8800 27.8882 1.8160
41.9000 27.9015 1.8208
41.9200 27.9148 1.8185
41.9400 27.9282 1.8231
41.9600 27.9414 1.8218
41.9800 27.9548 1.8265
42.0000 27.9681 1.8261
42.0200 27.9814 1.8278
42.0400 27.9948 1.8306
42.0600 28.0081 1.8297
42.0800 28.0215 1.8346
42.1000 28.0349 1.8323
42.1200 28.0482 1.8392
42.1400 28.0615 1.8350
42.1600 28.0749 1.8430
42.1800 28.0882 1.8389
42.2000 28.1016 1.8447
42.2200 28.1149 1.8434
42.2400 28.1281 1.8475
42.2600 28.1415 1.8468
42.2800 28.1548 1.8498
42.3000 28.1681 1.8511
42.3200 28.1814 1.8512
42.3400 28.1948 1.8553
42.3600 28.2081 1.8542
42.3800 28.2215 1.8584
42.4000 28.2349 1.8573
42.4200 28.2482 1.8613
42.4400 28.2616 1.8586
42.4600 28.2749 1.8634
42.4800 28.2882 1.8622
42.5000 28.3015 1.8659
42.5200 28.3148 1.8668
42.5400 28.3282 1.8697
42.5600 28.3415 1.8692
42.5800 28.3549 1.8734
42.6000 28.3682 1.8734
42.6200 28.3815 1.8767
42.6400 28.3949 1.8778
42.6600 28.4082 1.8801
42.6800 28.4215 1.8813
42.7000 28.4348 1.8843
42.7200 28.4481 1.8862
42.7400 28.4615 1.8852
42.7600 28.4748 1.8904
42.7800 28.4881 1.8882
42.8000 28.5015 1.8925
42.8200 28.5148 1.8914
42.8400 28.5282 1.8969
42.8600 28.5415 1.8946
42.8800 28.5549 1.9017
42.9000 28.5682 1.8994
42.9200 28.5816 1.9049
42.9400 28.5949 1.9039
42.9600 28.6082 1.9095
42.9800 28.6215 1.9081
43.0000 28.6348 1.9123
43.0200 28.6482 1.9138
43.0400 28.6615 1.9144
43.0600 28.6748 1.9196
43.0800 28.6881 1.9176
43.1000 28.7014 1.9219
43.1200 28.7148 1.9199
43.1400 28.7281 1.9256
43.1600 28.7414 1.9226
43.1800 28.7548 1.9290
43.2000 28.7682 1.9266
43.2200 28.7815 1.9327
43.2400 28.7948 1.9312
43.2600 28.8082 1.9367
43.2800 28.8216 1.9352
43.3000 28.8349 1.9394
43.3200 28.8482 1.9404
43.3400 28.8615 1.9411
43.3600 28.8749 1.9432
43.3800 28.8882 1.9440
43.4000 28.9015 1.9463
43.4200 28.9148 1.9480
43.4400 28.9281 1.9524
43.4600 28.9415 1.9521
43.4800 28.9548 1.9570
43.5000 28.9681 1.9576
43.5200 28.9815 1.9614
43.5400 28.9948 1.9620
43.5600 29.0082 1.9675
43.5800 29.0215 1.9658
43.6000 29.0349 1.9725
43.6200 29.0482 1.9718
43.6400 29.0616 1.9764
43.6600 29.0749 1.9772
43.6800 29.0882 1.9815
43.7000 29.1015 1.9816
43.7200 29.1149 1.9842
43.7400 29.1282 1.9866
43.7600 29.1415 1.9872
43.7800 29.1548 1.9893
43.8000 29.1681 1.9890
43.8200 29.1815 1.9921
43.8400 29.1948 1.9918
43.8600 29.2081 1.9987
43.8800 29.2215 1.9960
43.9000 29.2349 2.0040
43.9200 29.2482 2.0015
43.9400 29.2616 2.0072
43.9600 29.2749 2.0055
43.9800 29.2882 2.0108
44.0000 29.3016 2.0096
44.0200 29.3149 2.0145
44.0400 29.3282 2.0154
44.0600 29.3414 2.0192
44.0800 29.3548 2.0212
44.1000 29.3681 2.0245
44.1200 29.3814 2.0270
44.1400 29.3948 2.0300
44.1600 29.4081 2.0339
44.1800 29.4215 2.0347
44.2000 29.4348 2.0398
44.2200 29.4481 2.0405
44.2400 29.4615 2.0454
44.2600 29.4749 2.0448
44.2800 29.4882 2.0505
44.3000 29.5015 2.0494
44.3200 29.5149 2.0540
44.3400 29.5282 2.0543
44.3600 29.5416 2.0569
44.3800 29.5549 2.0584
44.4000 29.5681 2.0618
44.4200 29.5814 2.0634
44.4400 29.5948 2.0657
44.4600 29.6081 2.0668
44.4800 29.6215 2.0691
44.5000 29.6348 2.0721
44.5200 29.6481 2.0742
44.5400 29.6614 2.0788
44.5600 29.6748 2.0800
44.5800 29.6881 2.0857
44.6000 29.7015 2.0859
44.6200 29.7148 2.0922
44.6400 29.7282 2.0926
44.6600 29.7415 2.0982
44.6800 29.7548 2.0989
44.7000 29.7682 2.1051
44.7200 29.7815 2.1053
44.7400 29.7949 2.1099
44.7600 29.8082 2.1123
44.7800 29.8215 2.1145
44.8000 29.8349 2.1179
44.8200 29.8482 2.1190
44.8400 29.8615 2.1227
44.8600 29.8748 2.1197
44.8800 29.8881 2.1242
44.9000 29.9014 2.1206
44.9200 29.9148 2.1277
44.9400 29.9281 2.1276
44.9600 29.9415 2.1346
44.9800 29.9548 2.1350
45.0000 29.9682 2.1408
45.0200 29.9816 2.1420
45.0400 29.9949 2.1462
45.0480 30.0001 2.1468
45.0490 30.0007 2.1466
45.0500 30.0014 2.1463
45.0700 30.0119 2.1300
45.0900 30.0141 2.1220
45.1100 30.0058 2.1250
45.1300 29.9930 2.1287
45.1500 29.9801 2.1127
45.1700 29.9673 2.1079
45.1900 29.9538 2.0946
45.2100 29.9398 2.0889
45.2300 29.9257 2.0788
45.2500 29.9119 2.0747
45.2700 29.8984 2.0627
45.2900 29.8851 2.0561
45.3100 29.8718 2.0493
45.3300 29.8585 2.0409
45.3500 29.8451 2.0365
45.3700 29.8318 2.0287
45.3900 29.8184 2.0229
45.4100 29.8051 2.0157
45.4300 29.7917 2.0108
45.4500 29.7783 2.0026
45.4700 29.7650 1.9999
45.4900 29.7517 1.9911
45.5100 29.7383 1.9880
45.5300 29.7249 1.9802
45.5500 29.7116 1.9786
45.5700 29.6983 1.9693
45.5900 29.6850 1.9676
45.6100 29.6717 1.9600
45.6300 29.6583 1.9557
45.6500 29.6450 1.9509
45.6700 29.6317 1.9468
45.6900 29.6183 1.9420
45.7100 29.6050 1.9360
45.7300 29.5917 1.9343
45.7500 29.5784 1.9262
45.7700 29.5651 1.9257
45.7900 29.5517 1.9181
45.8100 29.5384 1.9161
45.8300 29.5250 1.9097
45.8500 29.5117 1.9077
45.8700 29.4984 1.9017
45.8900 29.4850 1.8996
45.9100 29.4716 1.8945
45.9300 29.4583 1.8903
45.9500 29.4450 1.8865
45.9700 29.4316 1.8828
45.9900 29.4183 1.8799
46.0100 29.4050 1.8745
46.0300 29.3917 1.8732
46.0500 29.3783 1.8665
46.0700 29.3650 1.8661
46.0900 29.3517 1.8607
46.1100 29.3384 1.8588
46.1300 29.3251 1.8534
46.1500 29.3117 1.8522
46.1700 29.2984 1.8460
46.1900 29.2851 1.8455
46.2100 29.2717 1.8400
46.2300 29.2584 1.8381
46.2500 29.2450 1.8332
46.2700 29.2316 1.8330
46.2900 29.2183 1.8268
46.3100 29.2050 1.8249
46.3300 29.1916 1.8219
46.3500 29.1782 1.8180
46.3700 29.1649 1.8160
46.3900 29.1516 1.8128
46.4100 29.1383 1.8095
46.4300 29.1250 1.8063
46.4500 29.1117 1.8053
46.4700 29.0984 1.7996
46.4900 29.0851 1.7999
46.5100 29.0717 1.7945
46.5300 29.0583 1.7935
46.5500 29.0450 1.7880
46.5700 29.0317 1.7885
46.5900 29.0183 1.7834
46.6100 29.0049 1.7816
46.6300 28.9916 1.7794
46.6500 28.9783 1.7751
46.6700 28.9650 1.7746
46.6900 28.9516 1.7699
46.7100 28.9382 1.7695
46.7300 28.9249 1.7636
46.7500 28.9116 1.7656
46.7700 28.8983 1.7575
46.7900 28.8850 1.7602
46.8100 28.8717 1.7544
46.8300 28.8584 1.7545
46.8500 28.8450 1.7485
46.8700 28.8317 1.7499
46.8900 28.8184 1.7443
46.9100 28.8050 1.7435
46.9300 28.7917 1.7409
46.9500 28.7783 1.7380
46.9700 28.7649 1.7364
46.9900 28.7516 1.7333
47.0100 28.7383 1.7317
47.0300 28.7249 1.7278
47.0500 28.7116 1.7287
47.0700 28.6983 1.7234
47.0900 28.6850 1.7231
47.1100 28.6717 1.7190
47.1300 28.6584 1.7192
47.1500 28.6450 1.7131
47.1700 28.6317 1.7163
47.1900 28.6184 1.7082
47.2100 28.6051 1.7103
47.2300 28.5917 1.7058
47.2500 28.5783 1.7056
47.2700 28.5650 1.7013
47.2900 28.5517 1.7018
47.3100 28.5384 1.6965
47.3300 28.5250 1.6970
47.3500 28.5116 1.6939
47.3700 28.4983 1.6915
47.3900 28.4850 1.6903
47.4100 28.4716 1.6867
47.4300 28.4583 1.6871
47.4500 28.4450 1.6825
47.4700 28.4316 1.6830
47.4900 28.4183 1.6781
47.5100 28.4050 1.6791
47.5300 28.3916 1.6751
47.5500 28.3783 1.6751
47.5700 28.3650 1.6700
47.5900 28.3517 1.6713
47.6100 28.3383 1.6674
47.6300 28.3250 1.6658
47.6500 28.3117 1.6642
47.6700 28.2983 1.6621
47.6900 28.2850 1.6593
47.7100 28.2716 1.6591
47.7300 28.2583 1.6563
47.7500 28.2450 1.6530
47.7700 28.2317 1.6549
47.7900 28.2183 1.6487
47.8100 28.2050 1.6511
47.8300 28.1916 1.6464
47.8500 28.1783 1.6463
47.8700 28.1649 1.6423
47.8900 28.1516 1.6441
47.9100 28.1383 1.6386
47.9300 28.1250 1.6401
47.9500 28.1117 1.6351
47.9700 28.0983 1.6359
47.9900 28.0850 1.6324
48.0100 28.0717 1.6311
48.0300 28.0583 1.6293
48.0500 28.0450 1.6270
48.0700 28.0316 1.6260
48.0900 28.0183 1.6247
48.1100 28.0050 1.6217
48.1300 27.9916 1.6206
48.1500 27.9783 1.6200
48.1700 27.9649 1.6152
48.1900 27.9516 1.6172
48.2100 27.9383 1.6127
48.2300 27.9250 1.6122
48.2500 27.9116 1.6108
48.2700 27.8984 1.6086
48.2900 27.8850 1.6065
48.3100 27.8717 1.6070
48.3300 27.8583 1.6027
48.3500 27.8450 1.6021
48.3700 27.8317 1.6010
48.3900 27.8184 1.5974
48.4100 27.8050 1.5978
48.4300 27.7916 1.5950
48.4500 27.7783 1.5960
48.4700 27.7650 1.5901
48.4900 27.7516 1.5927
48.5100 27.7383 1.5875
48.5300 27.7249 1.5894
48.5500 27.7116 1.5843
48.5700 27.6983 1.5863
48.5900 27.6850 1.5814
48.6100 27.6717 1.5822
48.6300 27.6584 1.5790
48.6500 27.6451 1.5783
48.6700 27.6317 1.5767
48.6900 27.6183 1.5755
48.7100 27.6050 1.5728
48.7300 27.5917 1.5722
48.7500 27.5783 1.5709
48.7700 27.5649 1.5675
48.7900 27.5516 1.5694
48.8100 27.5383 1.5644
48.8300 27.5250 1.5655
48.8500 27.5116 1.5607
48.8700 27.4983 1.5634
48.8900 27.4850 1.5578
48.9100 27.4717 1.5604
48.9300 27.4583 1.5554
48.9500 27.4450 1.5556
48.9700 27.4316 1.5532
48.9900 27.4183 1.5538
49.0100 27.4050 1.5489
49.0300 27.3917 1.5510
49.0500 27.3783 1.5477
49.0700 27.3650 1.5461
49.0900 27.3517 1.5462
49.1100 27.3383 1.5422
49.1300 27.3250 1.5435
49.1500 27.3116 1.5392
49.1700 27.2983 1.5412
49.1900 27.2850 1.5352
49.2100 27.2717 1.5386
49.2300 27.2583 1.5335
49.2500 27.2450 1.5346
49.2700 27.2317 1.5310
49.2900 27.2183 1.5328
49.3100 27.2050 1.5273
49.3300 27.1917 1.5295
49.3500 27.1783 1.5262
49.3700 27.1650 1.5254
49.3900 27.1517 1.5242
49.4100 27.1383 1.5228
49.4300 27.1250 1.5213
49.4500 27.1117 1.5191
49.4700 27.0983 1.5195
49.4900 27.0850 1.5155
49.5100 27.0716 1.5178
49.5300 27.0583 1.5135
49.5500 27.0450 1.5136
49.5700 27.0317 1.5097
49.5900 27.0183 1.5123
49.6100 27.0050 1.5066
49.6300 26.9917 1.5093
49.6500 26.9783 1.5045
49.6700 26.9650 1.5054
49.6900 26.9516 1.5030
49.7100 26.9383 1.5026
49.7300 26.9250 1.5001
49.7500 26.9117 1.4992
49.7700 26.8984 1.4984
49.7900 26.8850 1.4955
49.8100 26.8717 1.4960
49.8300 26.8584 1.4935
49.8500 26.8450 1.4927
49.8700 26.8316 1.4906
49.8900 26.8183 1.4913
49.9100 26.8050 1.4867
49.9300 26.7916 1.4883
49.9500 26.7783 1.4853
49.9700 26.7649 1.4851
49.9900 26.7516 1.4823
50.0100 26.7383 1.4836
50.0300 26.7250 1.4798
50.0500 26.7116 1.4801
50.0700 26.6983 1.4786
50.0900 26.6850 1.4763
50.1100 26.6717 1.4759
50.1300 26.6584 1.4745
50.1500 26.6450 1.4736
50.1700 26.6317 1.4705
50.1900 26.6184 1.4721
50.2100 26.6050 1.4672
50.2300 26.5916 1.4697
50.2500 26.5783 1.4657
50.2700 26.5649 1.4666
50.2900 26.5516 1.4626
50.3100 26.5383 1.4654
50.3300 26.5249 1.4594
50.3500 26.5116 1.4623
50.3700 26.4983 1.4579
50.3900 26.4850 1.4592
50.4100 26.4716 1.4559
50.4300 26.4583 1.4565
50.4500 26.4451 1.4540
50.4700 26.4317 1.4526
50.4900 26.4184 1.4528
50.5100 26.4050 1.4491
50.5300 26.3917 1.4507
50.5500 26.3783 1.4472
50.5700 26.3650 1.4478
50.5900 26.3516 1.4445
50.6100 26.3383 1.4464
50.6300 26.3250 1.4414
50.6500 26.3116 1.4435
50.6700 26.2983 1.4398
50.6900 26.2849 1.4407
50.7100 26.2716 1.4376
50.7300 26.2583 1.4382
50.7500 26.2450 1.4362
50.7700 26.2316 1.4350
50.7900 26.2183 1.4350
50.8100 26.2050 1.4318
50.8300 26.1917 1.4318
50.8500 26.1783 1.4305
50.8700 26.1650 1.4291
50.8900 26.1517 1.4265
50.9100 26.1383 1.4282
50.9300 26.1250 1.4233
50.9500 26.1116 1.4265
50.9700 26.0983 1.4214
50.9900 26.0850 1.4237
51.0100 26.0717 1.4188
51.0300 26.0583 1.4212
51.0500 26.0449 1.4165
51.0700 26.0316 1.4190
51.0900 26.0183 1.4151
51.1100 26.0050 1.4152
51.1300 25.9916 1.4130
51.1500 25.9783 1.4139
51.1700 25.9650 1.4110
51.1900 25.9517 1.4100
51.2100 25.9383 1.4106
51.2300 25.9250 1.4068
51.2500 25.9117 1.4086
51.2700 25.8984 1.4042
51.2900 25.8850 1.4066
51.3100 25.8716 1.4011
51.3300 25.8583 1.4051
51.3500 25.8450 1.3996
51.3700 25.8317 1.4016
51.3900 25.8183 1.3982
51.4100 25.8049 1.3989
51.4300 25.7916 1.3958
51.4500 25.7783 1.3970
51.4700 25.7650 1.3942
51.4900 25.7516 1.3937
51.5100 25.7383 1.3935
51.5300 25.7250 1.3904
51.5500 25.7117 1.3912
51.5700 25.6984 1.3881
51.5900 25.6850 1.3900
51.6100 25.6717 1.3855
51.6300 25.6584 1.3880
51.6500 25.6450 1.3834
51.6700 25.6316 1.3845
51.6900 25.6183 1.3830
51.7100 25.6050 1.3822
51.7300 25.5917 1.3799
51.7500 25.5783 1.3802
51.7700 25.5649 1.3783
51.7900 25.5516 1.3770
51.8100 25.5383 1.3768
51.8300 25.5250 1.3748
51.8500 25.5116 1.3745
51.8700 25.4983 1.3734
51.8900 25.4850 1.3721
51.9100 25.4717 1.3694
51.9300 25.4584 1.3717
51.9500 25.4450 1.3673
51.9700 25.4317 1.3686
51.9900 25.4184 1.3658
52.0100 25.4051 1.3669
52.0300 25.3917 1.3620
52.0500 25.3783 1.3651
52.0700 25.3650 1.3610
52.0900 25.3516 1.3615
52.1100 25.3383 1.3596
52.1300 25.3249 1.3599
52.1500 25.3116 1.3572
52.1700 25.2983 1.3574
52.1900 25.2850 1.3560
52.2100 25.2716 1.3538
52.2300 25.2583 1.3552
52.2500 25.2450 1.3510
52.2700 25.2317 1.3528
52.2900 25.2184 1.3493
52.3100 25.2050 1.3511
52.3300 25.1916 1.3469
52.3500 25.1783 1.3484
52.3700 25.1650 1.3454
52.3900 25.1516 1.3458
52.4100 25.1382 1.3443
52.4300 25.1249 1.3438
52.4500 25.1116 1.3409
52.4700 25.0983 1.3423
52.4900 25.0849 1.3401
52.5100 25.0716 1.3392
52.5300 25.0583 1.3391
52.5500 25.0450 1.3370
52.5700 25.0316 1.3364
52.5900 25.0183 1.3349
52.6100 25.0050 1.3352
52.6300 24.9917 1.3316
52.6500 24.9784 1.3336
52.6700 24.9650 1.3299
52.6900 24.9516 1.3314
52.7100 24.9383 1.3280
52.7300 24.9250 1.3297
52.7500 24.9116 1.3253
52.7700 24.8983 1.3279
52.7900 24.8849 1.3240
52.8100 24.8716 1.3248
52.8300 24.8583 1.3227
52.8500 24.8449 1.3229
52.8700 24.8316 1.3203
52.8900 24.8183 1.3201
52.9100 24.8050 1.3196
52.9300 24.7916 1.3167
52.9500 24.7783 1.3189
52.9700 24.7650 1.3146
52.9900 24.7517 1.3159
53.0100 24.7384 1.3130
53.0300 24.7250 1.3155
53.0500 24.7117 1.3099
53.0700 24.6983 1.3133
53.0900 24.6850 1.3083
53.1100 24.6716 1.3099
53.1300 24.6583 1.3077
53.1500 24.6450 1.3082
53.1700 24.6316 1.3053
53.1900 24.6183 1.3051
53.2100 24.6049 1.3051
53.2300 24.5916 1.3022
53.2500 24.5783 1.3043
53.2700 24.5650 1.2999
53.2900 24.5516 1.3020
53.3100 24.5383 1.2980
53.3300 24.5250 1.3001
53.3500 24.5117 1.2958
53.3700 24.4984 1.2977
53.3900 24.4850 1.2949
53.4100 24.4717 1.2950
53.4300 24.4584 1.2932
53.4500 24.4451 1.2935
53.4700 24.4317 1.2903
53.4900 24.4183 1.2920
53.5100 24.4049 1.2891
53.5300 24.3916 1.2881
53.5500 24.3783 1.2886
53.5700 24.3649 1.2865
53.5900 24.3516 1.2866
53.6100 24.3383 1.2838
53.6300 24.3250 1.2858
53.6500 24.3116 1.2812
53.6700 24.2983 1.2844
53.6900 24.2850 1.2804
53.7100 24.2717 1.2817
53.7300 24.2584 1.2776
53.7500 24.2450 1.2805
53.7700 24.2317 1.2749
53.7900 24.2183 1.2788
53.8100 24.2050 1.2745
53.8300 24.1916 1.2750
53.8500 24.1783 1.2736
53.8700 24.1649 1.2728
53.8900 24.1516 1.2718
53.9100 24.1383 1.2710
53.9300 24.1249 1.2710
53.9500 24.1116 1.2685
53.9700 24.0983 1.2689
53.9900 24.0850 1.2662
54.0100 24.0717 1.2675
54.0300 24.0583 1.2643
54.0500 24.0450 1.2662
54.0700 24.0317 1.2610
54.0900 24.0184 1.2643
54.1100 24.0050 1.2602
54.1300 23.9917 1.2613
54.1500 23.9784 1.2590
54.1700 23.9650 1.2594
54.1900 23.9516 1.2574
54.2100 23.9383 1.2571
54.2300 23.9249 1.2567
54.2500 23.9116 1.2545
54.2700 23.8983 1.2551
54.2900 23.8849 1.2527
54.3100 23.8716 1.2536
54.3300 23.8583 1.2503
54.3500 23.8450 1.2524
54.3700 23.8317 1.2480
54.3900 23.8184 1.2504
54.4100 23.8050 1.2471
54.4300 23.7917 1.2479
54.4500 23.7784 1.2446
54.4700 23.7651 1.2471
54.4900 23.7517 1.2431
54.5100 23.7383 1.2445
54.5300 23.7250 1.2418
54.5500 23.7116 1.2421
54.5700 23.6983 1.2401
54.5900 23.6849 1.2406
54.6100 23.6716 1.2378
54.6300 23.6583 1.2390
54.6500 23.6450 1.2372
54.6700 23.6316 1.2363
54.6900 23.6183 1.2360
54.7100 23.6050 1.2338
54.7300 23.5916 1.2348
54.7500 23.5783 1.2313
54.7700 23.5650 1.2331
54.7900 23.5517 1.2302
54.8100 23.5384 1.2307
54.8300 23.5250 1.2284
54.8500 23.5116 1.2296
54.8700 23.4983 1.2257
54.8900 23.4850 1.2281
54.9100 23.4717 1.2246
54.9300 23.4583 1.2249
54.9500 23.4450 1.2253
54.9700 23.4316 1.2211
54.9900 23.4183 1.2241
55.0100 23.4049 1.2205
55.0300 23.3916 1.2216
55.0500 23.3783 1.2182
55.0700 23.3650 1.2207
55.0900 23.3516 1.2152
55.1100 23.3383 1.2198
55.1300 23.3250 1.2148
55.1500 23.3117 1.2165
55.1700 23.2984 1.2139
55.1900 23.2850 1.2148
55.2100 23.2717 1.2125
55.2300 23.2583 1.2124
55.2500 23.2450 1.2114
55.2700 23.2317 1.2099
55.2900 23.2183 1.2106
55.3100 23.2050 1.2079
55.3300 23.1917 1.2089
55.3500 23.1783 1.2057
55.3700 23.1650 1.2071
55.3900 23.1516 1.2043
55.4100 23.1383 1.2060
55.4300 23.1250 1.2027
55.4500 23.1117 1.2046
55.4700 23.0983 1.1999
55.4900 23.0850 1.2032
55.5100 23.0717 1.1994
55.5300 23.0584 1.1998
55.5500 23.0450 1.1980
55.5700 23.0316 1.1985
55.5900 23.0183 1.1956
55.6100 23.0050 1.1973
55.6300 22.9917 1.1941
55.6500 22.9783 1.1944
55.6700 22.9649 1.1944
55.6900 22.9516 1.1909
55.7100 22.9383 1.1928
55.7300 22.9250 1.1901
55.7500 22.9116 1.1912
55.7700 22.8983 1.1879
55.7900 22.8850 1.1899
55.8100 22.8717 1.1865
55.8300 22.8583 1.1876
55.8500 22.8450 1.1853
55.8700 22.8317 1.1855
55.8900 22.8184 1.1838
55.9100 22.8050 1.1837
55.9300 22.7917 1.1830
55.9500 22.7783 1.1812
55.9700 22.7650 1.1818
55.9900 22.7516 1.1793
56.0100 22.7382 1.1806
56.0300 22.7249 1.1783
56.0500 22.7116 1.1794
56.0700 22.6983 1.1750
56.0900 22.6850 1.1773
56.1100 22.6716 1.1753
56.1300 22.6583 1.1746
56.1500 22.6450 1.1738
56.1700 22.6316 1.1730
56.1900 22.6183 1.1711
56.2100 22.6050 1.1725
56.2300 22.5917 1.1698
56.2500 22.5784 1.1701
56.2700 22.5650 1.1682
56.2900 22.5517 1.1687
56.3100 22.5383 1.1664
56.3300 22.5250 1.1675
56.3500 22.5117 1.1649
56.3700 22.4983 1.1648
56.3900 22.4850 1.1636
56.4100 22.4717 1.1634
56.4300 22.4583 1.1620
56.4500 22.4450 1.1615
56.4700 22.4316 1.1614
56.4900 22.4183 1.1580
56.5100 22.4050 1.1614
56.5300 22.3917 1.1556
56.5500 22.3783 1.1596
56.5700 22.3650 1.1553
56.5900 22.3517 1.1575
56.6100 22.3384 1.1533
56.6300 22.3250 1.1563
56.6500 22.3116 1.1527
56.6700 22.2983 1.1522
56.6900 22.2850 1.1524
56.7100 22.2717 1.1508
56.7300 22.2583 1.1507
56.7500 22.2450 1.1489
56.7700 22.2317 1.1495
56.7900 22.2183 1.1462
56.8100 22.2050 1.1487
56.8300 22.1916 1.1450
56.8500 22.1783 1.1473
56.8700 22.1650 1.1436
56.8900 22.1517 1.1455
56.9100 22.1383 1.1415
56.9300 22.1250 1.1445
56.9500 22.1117 1.1410
56.9700 22.0984 1.1418
56.9900 22.0850 1.1395
57.0100 22.0717 1.1402
57.0300 22.0583 1.1380
57.0500 22.0450 1.1389
57.0700 22.0317 1.1366
57.0900 22.0183 1.1358
57.1100 22.0049 1.1354
57.1300 21.9916 1.1342
57.1500 21.9783 1.1345
57.1700 21.9650 1.1329
57.1900 21.9516 1.1333
57.2100 21.9383 1.1293
57.2300 21.9250 1.1331
57.2500 21.9116 1.1281
57.2700 21.8983 1.1312
57.2900 21.8850 1.1268
57.3100 21.8717 1.1290
57.3300 21.8584 1.1250
57.3500 21.8450 1.1281
57.3700 21.8317 1.1247
57.3900 21.8183 1.1248
57.4100 21.8050 1.1240
57.4300 21.7917 1.1222
57.4500 21.7783 1.1228
57.4700 21.7649 1.1205
57.4900 21.7516 1.1234
57.5100 21.7383 1.1167
57.5300 21.7249 1.1217
57.5500 21.7116 1.1163
57.5700 21.6983 1.1197
57.5900 21.6850 1.1144
57.6100 21.6717 1.1180
57.6300 21.6583 1.1140
57.6500 21.6450 1.1160
57.6700 21.6317 1.1134
57.6900 21.6184 1.1124
57.7100 21.6050 1.1133
57.7300 21.5917 1.1108
57.7500 21.5783 1.1115
57.7700 21.5650 1.1093
57.7900 21.5517 1.1108
57.8100 21.5383 1.1066
57.8300 21.5250 1.1096
57.8500 21.5116 1.1061
57.8700 21.4983 1.1074
57.8900 21.4850 1.1040
57.9100 21.4716 1.1065
57.9300 21.4583 1.1026
57.9500 21.4450 1.1044
57.9700 21.4317 1.1023
57.9900 21.4183 1.1020
58.0100 21.4050 1.1006
58.0300 21.3917 1.1010
58.0500 21.3784 1.0989
58.0700 21.3650 1.0992
58.0900 21.3517 1.0985
58.1100 21.3383 1.0969
58.1300 21.3250 1.0965
58.1500 21.3117 1.0946
58.1700 21.2983 1.0961
58.1900 21.2849 1.0930
58.2100 21.2716 1.0957
58.2300 21.2584 1.0904
58.2500 21.2450 1.0945
58.2700 21.2316 1.0898
58.2900 21.2183 1.0920
58.3100 21.2050 1.0885
58.3300 21.1917 1.0904
58.3500 21.1783 1.0871
58.3700 21.1650 1.0884
58.3900 21.1517 1.0862
58.4100 21.1383 1.0865
58.4300 21.1250 1.0853
58.4500 21.1117 1.0834
58.4700 21.0983 1.0850
58.4900 21.0850 1.0810
58.5100 21.0717 1.0843
58.5300 21.0583 1.0786
58.5500 21.0450 1.0825
58.5700 21.0316 1.0788
58.5900 21.0183 1.0803
58.6100 21.0050 1.0766
58.6300 20.9916 1.0788
58.6500 20.9782 1.0757
58.6700 20.9649 1.0771
58.6900 20.9516 1.0746
58.7100 20.9383 1.0755
58.7300 20.9250 1.0731
58.7500 20.9117 1.0739
58.7700 20.8984 1.0720
58.7900 20.8850 1.0716
58.8100 20.8717 1.0721
58.8300 20.8583 1.0699
58.8500 20.8450 1.0698
58.8700 20.8317 1.0684
58.8900 20.8184 1.0688
58.9100 20.8050 1.0669
58.9300 20.7917 1.0673
58.9500 20.7783 1.0648
58.9700 20.7650 1.0661
58.9900 20.7516 1.0629
59.0100 20.7382 1.0654
59.0300 20.7249 1.0613
59.0500 20.7116 1.0645
59.0700 20.6983 1.0601
59.0900 20.6850 1.0616
59.1100 20.6717 1.0598
59.1300 20.6584 1.0592
59.1500 20.6451 1.0581
59.1700 20.6317 1.0583
59.1900 20.6183 1.0577
59.2100 20.6050 1.0558
59.2300 20.5917 1.0566
59.2500 20.5783 1.0531
59.2700 20.5650 1.0560
59.2900 20.5516 1.0519
59.3100 20.5383 1.0543
59.3300 20.5249 1.0501
59.3500 20.5116 1.0532
59.3700 20.4983 1.0494
59.3900 20.4850 1.0508
59.4100 20.4717 1.0486
59.4300 20.4583 1.0485
59.4500 20.4450 1.0480
59.4700 20.4317 1.0469
59.4900 20.4184 1.0474
59.5100 20.4051 1.0445
59.5300 20.3917 1.0472
59.5500 20.3783 1.0424
59.5700 20.3650 1.0449
59.5900 20.3517 1.0416
59.6100 20.3383 1.0433
59.6300 20.3249 1.0400
59.6500 20.3116 1.0425
59.6700 20.2983 1.0381
59.6900 20.2850 1.0408
59.7100 20.2716 1.0371
59.7300 20.2583 1.0393
59.7500 20.2450 1.0358
59.7700 20.2316 1.0377
59.7900 20.2183 1.0348
59.8100 20.2050 1.0359
59.8300 20.1917 1.0345
59.8500 20.1784 1.0336
59.8700 20.1651 1.0322
59.8900 20.1517 1.0326
59.9100 20.1383 1.0315
59.9300 20.1250 1.0308
59.9500 20.1117 1.0307
59.9700 20.0983 1.0287
59.9900 20.0849 1.0296
60.0100 20.0716 1.0269
60.0300 20.0583 1.0289
60.0500 20.0450 1.0255
60.0700 20.0316 1.0272
60.0900 20.0183 1.0241
60.1100 20.0050 1.0249
60.1300 19.9917 1.0240
60.1500 19.9783 1.0230
60.1700 19.9650 1.0233
60.1900 19.9517 1.0213
60.2100 19.9384 1.0219
60.2300 19.9251 1.0193
60.2500 19.9117 1.0215
60.2700 19.8983 1.0176
60.2900 19.8850 1.0198
60.3100 19.8717 1.0154
60.3300 19.8583 1.0190
60.3500 19.8450 1.0140
60.3700 19.8316 1.0179
60.3900 19.8183 1.0130
60.4100 19.8050 1.0151
60.4300 19.7916 1.0127
60.4500 19.7783 1.0141
60.4700 19.7649 1.0111
60.4900 19.7516 1.0120
60.5100 19.7383 1.0108
60.5300 19.7250 1.0101
60.5500 19.7117 1.0096
60.5700 19.6984 1.0084
60.5900 19.6850 1.0083
60.6100 19.6717 1.0067
60.6300 19.6584 1.0081
60.6500 19.6451 1.0040
60.6700 19.6317 1.0066
60.6900 19.6184 1.0027
60.7100 19.6050 1.0051
60.7300 19.5916 1.0018
60.7500 19.5783 1.0036
60.7700 19.5650 1.0001
60.7900 19.5516 1.0015
60.8100 19.5382 1.0004
60.8300 19.5249 1.0002
60.8500 19.5116 0.9982
60.8700 19.4983 0.9986
60.8900 19.4850 0.9974
60.9100 19.4717 0.9968
60.9300 19.4584 0.9974
60.9500 19.4451 0.9938
60.9700 19.4317 0.9964
60.9900 19.4183 0.9922
61.0100 19.4050 0.9953
61.0300 19.3917 0.9906
61.0500 19.3783 0.9944
61.0700 19.3650 0.9891
61.0900 19.3516 0.9921
61.1100 19.3383 0.9889
61.1300 19.3250 0.9901
61.1500 19.3116 0.9880
61.1700 19.2983 0.9886
61.1900 19.2849 0.9874
61.2100 19.2717 0.9864
61.2300 19.2583 0.9867
61.2500 19.2450 0.9849
61.2700 19.2317 0.9865
61.2900 19.2184 0.9822
61.3100 19.2051 0.9851
61.3300 19.1917 0.9804
61.3500 19.1784 0.9854
61.3700 19.1650 0.9788
61.3900 19.1517 0.9821
61.4100 19.1383 0.9790
61.4300 19.1249 0.9804
61.4500 19.1116 0.9774
61.4700 19.0983 0.9793
61.4900 19.0849 0.9759
61.5100 19.0716 0.9773
61.5300 19.0583 0.9760
61.5500 19.0450 0.9756
61.5700 19.0317 0.9748
61.5900 19.0183 0.9744
61.6100 19.0050 0.9741
61.6300 18.9917 0.9723
61.6500 18.9784 0.9734
61.6700 18.9651 0.9701
61.6900 18.9517 0.9724
61.7100 18.9383 0.9690
61.7300 18.9250 0.9711
61.7500 18.9117 0.9670
61.7700 18.8984 0.9702
61.7900 18.8850 0.9649
61.8100 18.8716 0.9688
61.8300 18.8583 0.9644
61.8500 18.8450 0.9668
61.8700 18.8316 0.9636
61.8900 18.8183 0.9651
61.9100 18.8049 0.9631
61.9300 18.7916 0.9619
61.9500 18.7783 0.9641
61.9700 18.7650 0.9598
61.9900 18.7516 0.9628
62.0100 18.7383 0.9580
62.0300 18.7250 0.9615
62.0500 18.7117 0.9560
62.0700 18.6983 0.9615
62.0900 18.6850 0.9548
62.1100 18.6717 0.9584
62.1300 18.6583 0.9543
62.1500 18.6450 0.9573
62.1700 18.6316 0.9531
62.1900 18.6183 0.9559
62.2100 18.6050 0.9525
62.2300 18.5916 0.9525
62.2500 18.5783 0.9526
62.2700 18.5650 0.9510
62.2900 18.5516 0.9510
62.3100 18.5383 0.9490
62.3300 18.5250 0.9499
62.3500 18.5116 0.9477
62.3700 18.4983 0.9494
62.3900 18.4850 0.9458
62.4100 18.4717 0.9476
62.4300 18.4583 0.9453
62.4500 18.4450 0.9462
62.4700 18.4317 0.9434
62.4900 18.4184 0.9452
62.5100 18.4050 0.9422
62.5300 18.3916 0.9432
62.5500 18.3783 0.9416
62.5700 18.3650 0.9413
62.5900 18.3516 0.9403
62.6100 18.3383 0.9401
62.6300 18.3250 0.9398
62.6500 18.3117 0.9376
62.6700 18.2983 0.9395
62.6900 18.2850 0.9359
62.7100 18.2716 0.9389
62.7300 18.2584 0.9351
62.7500 18.2451 0.9373
62.7700 18.2317 0.9330
62.7900 18.2183 0.9366
62.8100 18.2050 0.9314
62.8300 18.1917 0.9346
62.8500 18.1784 0.9305
62.8700 18.1650 0.9327
62.8900 18.1516 0.9302
62.9100 18.1383 0.9308
62.9300 18.1250 0.9299
62.9500 18.1116 0.9272
62.9700 18.0983 0.9302
62.9900 18.0849 0.9268
63.0100 18.0716 0.9281
63.0300 18.0583 0.9257
63.0500 18.0450 0.9270
63.0700 18.0317 0.9238
63.0900 18.0184 0.9266
63.1100 18.0051 0.9217
63.1300 17.9917 0.9251
63.1500 17.9783 0.9213
63.1700 17.9650 0.9237
63.1900 17.9517 0.9204
63.2100 17.9383 0.9219
63.2300 17.9250 0.9192
63.2500 17.9116 0.9196
63.2700 17.8983 0.9184
63.2900 17.8850 0.9180
63.3100 17.8716 0.9171
63.3300 17.8583 0.9166
63.3500 17.8450 0.9165
63.3700 17.8317 0.9143
63.3900 17.8183 0.9158
63.4100 17.8050 0.9130
63.4300 17.7917 0.9141
63.4500 17.7783 0.9109
63.4700 17.7650 0.9137
63.4900 17.7517 0.9088
63.5100 17.7383 0.9131
63.5300 17.7250 0.9090
63.5500 17.7117 0.9102
63.5700 17.6984 0.9078
63.5900 17.6850 0.9092
63.6100 17.6716 0.9064
63.6300 17.6583 0.9078
63.6500 17.6450 0.9055
63.6700 17.6317 0.9052
63.6900 17.6183 0.9053
63.7100 17.6049 0.9045
63.7300 17.5917 0.9041
63.7500 17.5783 0.9021
63.7700 17.5650 0.9039
63.7900 17.5516 0.9003
63.8100 17.5383 0.9025
63.8300 17.5250 0.8994
63.8500 17.5117 0.9005
63.8700 17.4983 0.8975
63.8900 17.4850 0.9001
63.9100 17.4717 0.8965
63.9300 17.4583 0.8984
63.9500 17.4450 0.8959
63.9700 17.4316 0.8962
63.9900 17.4183 0.8946
64.0100 17.4050 0.8954
64.0300 17.3917 0.8930
64.0500 17.3783 0.8935
64.0700 17.3649 0.8933
64.0900 17.3516 0.8917
64.1100 17.3383 0.8915
64.1300 17.3250 0.8910
64.1500 17.3116 0.8900
64.1700 17.2983 0.8898
64.1900 17.2850 0.8894
64.2100 17.2717 0.8872
64.2300 17.2584 0.8884
64.2500 17.2450 0.8866
64.2700 17.2317 0.8867
64.2900 17.2184 0.8846
64.3100 17.2050 0.8863
64.3300 17.1916 0.8827
64.3500 17.1783 0.8850
64.3700 17.1650 0.8822
64.3900 17.1516 0.8828
64.4100 17.1383 0.8815
64.4300 17.1249 0.8816
64.4500 17.1116 0.8805
64.4700 17.0983 0.8799
64.4900 17.0850 0.8798
64.5100 17.0716 0.8774
64.5300 17.0583 0.8795
64.5500 17.0450 0.8763
64.5700 17.0317 0.8773
64.5900 17.0184 0.8747
64.6100 17.0050 0.8773
64.6300 16.9917 0.8729
64.6500 16.9784 0.8751
64.6700 16.9650 0.8723
64.6900 16.9516 0.8736
64.7100 16.9383 0.8716
64.7300 16.9250 0.8721
64.7500 16.9116 0.8707
64.7700 16.8983 0.8698
64.7900 16.8849 0.8703
64.8100 16.8716 0.8682
64.8300 16.8583 0.8689
64.8500 16.8450 0.8676
64.8700 16.8316 0.8677
64.8900 16.8183 0.8654
64.9100 16.8050 0.8672
64.9300 16.7917 0.8636
64.9500 16.7784 0.8659
64.9700 16.7650 0.8629
64.9900 16.7517 0.8639
65.0100 16.7384 0.8612
65.0300 16.7250 0.8636
65.0500 16.7116 0.8603
65.0700 16.6983 0.8608
65.0900 16.6850 0.8603
65.1100 16.6716 0.8579
65.1300 16.6583 0.8596
65.1500 16.6449 0.8577
65.1700 16.6316 0.8579
65.1900 16.6183 0.8562
65.2100 16.6050 0.8574
65.2300 16.5917 0.8535
65.2500 16.5783 0.8569
65.2700 16.5650 0.8525
65.2900 16.5517 0.8553
65.3100 16.5383 0.8511
65.3300 16.5250 0.8547
65.3500 16.5117 0.8505
65.3700 16.4984 0.8517
65.3900 16.4850 0.8502
65.4100 16.4716 0.8502
65.4300 16.4583 0.8489
65.4500 16.4450 0.8491
65.4700 16.4317 0.8473
65.4900 16.4183 0.8469
65.5100 16.4049 0.8472
65.5300 16.3916 0.8452
65.5500 16.3783 0.8459
65.5700 16.3650 0.8445
65.5900 16.3516 0.8454
65.6100 16.3383 0.8422
65.6300 16.3250 0.8444
65.6500 16.3117 0.8402
65.6700 16.2983 0.8429
65.6900 16.2850 0.8402
65.7100 16.2717 0.8409
65.7300 16.2584 0.8383
65.7500 16.2450 0.8393
65.7700 16.2317 0.8383
65.7900 16.2183 0.8382
65.8100 16.2050 0.8375
65.8300 16.1916 0.8360
65.8500 16.1783 0.8365
65.8700 16.1649 0.8347
65.8900 16.1516 0.8360
65.9100 16.1383 0.8322
65.9300 16.1250 0.8355
65.9500 16.1116 0.8314
65.9700 16.0983 0.8331
65.9900 16.0850 0.8308
66.0100 16.0717 0.8321
66.0300 16.0584 0.8288
66.0500 16.0450 0.8312
66.0700 16.0317 0.8284
66.0900 16.0184 0.8278
66.1100 16.0050 0.8282
66.1300 15.9917 0.8269
66.1500 15.9783 0.8265
66.1700 15.9650 0.8259
66.1900 15.9517 0.8257
66.2100 15.9383 0.8233
66.2300 15.9249 0.8254
66.2500 15.9116 0.8223
66.2700 15.8983 0.8239
66.2900 15.8850 0.8206
66.3100 15.8716 0.8231
66.3300 15.8583 0.8186
66.3500 15.8450 0.8220
66.3700 15.8317 0.8183
66.3900 15.8184 0.8199
66.4100 15.8050 0.8177
66.4300 15.7917 0.8190
66.4500 15.7784 0.8155
66.4700 15.7651 0.8175
66.4900 15.7517 0.8156
66.5100 15.7383 0.8148
66.5300 15.7249 0.8157
66.5500 15.7116 0.8126
66.5700 15.6983 0.8144
66.5900 15.6849 0.8117
66.6100 15.6716 0.8133
66.6300 15.6583 0.8093
66.6500 15.6450 0.8128
66.6700 15.6317 0.8080
66.6900 15.6183 0.8104
66.7100 15.6050 0.8082
66.7300 15.5917 0.8090
66.7500 15.5784 0.8065
66.7700 15.5650 0.8081
66.7900 15.5516 0.8067
66.8100 15.5383 0.8041
66.8300 15.5250 0.8062
66.8500 15.5116 0.8029
66.8700 15.4983 0.8048
66.8900 15.4849 0.8019
66.9100 15.4716 0.8039
66.9300 15.4583 0.7994
66.9500 15.4449 0.8035
66.9700 15.4316 0.7993
66.9900 15.4183 0.8014
67.0100 15.4050 0.7985
67.0300 15.3916 0.8006
67.0500 15.3783 0.7962
67.0700 15.3651 0.7994
67.0900 15.3518 0.7957
67.1100 15.3384 0.7969
67.1300 15.3250 0.7949
67.1500 15.3116 0.7958
67.1700 15.2983 0.7930
67.1900 15.2850 0.7943
67.2100 15.2716 0.7930
67.2300 15.2583 0.7912
67.2500 15.2449 0.7937
67.2700 15.2316 0.7890
67.2900 15.2183 0.7918
67.3100 15.2049 0.7879
67.3300 15.1916 0.7916
67.3500 15.1783 0.7858
67.3700 15.1650 0.7900
67.3900 15.1517 0.7854
67.4100 15.1383 0.7886
67.4300 15.1250 0.7844
67.4500 15.1117 0.7872
67.4700 15.0984 0.7828
67.4900 15.0850 0.7857
67.5100 15.0717 0.7836
67.5300 15.0583 0.7816
67.5500 15.0450 0.7837
67.5700 15.0317 0.7801
67.5900 15.0183 0.7821
67.6100 15.0049 0.7788
67.6300 14.9916 0.7815
67.6500 14.9783 0.7770
67.6700 14.9649 0.7802
67.6900 14.9516 0.7770
67.7100 14.9383 0.7776
67.7300 14.9250 0.7765
67.7500 14.9116 0.7770
67.7700 14.8983 0.7741
67.7900 14.8850 0.7759
67.8100 14.8717 0.7742
67.8300 14.8584 0.7732
67.8500 14.8450 0.7739
67.8700 14.8317 0.7724
67.8900 14.8184 0.7715
67.9100 14.8051 0.7704
67.9300 14.7917 0.7709
67.9500 14.7783 0.7689
67.9700 14.7649 0.7701
67.9900 14.7516 0.7676
68.0100 14.7383 0.7686
68.0300 14.7249 0.7659
68.0500 14.7116 0.7690
68.0700 14.6983 0.7627
68.0900 14.6850 0.7681
68.1100 14.6717 0.7626
68.1300 14.6583 0.7660
68.1500 14.6450 0.7615
68.1700 14.6317 0.7646
68.1900 14.6184 0.7603
68.2100 14.6050 0.7628
68.2300 14.5917 0.7607
68.2500 14.5783 0.7600
68.2700 14.5650 0.7596
68.2900 14.5516 0.7585
68.3100 14.5383 0.7588
68.3300 14.5249 0.7565
68.3500 14.5116 0.7587
68.3700 14.4983 0.7541
68.3900 14.4849 0.7575
68.4100 14.4716 0.7543
68.4300 14.4583 0.7547
68.4500 14.4450 0.7532
68.4700 14.4317 0.7542
68.4900 14.4183 0.7520
68.5100 14.4050 0.7522
68.5300 14.3917 0.7515
68.5500 14.3784 0.7500
68.5700 14.3651 0.7506
68.5900 14.3517 0.7495
68.6100 14.3384 0.7487
68.6300 14.3250 0.7473
68.6500 14.3116 0.7485
68.6700 14.2983 0.7455
68.6900 14.2849 0.7473
68.7100 14.2716 0.7448
68.7300 14.2583 0.7456
68.7500 14.2449 0.7428
68.7700 14.2316 0.7455
68.7900 14.2183 0.7414
68.8100 14.2050 0.7436
68.8300 14.1917 0.7413
68.8500 14.1783 0.7421
68.8700 14.1650 0.7399
68.8900 14.1517 0.7410
68.9100 14.1384 0.7389
68.9300 14.1250 0.7392
68.9500 14.1117 0.7383
68.9700 14.0983 0.7364
68.9900 14.0850 0.7374
69.0100 14.0717 0.7352
69.0300 14.0583 0.7364
69.0500 14.0449 0.7337
69.0700 14.0316 0.7364
69.0900 14.0183 0.7312
69.1100 14.0050 0.7354
69.1300 13.9916 0.7311
69.1500 13.9783 0.7329
69.1700 13.9650 0.7303
69.1900 13.9517 0.7314
69.2100 13.9383 0.7292
69.2300 13.9250 0.7298
69.2500 13.9117 0.7284
69.2700 13.8984 0.7272
69.2900 13.8850 0.7276
69.3100 13.8717 0.7262
69.3300 13.8583 0.7267
69.3500 13.8450 0.7240
69.3700 13.8317 0.7263
69.3900 13.8183 0.7222
69.4100 13.8049 0.7250
69.4300 13.7916 0.7213
69.4500 13.7783 0.7230
69.4700 13.7649 0.7207
69.4900 13.7516 0.7222
69.5100 13.7383 0.7195
69.5300 13.7250 0.7199
69.5500 13.7116 0.7193
69.5700 13.6983 0.7180
69.5900 13.6850 0.7179
69.6100 13.6717 0.7173
69.6300 13.6583 0.7162
69.6500 13.6450 0.7157
69.6700 13.6316 0.7166
69.6900 13.6183 0.7134
69.7100 13.6050 0.7154
69.7300 13.5917 0.7126
69.7500 13.5783 0.7135
69.7700 13.5649 0.7109
69.7900 13.5516 0.7132
69.8100 13.5383 0.7089
69.8300 13.5250 0.7111
69.8500 13.5116 0.7088
69.8700 13.4983 0.7100
69.8900 13.4850 0.7064
69.9100 13.4717 0.7087
69.9300 13.4583 0.7059
69.9500 13.4450 0.7071
69.9700 13.4317 0.7053
69.9900 13.4184 0.7042
70.0100 13.4050 0.7043
70.0300 13.3917 0.7033
70.0500 13.3783 0.7035
70.0700 13.3650 0.7006
70.0900 13.3517 0.7028
70.1100 13.3383 0.6991
70.1300 13.3249 0.7015
70.1500 13.3116 0.6988
70.1700 13.2983 0.7001
70.1900 13.2850 0.6965
70.2100 13.2716 0.6998
70.2300 13.2583 0.6957
70.2500 13.2450 0.6977
70.2700 13.2317 0.6954
70.2900 13.2184 0.6954
70.3100 13.2050 0.6937
70.3300 13.1917 0.6950
70.3500 13.1784 0.6933
70.3700 13.1650 0.6919
70.3900 13.1517 0.6929
70.4100 13.1383 0.6907
70.4300 13.1250 0.6906
70.4500 13.1116 0.6903
70.4700 13.0983 0.6901
70.4900 13.0849 0.6881
70.5100 13.0716 0.6894
70.5300 13.0583 0.6862
70.5500 13.0450 0.6881
70.5700 13.0316 0.6859
70.5900 13.0183 0.6874
70.6100 13.0050 0.6827
70.6300 12.9917 0.6862
70.6500 12.9783 0.6828
70.6700 12.9650 0.6839
70.6900 12.9517 0.6825
70.7100 12.9384 0.6824
70.7300 12.9250 0.6808
70.7500 12.9116 0.6810
70.7700 12.8983 0.6798
70.7900 12.8850 0.6792
70.8100 12.8717 0.6795
70.8300 12.8583 0.6769
70.8500 12.8449 0.6784
70.8700 12.8316 0.6755
70.8900 12.8183 0.6776
70.9100 12.8050 0.6736
70.9300 12.7916 0.6766
70.9500 12.7783 0.6731
70.9700 12.7650 0.6743
70.9900 12.7517 0.6723
71.0100 12.7383 0.6727
71.0300 12.7250 0.6717
71.0500 12.7117 0.6708
71.0700 12.6984 0.6705
71.0900 12.6850 0.6686
71.1100 12.6716 0.6708
71.1300 12.6583 0.6679
71.1500 12.6450 0.6684
71.1700 12.6317 0.6664
71.1900 12.6183 0.6676
71.2100 12.6050 0.6644
71.2300 12.5916 0.6670
71.2500 12.5783 0.6635
71.2700 12.5650 0.6649
71.2900 12.5516 0.6622
71.3100 12.5383 0.6638
71.3300 12.5250 0.6604
71.3500 12.5117 0.6622
71.3700 12.4983 0.6598
71.3900 12.4850 0.6599
71.4100 12.4717 0.6591
71.4300 12.4584 0.6586
71.4500 12.4450 0.6568
71.4700 12.4317 0.6575
71.4900 12.4183 0.6567
71.5100 12.4050 0.6549
71.5300 12.3917 0.6561
71.5500 12.3783 0.6531
71.5700 12.3650 0.6557
71.5900 12.3516 0.6523
71.6100 12.3383 0.6546
71.6300 12.3249 0.6500
71.6500 12.3116 0.6539
71.6700 12.2983 0.6496
71.6900 12.2850 0.6510
71.7100 12.2716 0.6492
71.7300 12.2583 0.6497
71.7500 12.2450 0.6468
71.7700 12.2317 0.6488
71.7900 12.2184 0.6467
71.8100 12.2051 0.6459
71.8300 12.1917 0.6467
71.8500 12.1783 0.6445
71.8700 12.1650 0.6454
71.8900 12.1517 0.6422
71.9100 12.1383 0.6449
71.9300 12.1249 0.6408
71.9500 12.1116 0.6433
71.9700 12.0983 0.6404
71.9900 12.0849 0.6403
72.0100 12.0716 0.6396
72.0300 12.0582 0.6403
72.0500 12.0449 0.6379
72.0700 12.0316 0.6390
72.0900 12.0183 0.6366
72.1100 12.0050 0.6367
72.1300 11.9917 0.6363
72.1500 11.9784 0.6357
72.1700 11.9650 0.6348
72.1900 11.9517 0.6338
72.2100 11.9383 0.6343
72.2300 11.9250 0.6318
72.2500 11.9117 0.6331
72.2700 11.8983 0.6306
72.2900 11.8850 0.6319
72.3100 11.8716 0.6288
72.3300 11.8583 0.6311
72.3500 11.8450 0.6259
72.3700 11.8316 0.6308
72.3900 11.8183 0.6249
72.4100 11.8050 0.6290
72.4300 11.7917 0.6242
72.4500 11.7783 0.6281
72.4700 11.7650 0.6228
72.4900 11.7517 0.6255
72.5100 11.7384 0.6236
72.5300 11.7250 0.6220
72.5500 11.7117 0.6230
72.5700 11.6983 0.6216
72.5900 11.6850 0.6217
72.6100 11.6717 0.6188
72.6300 11.6583 0.6209
72.6500 11.6449 0.6171
72.6700 11.6316 0.6202
72.6900 11.6184 0.6160
72.7100 11.6050 0.6177
72.7300 11.5917 0.6152
72.7500 11.5783 0.6171
72.7700 11.5650 0.6145
72.7900 11.5517 0.6148
72.8100 11.5383 0.6141
72.8300 11.5250 0.6124
72.8500 11.5117 0.6130
72.8700 11.4984 0.6112
72.8900 11.4850 0.6114
72.9100 11.4717 0.6093
72.9300 11.4583 0.6106
72.9500 11.4450 0.6082
72.9700 11.4317 0.6090
72.9900 11.4183 0.6073
73.0100 11.4050 0.6069
73.0300 11.3916 0.6056
73.0500 11.3783 0.6071
73.0700 11.3650 0.6025
73.0900 11.3516 0.6060
73.1100 11.3383 0.6027
73.1300 11.3249 0.6037
73.1500 11.3116 0.6014
73.1700 11.2983 0.6026
73.1900 11.2850 0.5998
73.2100 11.2717 0.6005
73.2300 11.2584 0.5998
73.2500 11.2451 0.5986
73.2700 11.2317 0.5983
73.2900 11.2183 0.5973
73.3100 11.2050 0.5976
73.3300 11.1917 0.5951
73.3500 11.1783 0.5976
73.3700 11.1650 0.5930
73.3900 11.1516 0.5968
73.4100 11.1383 0.5919
73.4300 11.1250 0.5940
73.4500 11.1116 0.5910
73.4700 11.0982 0.5927
73.4900 11.0849 0.5906
73.5100 11.0716 0.5892
73.5300 11.0583 0.5906
73.5500 11.0449 0.5876
73.5700 11.0316 0.5898
73.5900 11.0184 0.5869
73.6100 11.0051 0.5883
73.6300 10.9917 0.5848
73.6500 10.9784 0.5883
73.6700 10.9651 0.5828
73.6900 10.9517 0.5863
73.7100 10.9384 0.5830
73.7300 10.9250 0.5836
73.7500 10.9116 0.5814
73.7700 10.8983 0.5829
73.7900 10.8849 0.5804
73.8100 10.8716 0.5805
73.8300 10.8583 0.5805
73.8500 10.8450 0.5786
73.8700 10.8317 0.5785
73.8900 10.8183 0.5771
73.9100 10.8050 0.5776
73.9300 10.7917 0.5759
73.9500 10.7784 0.5766
73.9700 10.7651 0.5735
73.9900 10.7517 0.5754
74.0100 10.7383 0.5725
74.0300 10.7250 0.5744
74.0500 10.7117 0.5698
74.0700 10.6983 0.5740
74.0900 10.6850 0.5682
74.1100 10.6716 0.5725
74.1300 10.6583 0.5681
74.1500 10.6450 0.5701
74.1700 10.6316 0.5674
74.1900 10.6183 0.5692
74.2100 10.6050 0.5661
74.2300 10.5917 0.5666
74.2500 10.5783 0.5659
74.2700 10.5650 0.5644
74.2900 10.5517 0.5652
74.3100 10.5384 0.5621
74.3300 10.5251 0.5644
74.3500 10.5117 0.5598
74.3700 10.4983 0.5639
74.3900 10.4850 0.5585
74.4100 10.4717 0.5616
74.4300 10.4583 0.5583
74.4500 10.4449 0.5593
74.4700 10.4316 0.5566
74.4900 10.4183 0.5582
74.5100 10.4050 0.5562
74.5300 10.3916 0.5553
74.5500 10.3783 0.5555
74.5700 10.3650 0.5540
74.5900 10.3517 0.5533
74.6100 10.3383 0.5535
74.6300 10.3250 0.5525
74.6500 10.3117 0.5508
74.6700 10.2984 0.5524
74.6900 10.2851 0.5488
74.7100 10.2717 0.5505
74.7300 10.2583 0.5482
74.7500 10.2450 0.5495
74.7700 10.2317 0.5460
74.7900 10.2183 0.5488
74.8100 10.2050 0.5447
74.8300 10.1916 0.5470
74.8500 10.1783 0.5436
74.8700 10.1650 0.5455
74.8900 10.1516 0.5418
74.9100 10.1383 0.5447
74.9300 10.1249 0.5407
74.9500 10.1116 0.5417
74.9700 10.0983 0.5412
74.9900 10.0850 0.5403
75.0100 10.0716 0.5399
75.0300 10.0583 0.5378
75.0500 10.0450 0.5395
75.0700 10.0317 0.5360
75.0900 10.0184 0.5386
75.1100 10.0050 0.5352
75.1300 9.9917 0.5358
75.1500 9.9784 0.5334
75.1700 9.9650 0.5355
75.1900 9.9516 0.5314
75.2100 9.9383 0.5347
75.2300 9.9250 0.5302
75.2500 9.9116 0.5315
75.2700 9.8982 0.5312
75.2900 9.8849 0.5296
75.3100 9.8716 0.5299
75.3300 9.8583 0.5280
75.3500 9.8450 0.5294
75.3700 9.8317 0.5259
75.3900 9.8184 0.5290
75.4100 9.8051 0.5243
75.4300 9.7917 0.5270
75.4500 9.7783 0.5233
75.4700 9.7650 0.5260
75.4900 9.7517 0.5212
75.5100 9.7383 0.5239
75.5300 9.7250 0.5206
75.5500 9.7116 0.5215
75.5700 9.6983 0.5197
75.5900 9.6850 0.5196
75.6100 9.6716 0.5183
75.6300 9.6583 0.5182
75.6500 9.6449 0.5179
75.6700 9.6317 0.5156
75.6900 9.6183 0.5171
75.7100 9.6050 0.5140
75.7300 9.5917 0.5150
75.7500 9.5784 0.5127
75.7700 9.5651 0.5144
75.7900 9.5517 0.5107
75.8100 9.5384 0.5134
75.8300 9.5250 0.5093
75.8500 9.5117 0.5112
75.8700 9.4983 0.5081
75.8900 9.4849 0.5105
75.9100 9.4716 0.5073
75.9300 9.4583 0.5092
75.9500 9.4450 0.5059
75.9700 9.4316 0.5068
75.9900 9.4183 0.5054
76.0100 9.4049 0.5054
76.0300 9.3917 0.5040
76.0500 9.3783 0.5036
76.0700 9.3650 0.5031
76.0900 9.3517 0.5011
76.1100 9.3384 0.5018
76.1300 9.3251 0.5000
76.1500 9.3118 0.5002
76.1700 9.2984 0.4986
76.1900 9.2850 0.4990
76.2100 9.2717 0.4961
76.2300 9.2583 0.4978
76.2500 9.2450 0.4959
76.2700 9.2316 0.4953
76.2900 9.2183 0.4948
76.3100 9.2050 0.4936
76.3300 9.1916 0.4935
76.3500 9.1783 0.4924
76.3700 9.1649 0.4927
76.3900 9.1516 0.4904
76.4100 9.1383 0.4912
76.4300 9.1250 0.4894
76.4500 9.1116 0.4899
76.4700 9.0983 0.4880
76.4900 9.0850 0.4894
76.5100 9.0717 0.4850
76.5300 9.0583 0.4890
76.5500 9.0450 0.4844
76.5700 9.0317 0.4861
76.5900 9.0183 0.4829
76.6100 9.0050 0.4852
76.6300 8.9916 0.4815
76.6500 8.9783 0.4834
76.6700 8.9650 0.4806
76.6900 8.9516 0.4813
76.7100 8.9383 0.4793
76.7300 8.9249 0.4802
76.7500 8.9116 0.4777
76.7700 8.8983 0.4778
76.7900 8.8850 0.4781
76.8100 8.8716 0.4751
76.8300 8.8583 0.4775
76.8500 8.8450 0.4736
76.8700 8.8317 0.4753
76.8900 8.8183 0.4721
76.9100 8.8050 0.4747
76.9300 8.7917 0.4703
76.9500 8.7784 0.4729
76.9700 8.7650 0.4699
76.9900 8.7516 0.4715
77.0100 8.7383 0.4687
77.0300 8.7250 0.4703
77.0500 8.7116 0.4667
77.0700 8.6983 0.4677
77.0900 8.6849 0.4679
77.1100 8.6716 0.4649
77.1300 8.6583 0.4660
77.1500 8.6450 0.4635
77.1700 8.6316 0.4641
77.1900 8.6183 0.4617
77.2100 8.6051 0.4640
77.2300 8.5917 0.4593
77.2500 8.5783 0.4622
77.2700 8.5650 0.4589
77.2900 8.5517 0.4597
77.3100 8.5384 0.4569
77.3300 8.5250 0.4587
77.3500 8.5116 0.4546
77.3700 8.4983 0.4572
77.3900 8.4849 0.4550
77.4100 8.4716 0.4551
77.4300 8.4583 0.4530
77.4500 8.4450 0.4538
77.4700 8.4316 0.4527
77.4900 8.4183 0.4518
77.5100 8.4050 0.4519
77.5300 8.3917 0.4502
77.5500 8.3784 0.4508
77.5700 8.3651 0.4486
77.5900 8.3517 0.4493
77.6100 8.3384 0.4468
77.6300 8.3250 0.4490
77.6500 8.3117 0.4438
77.6700 8.2983 0.4463
77.6900 8.2850 0.4436
77.7100 8.2716 0.4440
77.7300 8.2583 0.4422
77.7500 8.2450 0.4422
77.7700 8.2317 0.4409
77.7900 8.2183 0.4399
77.8100 8.2049 0.4405
77.8300 8.1916 0.4379
77.8500 8.1783 0.4390
77.8700 8.1650 0.4367
77.8900 8.1516 0.4379
77.9100 8.1383 0.4348
77.9300 8.1250 0.4371
77.9500 8.1117 0.4335
77.9700 8.0983 0.4347
77.9900 8.0850 0.4328
78.0100 8.0716 0.4335
78.0300 8.0583 0.4305
78.0500 8.0450 0.4322
78.0700 8.0316 0.4301
78.0900 8.0183 0.4297
78.1100 8.0050 0.4307
78.1300 7.9916 0.4272
78.1500 7.9783 0.4287
78.1700 7.9649 0.4265
78.1900 7.9516 0.4264
78.2100 7.9383 0.4257
78.2300 7.9250 0.4254
78.2500 7.9117 0.4227
78.2700 7.8983 0.4255
78.2900 7.8850 0.4209
78.3100 7.8717 0.4249
78.3300 7.8583 0.4179
78.3500 7.8450 0.4240
78.3700 7.8317 0.4166
78.3900 7.8183 0.4214
78.4100 7.8050 0.4153
78.4300 7.7916 0.4199
78.4500 7.7783 0.4146
78.4700 7.7650 0.4186
78.4900 7.7517 0.4134
78.5100 7.7383 0.4155
78.5300 7.7250 0.4138
78.5500 7.7116 0.4129
78.5700 7.6983 0.4123
78.5900 7.6850 0.4110
78.6100 7.6716 0.4122
78.6300 7.6583 0.4082
78.6500 7.6450 0.4127
78.6700 7.6317 0.4046
78.6900 7.6184 0.4109
78.7100 7.6050 0.4045
78.7300 7.5917 0.4092
78.7500 7.5784 0.4026
78.7700 7.5650 0.4069
78.7900 7.5516 0.4017
78.8100 7.5383 0.4041
78.8300 7.5249 0.4019
78.8500 7.5116 0.4011
78.8700 7.4983 0.4009
78.8900 7.4849 0.3992
78.9100 7.4716 0.4002
78.9300 7.4583 0.3975
78.9500 7.4450 0.4014
78.9700 7.4316 0.3955
78.9900 7.4183 0.4000
79.0100 7.4050 0.3939
79.0300 7.3917 0.3986
79.0500 7.3784 0.3914
79.0700 7.3650 0.3969
79.0900 7.3517 0.3910
79.1100 7.3384 0.3935
79.1300 7.3250 0.3904
79.1500 7.3116 0.3914
79.1700 7.2983 0.3888
79.1900 7.2849 0.3894
79.2100 7.2716 0.3869
79.2300 7.2583 0.3876
79.2500 7.2449 0.3873
79.2700 7.2316 0.3849
79.2900 7.2183 0.3858
79.3100 7.2050 0.3849
79.3300 7.1916 0.3852
79.3500 7.1783 0.3819
79.3700 7.1650 0.3839
79.3900 7.1517 0.3808
79.4100 7.1384 0.3817
79.4300 7.1250 0.3807
79.4500 7.1117 0.3809
79.4700 7.0984 0.3782
79.4900 7.0850 0.3799
79.5100 7.0717 0.3769
79.5300 7.0583 0.3775
79.5500 7.0450 0.3766
79.5700 7.0316 0.3753
79.5900 7.0183 0.3748
79.6100 7.0049 0.3723
79.6300 6.9916 0.3746
79.6500 6.9783 0.3694
79.6700 6.9650 0.3736
79.6900 6.9516 0.3674
79.7100 6.9383 0.3710
79.7300 6.9250 0.3669
79.7500 6.9117 0.3702
79.7700 6.8984 0.3647
79.7900 6.8850 0.3689
79.8100 6.8717 0.3634
79.8300 6.8584 0.3657
79.8500 6.8451 0.3634
79.8700 6.8317 0.3643
79.8900 6.8183 0.3629
79.9100 6.8050 0.3615
79.9300 6.7917 0.3621
79.9500 6.7783 0.3589
79.9700 6.7650 0.3619
79.9900 6.7516 0.3577
80.0100 6.7383 0.3596
80.0300 6.7250 0.3565
80.0500 6.7116 0.3582
80.0700 6.6983 0.3538
80.0900 6.6850 0.3570
80.1100 6.6717 0.3526
80.1300 6.6583 0.3548
80.1500 6.6450 0.3516
80.1700 6.6317 0.3534
80.1900 6.6184 0.3502
80.2100 6.6050 0.3511
80.2300 6.5917 0.3494
80.2500 6.5783 0.3487
80.2700 6.5650 0.3483
80.2900 6.5516 0.3469
80.3100 6.5383 0.3472
80.3300 6.5249 0.3450
80.3500 6.5116 0.3462
80.3700 6.4983 0.3420
80.3900 6.4850 0.3458
80.4100 6.4716 0.3405
80.4300 6.4583 0.3437
80.4500 6.4450 0.3396
80.4700 6.4317 0.3421
80.4900 6.4184 0.3388
80.5100 6.4050 0.3407
80.5300 6.3917 0.3382
80.5500 6.3784 0.3373
80.5700 6.3650 0.3376
80.5900 6.3517 0.3348
80.6100 6.3383 0.3368
80.6300 6.3250 0.3323
80.6500 6.3117 0.3354
80.6700 6.2983 0.3302
80.6900 6.2849 0.3345
80.7100 6.2716 0.3290
80.7300 6.2583 0.3319
80.7500 6.2450 0.3274
80.7700 6.2316 0.3309
80.7900 6.2183 0.3263
80.8100 6.2050 0.3289
80.8300 6.1917 0.3254
80.8500 6.1784 0.3259
80.8700 6.1650 0.3247
80.8900 6.1517 0.3247
80.9100 6.1384 0.3228
80.9300 6.1251 0.3230
80.9500 6.1117 0.3225
80.9700 6.0983 0.3216
80.9900 6.0849 0.3211
81.0100 6.0716 0.3196
81.0300 6.0583 0.3191
81.0500 6.0449 0.3178
81.0700 6.0316 0.3186
81.0900 6.0183 0.3151
81.1100 6.0050 0.3174
81.1300 5.9917 0.3138
81.1500 5.9783 0.3160
81.1700 5.9650 0.3122
81.1900 5.9517 0.3150
81.2100 5.9384 0.3101
81.2300 5.9250 0.3125
81.2500 5.9117 0.3098
81.2700 5.8983 0.3099
81.2900 5.8850 0.3086
81.3100 5.8717 0.3083
81.3300 5.8583 0.3076
81.3500 5.8449 0.3065
81.3700 5.8316 0.3068
81.3900 5.8183 0.3045
81.4100 5.8049 0.3060
81.4300 5.7916 0.3030
81.4500 5.7783 0.3056
81.4700 5.7650 0.3005
81.4900 5.7516 0.3042
81.5100 5.7383 0.2985
81.5300 5.7250 0.3013
81.5500 5.7117 0.2985
81.5700 5.6984 0.2989
81.5900 5.6850 0.2972
81.6100 5.6716 0.2980
81.6300 5.6583 0.2962
81.6500 5.6450 0.2948
81.6700 5.6316 0.2953
81.6900 5.6183 0.2925
81.7100 5.6049 0.2948
81.7300 5.5916 0.2903
81.7500 5.5783 0.2929
81.7700 5.5649 0.2884
81.7900 5.5516 0.2927
81.8100 5.5383 0.2866
81.8300 5.5250 0.2904
81.8500 5.5117 0.2868
81.8700 5.4983 0.2886
81.8900 5.4850 0.2856
81.9100 5.4717 0.2864
81.9300 5.4584 0.2843
81.9500 5.4450 0.2839
81.9700 5.4317 0.2835
81.9900 5.4183 0.2821
82.0100 5.4050 0.2818
82.0300 5.3917 0.2801
82.0500 5.3783 0.2802
82.0700 5.3649 0.2782
82.0900 5.3516 0.2795
82.1100 5.3383 0.2757
82.1300 5.3249 0.2775
82.1500 5.3116 0.2751
82.1700 5.2983 0.2752
82.1900 5.2850 0.2736
82.2100 5.2717 0.2744
82.2300 5.2583 0.2729
82.2500 5.2450 0.2732
82.2700 5.2317 0.2716
82.2900 5.2184 0.2717
82.3100 5.2050 0.2701
82.3300 5.1917 0.2698
82.3500 5.1784 0.2686
82.3700 5.1651 0.2670
82.3900 5.1517 0.2682
82.4100 5.1383 0.2653
82.4300 5.1249 0.2672
82.4500 5.1116 0.2634
82.4700 5.0983 0.2653
82.4900 5.0849 0.2616
82.5100 5.0716 0.2641
82.5300 5.0583 0.2606
82.5500 5.0450 0.2622
82.5700 5.0316 0.2595
82.5900 5.0183 0.2599
82.6100 5.0050 0.2583
82.6300 4.9917 0.2583
82.6500 4.9784 0.2578
82.6700 4.9650 0.2561
82.6900 4.9517 0.2580
82.7100 4.9383 0.2540
82.7300 4.9250 0.2561
82.7500 4.9116 0.2522
82.7700 4.8983 0.2546
82.7900 4.8849 0.2506
82.8100 4.8716 0.2533
82.8300 4.8583 0.2480
82.8500 4.8449 0.2510
82.8700 4.8316 0.2478
82.8900 4.8183 0.2491
82.9100 4.8050 0.2459
82.9300 4.7917 0.2475
82.9500 4.7783 0.2453
82.9700 4.7650 0.2448
82.9900 4.7517 0.2436
83.0100 4.7384 0.2430
83.0300 4.7251 0.2427
83.0500 4.7117 0.2417
83.0700 4.6984 0.2423
83.0900 4.6850 0.2397
83.1100 4.6716 0.2419
83.1300 4.6583 0.2372
83.1500 4.6449 0.2398
83.1700 4.6316 0.2354
83.1900 4.6183 0.2381
83.2100 4.6049 0.2333
83.2300 4.5916 0.2369
83.2500 4.5783 0.2322
83.2700 4.5650 0.2344
83.2900 4.5517 0.2310
83.3100 4.5383 0.2329
83.3300 4.5250 0.2300
83.3500 4.5117 0.2301
83.3700 4.4984 0.2299
83.3900 4.4851 0.2269
83.4100 4.4717 0.2299
83.4300 4.4584 0.2252
83.4500 4.4450 0.2292
83.4700 4.4317 0.2242
83.4900 4.4183 0.2275
83.5100 4.4049 0.2226
83.5300 4.3916 0.2249
83.5500 4.3783 0.2217
83.5700 4.3650 0.2220
83.5900 4.3516 0.2208
83.6100 4.3383 0.2208
83.6300 4.3250 0.2188
83.6500 4.3117 0.2191
83.6700 4.2983 0.2183
83.6900 4.2850 0.2164
83.7100 4.2717 0.2176
83.7300 4.2584 0.2148
83.7500 4.2450 0.2154
83.7700 4.2317 0.2134
83.7900 4.2183 0.2143
83.8100 4.2050 0.2125
83.8300 4.1917 0.2128
83.8500 4.1783 0.2121
83.8700 4.1649 0.2117
83.8900 4.1516 0.2097
83.9100 4.1383 0.2104
83.9300 4.1250 0.2067
83.9500 4.1116 0.2091
83.9700 4.0983 0.2054
83.9900 4.0850 0.2070
84.0100 4.0716 0.2048
84.0300 4.0583 0.2051
84.0500 4.0450 0.2032
84.0700 4.0317 0.2026
84.0900 4.0184 0.2022
84.1100 4.0050 0.2003
84.1300 3.9916 0.2013
84.1500 3.9783 0.1991
84.1700 3.9650 0.1995
84.1900 3.9517 0.1964
84.2100 3.9383 0.2000
84.2300 3.9250 0.1950
84.2500 3.9116 0.1995
84.2700 3.8983 0.1940
84.2900 3.8850 0.1968
84.3100 3.8716 0.1932
84.3300 3.8583 0.1936
84.3500 3.8450 0.1930
84.3700 3.8316 0.1911
84.3900 3.8183 0.1927
84.4100 3.8050 0.1888
84.4300 3.7917 0.1907
84.4500 3.7784 0.1877
84.4700 3.7650 0.1900
84.4900 3.7517 0.1864
84.5100 3.7383 0.1885
84.5300 3.7250 0.1847
84.5500 3.7117 0.1863
84.5700 3.6983 0.1841
84.5900 3.6849 0.1845
84.6100 3.6716 0.1829
84.6300 3.6583 0.1820
84.6500 3.6450 0.1816
84.6700 3.6316 0.1806
84.6900 3.6183 0.1810
84.7100 3.6050 0.1787
84.7300 3.5917 0.1792
84.7500 3.5783 0.1778
84.7700 3.5650 0.1774
84.7900 3.5517 0.1751
84.8100 3.5384 0.1752
84.8300 3.5251 0.1727
84.8500 3.5117 0.1738
84.8700 3.4983 0.1705
84.8900 3.4850 0.1732
84.9100 3.4716 0.1677
84.9300 3.4583 0.1721
84.9500 3.4449 0.1664
84.9700 3.4316 0.1707
84.9900 3.4183 0.1653
85.0100 3.4050 0.1683
85.0300 3.3916 0.1641
85.0500 3.3783 0.1662
85.0700 3.3650 0.1646
85.0900 3.3517 0.1626
85.1100 3.3383 0.1643
85.1300 3.3250 0.1595
85.1500 3.3117 0.1622
85.1700 3.2984 0.1573
85.1900 3.2850 0.1603
85.2100 3.2717 0.1557
85.2300 3.2583 0.1597
85.2500 3.2450 0.1542
85.2700 3.2317 0.1571
85.2900 3.2184 0.1537
85.3100 3.2050 0.1552
85.3300 3.1917 0.1525
85.3500 3.1784 0.1526
85.3700 3.1650 0.1520
85.3900 3.1516 0.1500
85.4100 3.1382 0.1513
85.4300 3.1250 0.1476
85.4500 3.1117 0.1487
85.4700 3.0983 0.1458
85.4900 3.0850 0.1479
85.5100 3.0717 0.1441
85.5300 3.0584 0.1466
85.5500 3.0450 0.1419
85.5700 3.0317 0.1443
85.5900 3.0183 0.1410
85.6100 3.0050 0.1426
85.6300 2.9917 0.1391
85.6500 2.9783 0.1405
85.6700 2.9650 0.1387
85.6900 2.9516 0.1383
85.7100 2.9383 0.1387
85.7300 2.9250 0.1358
85.7500 2.9116 0.1352
85.7700 2.8983 0.1337
85.7900 2.8850 0.1337
85.8100 2.8717 0.1316
85.8300 2.8583 0.1334
85.8500 2.8450 0.1298
85.8700 2.8317 0.1320
85.8900 2.8184 0.1279
85.9100 2.8050 0.1301
85.9300 2.7917 0.1259
85.9500 2.7783 0.1291
85.9700 2.7650 0.1246
85.9900 2.7517 0.1258
86.0100 2.7383 0.1247
86.0300 2.7250 0.1239
86.0500 2.7116 0.1224
86.0700 2.6983 0.1212
86.0900 2.6849 0.1206
86.1100 2.6716 0.1184
86.1300 2.6582 0.1205
86.1500 2.6450 0.1174
86.1700 2.6317 0.1184
86.1900 2.6183 0.1154
86.2100 2.6050 0.1180
86.2300 2.5917 0.1133
86.2500 2.5784 0.1152
86.2700 2.5651 0.1126
86.2900 2.5517 0.1125
86.3100 2.5383 0.1122
86.3300 2.5250 0.1110
86.3500 2.5117 0.1099
86.3700 2.4984 0.1083
86.3900 2.4850 0.1080
86.4100 2.4716 0.1065
86.4300 2.4583 0.1066
86.4500 2.4449 0.1058
86.4700 2.4316 0.1050
86.4900 2.4182 0.1036
86.5100 2.4050 0.1042
86.5300 2.3917 0.1006
86.5500 2.3783 0.1024
86.5700 2.3650 0.0996
86.5900 2.3517 0.1003
86.6100 2.3384 0.0980
86.6300 2.3251 0.0998
86.6500 2.3117 0.0950
86.6700 2.2983 0.0977
86.6900 2.2850 0.0936
86.7100 2.2717 0.0950
86.7300 2.2583 0.0919
86.7500 2.2450 0.0940
86.7700 2.2316 0.0912
86.7900 2.2183 0.0908
86.8100 2.2050 0.0901
86.8300 2.1916 0.0877
86.8500 2.1783 0.0896
86.8700 2.1650 0.0860
86.8900 2.1516 0.0879
86.9100 2.1383 0.0842
86.9300 2.1250 0.0865
86.9500 2.1116 0.0823
86.9700 2.0984 0.0846
86.9900 2.0850 0.0803
87.0100 2.0717 0.0819
87.0300 2.0583 0.0799
87.0500 2.0450 0.0807
87.0700 2.0317 0.0785
87.0900 2.0183 0.0774
87.1100 2.0049 0.0777
87.1300 1.9916 0.0753
87.1500 1.9783 0.0765
87.1700 1.9650 0.0729
87.1900 1.9517 0.0751
87.2100 1.9383 0.0716
87.2300 1.9250 0.0741
87.2500 1.9117 0.0693
87.2700 1.8983 0.0718
87.2900 1.8850 0.0682
87.3100 1.8716 0.0697
87.3300 1.8583 0.0671
87.3500 1.8450 0.0684
87.3700 1.8317 0.0653
87.3900 1.8183 0.0666
87.4100 1.8050 0.0641
87.4300 1.7917 0.0657
87.4500 1.7783 0.0660
87.4700 1.7650 0.0669
87.4900 1.7516 0.0645
87.5100 1.7383 0.0650
87.5300 1.7250 0.0655
87.5500 1.7116 0.0630
87.5700 1.6983 0.0645
87.5900 1.6849 0.0617
87.6100 1.6716 0.0625
87.6300 1.6583 0.0599
87.6500 1.6450 0.0608
87.6700 1.6316 0.0576
87.6900 1.6184 0.0583
87.7100 1.6050 0.0557
87.7300 1.5917 0.0564
87.7500 1.5783 0.0546
87.7700 1.5650 0.0547
87.7900 1.5517 0.0526
87.8100 1.5384 0.0511
87.8300 1.5250 0.0524
87.8500 1.5116 0.0486
87.8700 1.4983 0.0507
87.8900 1.4850 0.0464
87.9100 1.4716 0.0481
87.9300 1.4582 0.0450
87.9500 1.4449 0.0474
87.9700 1.4316 0.0430
87.9900 1.4183 0.0448
88.0100 1.4049 0.0418
88.0300 1.3916 0.0422
88.0500 1.3784 0.0403
88.0700 1.3651 0.0405
88.0900 1.3517 0.0386
88.1100 1.3384 0.0376
88.1300 1.3250 0.0383
88.1500 1.3117 0.0340
88.1700 1.2984 0.0366
88.1900 1.2850 0.0330
88.2100 1.2716 0.0340
88.2300 1.2583 0.0307
88.2500 1.2450 0.0315
88.2700 1.2316 0.0289
88.2900 1.2182 0.0296
88.3100 1.2049 0.0274
88.3300 1.1916 0.0270
88.3500 1.1783 0.0246
88.3700 1.1650 0.0265
88.3900 1.1517 0.0228
88.4100 1.1384 0.0231
88.4300 1.1251 0.0212
88.4500 1.1117 0.0205
88.4700 1.0983 0.0190
88.4900 1.0850 0.0188
88.5100 1.0717 0.0171
88.5300 1.0583 0.0161
88.5500 1.0450 0.0159
88.5700 1.0316 0.0139
88.5900 1.0183 0.0137
88.6100 1.0050 0.0115
88.6300 0.9916 0.0118
88.6500 0.9783 0.0078
88.6700 0.9650 0.0113
88.6900 0.9517 0.0063
88.7100 0.9383 0.0077
88.7300 0.9250 0.0058
88.7500 0.9117 0.0054
88.7700 0.8984 0.0029
88.7900 0.8851 0.0028
88.8100 0.8717 0.0020
88.8300 0.8583 -0.0003
88.8500 0.8450 0.0017
88.8700 0.8317 -0.0029
88.8900 0.8183 -0.0009
88.9100 0.8050 -0.0048
88.9300 0.7916 -0.0017
88.9500 0.7783 -0.0078
88.9700 0.7650 -0.0035
88.9900 0.7516 -0.0096
89.0100 0.7383 -0.0065
89.0300 0.7250 -0.0100
89.0500 0.7117 -0.0083
89.0700 0.6983 -0.0118
89.0900 0.6850 -0.0108
89.1100 0.6716 -0.0126
89.1300 0.6584 -0.0134
89.1500 0.6451 -0.0135
89.1700 0.6317 -0.0155
89.1900 0.6183 -0.0153
89.2100 0.6050 -0.0165
89.2300 0.5917 -0.0166
89.2500 0.5783 -0.0185
89.2700 0.5650 -0.0167
89.2900 0.5516 -0.0192
89.3100 0.5383 -0.0182
89.3300 0.5250 -0.0204
89.3500 0.5116 -0.0183
89.3700 0.4983 -0.0215
89.3900 0.4849 -0.0187
89.4100 0.4716 -0.0218
89.4300 0.4583 -0.0208
89.4500 0.4450 -0.0215
89.4700 0.4316 -0.0216
89.4900 0.4183 -0.0227
89.5100 0.4050 -0.0220
89.5300 0.3917 -0.0224
89.5500 0.3784 -0.0239
89.5700 0.3650 -0.0208
89.5900 0.3517 -0.0244
89.6100 0.3384 -0.0205
89.6300 0.3250 -0.0247
89.6500 0.3116 -0.0202
89.6700 0.2983 -0.0249
89.6900 0.2850 -0.0202
89.7100 0.2716 -0.0245
89.7300 0.2582 -0.0220
89.7500 0.2449 -0.0229
89.7700 0.2316 -0.0225
89.7900 0.2183 -0.0230
89.8100 0.2050 -0.0225
89.8300 0.1916 -0.0214
89.8500 0.1783 -0.0237
89.8700 0.1650 -0.0210
89.8900 0.1517 -0.0241
89.9100 0.1383 -0.0204
89.9300 0.1250 -0.0239
89.9500 0.1117 -0.0210
89.9700 0.0983 -0.0249
89.9900 0.0850 -0.0197
90.0100 0.0716 -0.0239
90.0300 0.0583 -0.0218
90.0500 0.0450 -0.0232
90.0700 0.0316 -0.0214
90.0900 0.0183 -0.0238
90.1100 0.0049 -0.0202
90.1180 -0.0003 -0.0165
