Raw Data
Time Displacement Force
(s) (mm) (N)
0.0000 0.0000 -0.0321
0.0200 0.0001 -0.0340
0.0400 0.0018 -0.0199
0.0600 0.0089 -0.0252
0.0800 0.0204 -0.0332
0.1000 0.0327 -0.0337
0.1200 0.0453 -0.0328
0.1400 0.0587 -0.0311
0.1600 0.0728 -0.0338
0.1800 0.0871 -0.0313
0.2000 0.1011 -0.0312
0.2200 0.1147 -0.0296
0.2400 0.1281 -0.0274
0.2600 0.1414 -0.0267
0.2800 0.1547 -0.0271
0.3000 0.1680 -0.0240
0.3200 0.1814 -0.0250
0.3400 0.1948 -0.0225
0.3600 0.2081 -0.0217
0.3800 0.2214 -0.0196
0.4000 0.2347 -0.0182
0.4200 0.2481 -0.0173
0.4400 0.2614 -0.0158
0.4600 0.2747 -0.0142
0.4800 0.2881 -0.0127
0.5000 0.3015 -0.0104
0.5200 0.3148 -0.0097
0.5400 0.3282 -0.0069
0.5600 0.3415 -0.0052
0.5800 0.3548 -0.0034
0.6000 0.3682 -0.0014
0.6200 0.3815 -0.0003
0.6400 0.3948 0.0023
0.6600 0.4081 0.0031
0.6800 0.4214 0.0068
0.7000 0.4347 0.0061
0.7200 0.4481 0.0102
0.7400 0.4614 0.0105
0.7600 0.4747 0.0139
0.7800 0.4881 0.0143
0.8000 0.5014 0.0172
0.8200 0.5148 0.0172
0.8400 0.5281 0.0211
0.8600 0.5415 0.0219
0.8800 0.5549 0.0234
0.9000 0.5682 0.0267
0.9200 0.5815 0.0270
0.9400 0.5948 0.0305
0.9600 0.6082 0.0303
0.9800 0.6215 0.0347
1.0000 0.6348 0.0336
1.0200 0.6481 0.0382
1.0400 0.6614 0.0372
1.0600 0.6748 0.0417
1.0800 0.6881 0.0408
1.1000 0.7014 0.0452
1.1200 0.7147 0.0453
1.1400 0.7281 0.0479
1.1600 0.7414 0.0496
1.1800 0.7547 0.0506
1.2000 0.7681 0.0537
1.2200 0.7814 0.0536
1.2400 0.7948 0.0572
1.2600 0.8082 0.0571
1.2800 0.8215 0.0617
1.3000 0.8348 0.0594
1.3200 0.8482 0.0660
1.3400 0.8615 0.0631
1.3600 0.8748 0.0684
1.3800 0.8882 0.0677
1.4000 0.9015 0.0719
1.4200 0.9149 0.0703
1.4400 0.9282 0.0751
1.4600 0.9414 0.0745
1.4800 0.9547 0.0785
1.5000 0.9680 0.0780
1.5200 0.9814 0.0815
1.5400 0.9947 0.0810
1.5600 1.0081 0.0838
1.5800 1.0214 0.0855
1.6000 1.0348 0.0868
1.6200 1.0482 0.0889
1.6400 1.0615 0.0894
1.6600 1.0748 0.0927
1.6800 1.0882 0.0922
1.7000 1.1016 0.0969
1.7200 1.1149 0.0954
1.7400 1.1281 0.1005
1.7600 1.1414 0.0984
1.7800 1.1548 0.1035
1.8000 1.1681 0.1017
1.8200 1.1814 0.1067
1.8400 1.1947 0.1051
1.8600 1.2081 0.1086
1.8800 1.2214 0.1098
1.9000 1.2348 0.1100
1.9200 1.2481 0.1135
1.9400 1.2615 0.1134
1.9600 1.2748 0.1174
1.9800 1.2882 0.1154
2.0000 1.3015 0.1211
2.0200 1.3149 0.1182
2.0400 1.3282 0.1237
2.0600 1.3415 0.1224
2.0800 1.3548 0.1265
2.1000 1.3681 0.1255
2.1200 1.3814 0.1296
2.1400 1.3948 0.1292
2.1600 1.4081 0.1309
2.1800 1.4214 0.1342
2.2000 1.4347 0.1334
2.2200 1.4481 0.1366
2.2400 1.4614 0.1361
2.2600 1.4748 0.1400
2.2800 1.4881 0.1379
2.3000 1.5014 0.1435
2.3200 1.5148 0.1413
2.3400 1.5282 0.1453
2.3600 1.5415 0.1452
2.3800 1.5548 0.1471
2.4000 1.5682 0.1481
2.4200 1.5815 0.1501
2.4400 1.5948 0.1508
2.4600 1.6081 0.1533
2.4800 1.6214 0.1535
2.5000 1.6348 0.1558
2.5200 1.6481 0.1561
2.5400 1.6614 0.1585
2.5600 1.6747 0.1596
2.5800 1.6880 0.1602
2.6000 1.7014 0.1626
2.6200 1.7148 0.1628
2.6400 1.7281 0.1650
2.6600 1.7415 0.1661
2.6800 1.7549 0.1679
2.7000 1.7682 0.1674
2.7200 1.7815 0.1720
2.7400 1.7948 0.1701
2.7600 1.8082 0.1742
2.7800 1.8215 0.1732
2.8000 1.8348 0.1766
2.8200 1.8481 0.1772
2.8400 1.8614 0.1783
2.8600 1.8748 0.1807
2.8800 1.8881 0.1794
2.9000 1.9014 0.1847
2.9200 1.9147 0.1812
2.9400 1.9281 0.1872
2.9600 1.9415 0.1836
2.9800 1.9548 0.1897
3.0000 1.9681 0.1859
3.0200 1.9814 0.1922
3.0400 1.9948 0.1903
3.0600 2.0082 0.1929
3.0800 2.0215 0.1935
3.1000 2.0348 0.1957
3.1200 2.0481 0.1968
3.1400 2.0615 0.1980
3.1600 2.0749 0.2002
3.1800 2.0881 0.1990
3.2000 2.1014 0.2039
3.2200 2.1148 0.2014
3.2400 2.1282 0.2057
3.2600 2.1415 0.2048
3.2800 2.1548 0.2086
3.3000 2.1681 0.2067
3.3200 2.1814 0.2111
3.3400 2.1948 0.2097
3.3600 2.2081 0.2131
3.3800 2.2214 0.2123
3.4000 2.2348 0.2161
3.4200 2.2482 0.2135
3.4400 2.2615 0.2193
3.4600 2.2748 0.2168
3.4800 2.2881 0.2202
3.5000 2.3015 0.2198
3.5200 2.3148 0.2233
3.5400 2.3281 0.2220
3.5600 2.3414 0.2256
3.5800 2.3548 0.2256
3.6000 2.3681 0.2262
3.6200 2.3814 0.2292
3.6400 2.3947 0.2283
3.6600 2.4080 0.2322
3.6800 2.4214 0.2298
3.7000 2.4347 0.2350
3.7200 2.4481 0.2316
3.7400 2.4614 0.2385
3.7600 2.4748 0.2340
3.7800 2.4882 0.2386
3.8000 2.5016 0.2379
3.8200 2.5149 0.2402
3.8400 2.5282 0.2415
3.8600 2.5416 0.2420
3.8800 2.5548 0.2445
3.9000 2.5681 0.2431
3.9200 2.5814 0.2476
3.9400 2.5947 0.2454
3.9600 2.6081 0.2489
3.9800 2.6214 0.2483
4.0000 2.6347 0.2522
4.0200 2.6481 0.2494
4.0400 2.6615 0.2546
4.0600 2.6748 0.2527
4.0800 2.6881 0.2558
4.1000 2.7015 0.2551
4.1200 2.7148 0.2580
4.1400 2.7282 0.2572
4.1600 2.7415 0.2603
4.1800 2.7548 0.2602
4.2000 2.7681 0.2626
4.2200 2.7815 0.2623
4.2400 2.7948 0.2646
4.2600 2.8081 0.2643
4.2800 2.8214 0.2673
4.3000 2.8348 0.2682
4.3200 2.8481 0.2675
4.3400 2.8614 0.2709
4.3600 2.8747 0.2701
4.3800 2.8881 0.2728
4.4000 2.9014 0.2720
4.4200 2.9148 0.2765
4.4400 2.9281 0.2729
4.4600 2.9415 0.2789
4.4800 2.9548 0.2753
4.5000 2.9682 0.2800
4.5200 2.9815 0.2787
4.5400 2.9948 0.2820
4.5600 3.0081 0.2812
4.5800 3.0215 0.2830
4.6000 3.0349 0.2847
4.6200 3.0481 0.2836
4.6400 3.0614 0.2877
4.6600 3.0748 0.2860
4.6800 3.0881 0.2909
4.7000 3.1014 0.2869
4.7200 3.1147 0.2936
4.7400 3.1281 0.2892
4.7600 3.1415 0.2947
4.7800 3.1548 0.2923
4.8000 3.1681 0.2963
4.8200 3.1815 0.2954
4.8400 3.1948 0.2975
4.8600 3.2082 0.2980
4.8800 3.2215 0.2986
4.9000 3.2348 0.3016
4.9200 3.2481 0.2998
4.9400 3.2615 0.3041
4.9600 3.2748 0.3017
4.9800 3.2881 0.3066
5.0000 3.3014 0.3040
5.0200 3.3148 0.3093
5.0400 3.3281 0.3052
5.0600 3.3414 0.3114
5.0800 3.3548 0.3086
5.1000 3.3681 0.3129
5.1200 3.3814 0.3109
5.1400 3.3948 0.3147
5.1600 3.4081 0.3136
5.1800 3.4214 0.3155
5.2000 3.4348 0.3158
5.2200 3.4482 0.3174
5.2400 3.4615 0.3172
5.2600 3.4748 0.3198
5.2800 3.4881 0.3192
5.3000 3.5015 0.3205
5.3200 3.5149 0.3230
5.3400 3.5282 0.3212
5.3600 3.5415 0.3268
5.3800 3.5548 0.3224
5.4000 3.5681 0.3291
5.4200 3.5815 0.3236
5.4400 3.5948 0.3312
5.4600 3.6081 0.3267
5.4800 3.6214 0.3322
5.5000 3.6347 0.3296
5.5200 3.6480 0.3335
5.5400 3.6614 0.3317
5.5600 3.6748 0.3356
5.5800 3.6882 0.3343
5.6000 3.7015 0.3358
5.6200 3.7148 0.3388
5.6400 3.7282 0.3362
5.6600 3.7415 0.3417
5.6800 3.7549 0.3378
5.7000 3.7682 0.3430
5.7200 3.7814 0.3398
5.7400 3.7948 0.3453
5.7600 3.8081 0.3422
5.7800 3.8214 0.3455
5.8000 3.8347 0.3459
5.8200 3.8481 0.3466
5.8400 3.8614 0.3480
5.8600 3.8747 0.3485
5.8800 3.8881 0.3504
5.9000 3.9014 0.3496
5.9200 3.9148 0.3537
5.9400 3.9282 0.3508
5.9600 3.9415 0.3549
5.9800 3.9548 0.3531
6.0000 3.9682 0.3574
6.0200 3.9815 0.3545
6.0400 3.9949 0.3599
6.0600 4.0081 0.3565
6.0800 4.0214 0.3602
6.1000 4.0347 0.3596
6.1200 4.0481 0.3620
6.1400 4.0614 0.3612
6.1600 4.0747 0.3642
6.1800 4.0881 0.3638
6.2000 4.1014 0.3647
6.2200 4.1148 0.3670
6.2400 4.1281 0.3657
6.2600 4.1415 0.3687
6.2800 4.1548 0.3677
6.3000 4.1682 0.3708
6.3200 4.1815 0.3690
6.3400 4.1948 0.3736
6.3600 4.2081 0.3711
6.3800 4.2215 0.3754
6.4000 4.2348 0.3731
6.4200 4.2482 0.3770
6.4400 4.2615 0.3754
6.4600 4.2748 0.3783
6.4800 4.2882 0.3776
6.5000 4.3015 0.3772
6.5200 4.3148 0.3811
6.5400 4.3281 0.3788
6.5600 4.3414 0.3826
6.5800 4.3548 0.3811
6.6000 4.3681 0.3851
6.6200 4.3814 0.3816
6.6400 4.3948 0.3876
6.6600 4.4081 0.3832
6.6800 4.4215 0.3885
6.7000 4.4348 0.3858
6.7200 4.4481 0.3899
6.7400 4.4615 0.3881
6.7600 4.4749 0.3910
6.7800 4.4882 0.3909
6.8000 4.5015 0.3918
6.8200 4.5148 0.3936
6.8400 4.5282 0.3940
6.8600 4.5415 0.3943
6.8800 4.5548 0.3951
6.9000 4.5681 0.3978
6.9200 4.5814 0.3961
6.9400 4.5947 0.3996
6.9600 4.6081 0.3973
6.9800 4.6214 0.4012
7.0000 4.6348 0.3994
7.0200 4.6481 0.4034
7.0400 4.6615 0.4001
7.0600 4.6748 0.4052
7.0800 4.6882 0.4029
7.1000 4.7015 0.4057
7.1200 4.7149 0.4059
7.1400 4.7282 0.4076
7.1600 4.7415 0.4068
7.1800 4.7548 0.4102
7.2000 4.7682 0.4094
7.2200 4.7815 0.4106
7.2400 4.7948 0.4122
7.2600 4.8081 0.4122
7.2800 4.8214 0.4139
7.3000 4.8348 0.4127
7.3200 4.8481 0.4164
7.3400 4.8614 0.4137
7.3600 4.8748 0.4188
7.3800 4.8881 0.4157
7.4000 4.9015 0.4195
7.4200 4.9148 0.4177
7.4400 4.9282 0.4216
7.4600 4.9415 0.4200
7.4800 4.9549 0.4229
7.5000 4.9682 0.4226
7.5200 4.9815 0.4231
7.5400 4.9948 0.4255
7.5600 5.0081 0.4242
7.5800 5.0215 0.4266
7.6000 5.0348 0.4262
7.6200 5.0481 0.4300
7.6400 5.0614 0.4269
7.6600 5.0748 0.4314
7.6800 5.0881 0.4290
7.7000 5.1014 0.4320
7.7200 5.1148 0.4311
7.7400 5.1282 0.4337
7.7600 5.1416 0.4332
7.7800 5.1549 0.4350
7.8000 5.1682 0.4344
7.8200 5.1815 0.4362
7.8400 5.1949 0.4365
7.8600 5.2082 0.4378
7.8800 5.2214 0.4375
7.9000 5.2347 0.4398
7.9200 5.2480 0.4405
7.9400 5.2614 0.4396
7.9600 5.2748 0.4427
7.9800 5.2881 0.4420
8.0000 5.3014 0.4440
8.0200 5.3148 0.4432
8.0400 5.3281 0.4460
8.0600 5.3414 0.4438
8.0800 5.3548 0.4478
8.1000 5.3682 0.4461
8.1200 5.3815 0.4490
8.1400 5.3948 0.4482
8.1600 5.4082 0.4508
8.1800 5.4215 0.4496
8.2000 5.4348 0.4517
8.2200 5.4482 0.4524
8.2400 5.4614 0.4519
8.2600 5.4747 0.4550
8.2800 5.4881 0.4535
8.3000 5.5014 0.4562
8.3200 5.5148 0.4550
8.3400 5.5281 0.4593
8.3600 5.5414 0.4555
8.3800 5.5548 0.4599
8.4000 5.5681 0.4578
8.4200 5.5814 0.4609
8.4400 5.5948 0.4594
8.4600 5.6081 0.4632
8.4800 5.6215 0.4612
8.5000 5.6348 0.4641
8.5200 5.6481 0.4640
8.5400 5.6615 0.4643
8.5600 5.6748 0.4662
8.5800 5.6882 0.4649
8.6000 5.7015 0.4676
8.6200 5.7148 0.4668
8.6400 5.7282 0.4703
8.6600 5.7415 0.4678
8.6800 5.7548 0.4710
8.7000 5.7681 0.4704
8.7200 5.7814 0.4721
8.7400 5.7947 0.4718
8.7600 5.8081 0.4742
8.7800 5.8214 0.4731
8.8000 5.8347 0.4752
8.8200 5.8481 0.4751
8.8400 5.8615 0.4761
8.8600 5.8749 0.4767
8.8800 5.8882 0.4789
8.9000 5.9015 0.4784
8.9200 5.9149 0.4793
8.9400 5.9282 0.4808
8.9600 5.9415 0.4794
8.9800 5.9548 0.4830
9.0000 5.9681 0.4819
9.0200 5.9815 0.4836
9.0400 5.9948 0.4827
9.0600 6.0080 0.4867
9.0800 6.0214 0.4824
9.1000 6.0347 0.4889
9.1200 6.0481 0.4854
9.1400 6.0614 0.4878
9.1600 6.0748 0.4868
9.1800 6.0881 0.4895
9.2000 6.1015 0.4889
9.2200 6.1148 0.4898
9.2400 6.1282 0.4923
9.2600 6.1415 0.4900
9.2800 6.1549 0.4941
9.3000 6.1682 0.4916
9.3200 6.1815 0.4966
9.3400 6.1948 0.4932
9.3600 6.2081 0.4984
9.3800 6.2215 0.4946
9.4000 6.2348 0.4992
9.4200 6.2481 0.4974
9.4400 6.2614 0.4996
9.4600 6.2747 0.4988
9.4800 6.2881 0.5015
9.5000 6.3014 0.5007
9.5200 6.3148 0.5021
9.5400 6.3281 0.5030
9.5600 6.3415 0.5026
9.5800 6.3549 0.5053
9.6000 6.3682 0.5039
9.6200 6.3815 0.5071
9.6400 6.3949 0.5044
9.6600 6.4082 0.5087
9.6800 6.4215 0.5065
9.7000 6.4348 0.5092
9.7200 6.4481 0.5090
9.7400 6.4614 0.5101
9.7600 6.4747 0.5093
9.7800 6.4880 0.5129
9.8000 6.5014 0.5101
9.8200 6.5147 0.5136
9.8400 6.5281 0.5125
9.8600 6.5414 0.5140
9.8800 6.5548 0.5142
9.9000 6.5682 0.5157
9.9200 6.5815 0.5168
9.9400 6.5949 0.5160
9.9600 6.6082 0.5189
9.9800 6.6215 0.5172
10.0000 6.6349 0.5194
10.0200 6.6482 0.5192
10.0400 6.6615 0.5213
10.0600 6.6748 0.5201
10.0800 6.6881 0.5234
10.1000 6.7015 0.5209
10.1200 6.7148 0.5247
10.1400 6.7281 0.5239
10.1600 6.7414 0.5248
10.1800 6.7548 0.5257
10.2000 6.7681 0.5260
10.2200 6.7814 0.5272
10.2400 6.7948 0.5265
10.2600 6.8081 0.5298
10.2800 6.8215 0.5268
10.3000 6.8348 0.5302
10.3200 6.8481 0.5296
10.3400 6.8614 0.5318
10.3600 6.8748 0.5303
10.3800 6.8882 0.5339
10.4000 6.9015 0.5310
10.4200 6.9148 0.5346
10.4400 6.9281 0.5330
10.4600 6.9414 0.5360
10.4800 6.9548 0.5346
10.5000 6.9681 0.5370
10.5200 6.9814 0.5367
10.5400 6.9947 0.5377
10.5600 7.0081 0.5388
10.5800 7.0214 0.5392
10.6000 7.0348 0.5396
10.6200 7.0481 0.5407
10.6400 7.0615 0.5418
10.6600 7.0748 0.5407
10.6800 7.0881 0.5447
10.7000 7.1015 0.5429
10.7200 7.1148 0.5457
10.7400 7.1282 0.5444
10.7600 7.1415 0.5471
10.7800 7.1548 0.5451
10.8000 7.1681 0.5487
10.8200 7.1815 0.5473
10.8400 7.1948 0.5477
10.8600 7.2081 0.5499
10.8800 7.2214 0.5496
10.9000 7.2347 0.5507
10.9200 7.2481 0.5502
10.9400 7.2614 0.5531
10.9600 7.2747 0.5501
10.9800 7.2881 0.5547
11.0000 7.3015 0.5516
11.0200 7.3149 0.5555
11.0400 7.3282 0.5535
11.0600 7.3415 0.5575
11.0800 7.3549 0.5543
11.1000 7.3682 0.5589
11.1200 7.3815 0.5565
11.1400 7.3948 0.5589
11.1600 7.4081 0.5587
11.1800 7.4214 0.5602
11.2000 7.4348 0.5593
11.2200 7.4481 0.5617
11.2400 7.4614 0.5622
11.2600 7.4748 0.5614
11.2800 7.4881 0.5634
11.3000 7.5015 0.5630
11.3200 7.5148 0.5650
11.3400 7.5282 0.5647
11.3600 7.5415 0.5672
11.3800 7.5549 0.5647
11.4000 7.5682 0.5690
11.4200 7.5815 0.5667
11.4400 7.5948 0.5692
11.4600 7.6082 0.5683
11.4800 7.6215 0.5712
11.5000 7.6348 0.5698
11.5200 7.6481 0.5722
11.5400 7.6615 0.5719
11.5600 7.6748 0.5713
11.5800 7.6881 0.5737
11.6000 7.7014 0.5735
11.6200 7.7148 0.5741
11.6400 7.7281 0.5740
11.6600 7.7415 0.5762
11.6800 7.7548 0.5743
11.7000 7.7681 0.5780
11.7200 7.7815 0.5765
11.7400 7.7948 0.5777
11.7600 7.8081 0.5780
11.7800 7.8215 0.5804
11.8000 7.8348 0.5787
11.8200 7.8482 0.5807
11.8400 7.8615 0.5820
11.8600 7.8748 0.5809
11.8800 7.8881 0.5834
11.9000 7.9014 0.5825
11.9200 7.9148 0.5845
11.9400 7.9281 0.5843
11.9600 7.9414 0.5864
11.9800 7.9548 0.5842
12.0000 7.9681 0.5873
12.0200 7.9815 0.5858
12.0400 7.9948 0.5886
12.0600 8.0081 0.5871
12.0800 8.0215 0.5907
12.1000 8.0349 0.5876
12.1200 8.0482 0.5915
12.1400 8.0615 0.5908
12.1600 8.0748 0.5914
12.1800 8.0882 0.5925
12.2000 8.1015 0.5937
12.2200 8.1148 0.5929
12.2400 8.1281 0.5951
12.2600 8.1415 0.5957
12.2800 8.1548 0.5945
12.3000 8.1681 0.5976
12.3200 8.1814 0.5963
12.3400 8.1948 0.5993
12.3600 8.2081 0.5966
12.3800 8.2215 0.6017
12.4000 8.2348 0.5964
12.4200 8.2481 0.6031
12.4400 8.2615 0.5993
12.4600 8.2748 0.6029
12.4800 8.2882 0.6009
12.5000 8.3015 0.6041
12.5200 8.3148 0.6019
12.5400 8.3282 0.6049
12.5600 8.3415 0.6051
12.5800 8.3548 0.6048
12.6000 8.3681 0.6058
12.6200 8.3815 0.6068
12.6400 8.3948 0.6071
12.6600 8.4081 0.6076
12.6800 8.4214 0.6091
12.7000 8.4348 0.6064
12.7200 8.4481 0.6094
12.7400 8.4614 0.6095
12.7600 8.4747 0.6101
12.7800 8.4881 0.6106
12.8000 8.5015 0.6127
12.8200 8.5149 0.6109
12.8400 8.5282 0.6139
12.8600 8.5415 0.6135
12.8800 8.5548 0.6145
12.9000 8.5682 0.6138
12.9200 8.5815 0.6164
12.9400 8.5948 0.6150
12.9600 8.6081 0.6169
12.9800 8.6215 0.6182
13.0000 8.6348 0.6158
13.0200 8.6481 0.6205
13.0400 8.6614 0.6181
13.0600 8.6747 0.6214
13.0800 8.6881 0.6179
13.1000 8.7014 0.6238
13.1200 8.7147 0.6183
13.1400 8.7281 0.6242
13.1600 8.7415 0.6205
13.1800 8.7549 0.6242
13.2000 8.7682 0.6223
13.2200 8.7815 0.6255
13.2400 8.7948 0.6243
13.2600 8.8082 0.6259
13.2800 8.8215 0.6269
13.3000 8.8348 0.6262
13.3200 8.8481 0.6290
13.3400 8.8614 0.6282
13.3600 8.8748 0.6298
13.3800 8.8881 0.6279
13.4000 8.9014 0.6327
13.4200 8.9147 0.6294
13.4400 8.9281 0.6334
13.4600 8.9415 0.6316
13.4800 8.9548 0.6331
13.5000 8.9681 0.6322
13.5200 8.9815 0.6353
13.5400 8.9948 0.6335
13.5600 9.0081 0.6360
13.5800 9.0214 0.6363
13.6000 9.0348 0.6359
13.6200 9.0482 0.6376
13.6400 9.0615 0.6376
13.6600 9.0748 0.6387
13.6800 9.0881 0.6379
13.7000 9.1015 0.6412
13.7200 9.1148 0.6386
13.7400 9.1281 0.6417
13.7600 9.1414 0.6407
13.7800 9.1548 0.6431
13.8000 9.1681 0.6413
13.8200 9.1814 0.6450
13.8400 9.1947 0.6426
13.8600 9.2081 0.6444
13.8800 9.2214 0.6454
13.9000 9.2348 0.6452
13.9200 9.2482 0.6458
13.9400 9.2615 0.6467
13.9600 9.2748 0.6467
13.9800 9.2882 0.6459
14.0000 9.3015 0.6492
14.0200 9.3148 0.6455
14.0400 9.3281 0.6505
14.0600 9.3415 0.6469
14.0800 9.3548 0.6513
14.1000 9.3681 0.6480
14.1200 9.3814 0.6540
14.1400 9.3947 0.6497
14.1600 9.4081 0.6537
14.1800 9.4214 0.6521
14.2000 9.4348 0.6548
14.2200 9.4481 0.6530
14.2400 9.4615 0.6562
14.2600 9.4748 0.6556
14.2800 9.4882 0.6550
14.3000 9.5015 0.6585
14.3200 9.5148 0.6555
14.3400 9.5282 0.6596
14.3600 9.5415 0.6567
14.3800 9.5548 0.6611
14.4000 9.5681 0.6578
14.4200 9.5815 0.6628
14.4400 9.5948 0.6597
14.4600 9.6081 0.6626
14.4800 9.6214 0.6613
14.5000 9.6348 0.6638
14.5200 9.6481 0.6625
14.5400 9.6614 0.6652
14.5600 9.6747 0.6640
14.5800 9.6881 0.6653
14.6000 9.7014 0.6667
14.6200 9.7148 0.6652
14.6400 9.7282 0.6679
14.6600 9.7415 0.6668
14.6800 9.7548 0.6695
14.7000 9.7682 0.6669
14.7200 9.7815 0.6707
14.7400 9.7948 0.6679
14.7600 9.8081 0.6707
14.7800 9.8215 0.6700
14.8000 9.8348 0.6723
14.8200 9.8481 0.6705
14.8400 9.8614 0.6741
14.8600 9.8747 0.6720
14.8800 9.8881 0.6746
14.9000 9.9014 0.6744
14.9200 9.9147 0.6742
14.9400 9.9281 0.6756
14.9600 9.9414 0.6756
14.9800 9.9549 0.6776
15.0000 9.9682 0.6754
15.0200 9.9815 0.6804
15.0400 9.9948 0.6769
15.0600 10.0082 0.6804
15.0800 10.0215 0.6780
15.1000 10.0348 0.6830
15.1200 10.0481 0.6788
15.1400 10.0614 0.6845
15.1600 10.0747 0.6803
15.1800 10.0881 0.6843
15.2000 10.1014 0.6828
15.2200 10.1147 0.6847
15.2400 10.1281 0.6841
15.2600 10.1414 0.6846
15.2800 10.1548 0.6864
15.3000 10.1681 0.6842
15.3200 10.1815 0.6877
15.3400 10.1949 0.6867
15.3600 10.2082 0.6876
15.3800 10.2215 0.6887
15.4000 10.2348 0.6897
15.4200 10.2482 0.6891
15.4400 10.2615 0.6911
15.4600 10.2748 0.6898
15.4800 10.2881 0.6916
15.5000 10.3014 0.6917
15.5200 10.3148 0.6934
15.5400 10.3281 0.6917
15.5600 10.3414 0.6948
15.5800 10.3547 0.6943
15.6000 10.3681 0.6947
15.6200 10.3814 0.6950
15.6400 10.3948 0.6967
15.6600 10.4081 0.6954
15.6800 10.4215 0.6971
15.7000 10.4348 0.6970
15.7200 10.4482 0.6963
15.7400 10.4615 0.6993
15.7600 10.4748 0.6972
15.7800 10.4881 0.6995
15.8000 10.5015 0.6989
15.8200 10.5148 0.7020
15.8400 10.5282 0.6986
15.8600 10.5415 0.7038
15.8800 10.5549 0.7008
15.9000 10.5682 0.7033
15.9200 10.5814 0.7024
15.9400 10.5947 0.7050
15.9600 10.6080 0.7044
15.9800 10.6214 0.7048
16.0000 10.6348 0.7063
16.0200 10.6481 0.7052
16.0400 10.6614 0.7081
16.0600 10.6748 0.7064
16.0800 10.6882 0.7088
16.1000 10.7015 0.7071
16.1200 10.7149 0.7107
16.1400 10.7282 0.7076
16.1600 10.7416 0.7121
16.1800 10.7549 0.7095
16.2000 10.7681 0.7122
16.2200 10.7814 0.7105
16.2400 10.7948 0.7133
16.2600 10.8081 0.7116
16.2800 10.8214 0.7140
16.3000 10.8347 0.7139
16.3200 10.8480 0.7136
16.3400 10.8614 0.7153
16.3600 10.8747 0.7160
16.3800 10.8881 0.7160
16.4000 10.9015 0.7165
16.4200 10.9148 0.7176
16.4400 10.9282 0.7158
16.4600 10.9415 0.7185
16.4800 10.9548 0.7176
16.5000 10.9682 0.7197
16.5200 10.9816 0.7181
16.5400 10.9949 0.7210
16.5600 11.0081 0.7194
16.5800 11.0214 0.7216
16.6000 11.0348 0.7220
16.6200 11.0481 0.7213
16.6400 11.0614 0.7229
16.6600 11.0747 0.7231
16.6800 11.0881 0.7236
16.7000 11.1014 0.7238
16.7200 11.1148 0.7265
16.7400 11.1281 0.7238
16.7600 11.1414 0.7285
16.7800 11.1548 0.7247
16.8000 11.1682 0.7291
16.8200 11.1815 0.7256
16.8400 11.1948 0.7313
16.8600 11.2082 0.7271
16.8800 11.2215 0.7314
16.9000 11.2348 0.7297
16.9200 11.2481 0.7310
16.9400 11.2615 0.7317
16.9600 11.2748 0.7328
16.9800 11.2881 0.7329
17.0000 11.3014 0.7321
17.0200 11.3147 0.7342
17.0400 11.3280 0.7309
17.0600 11.3414 0.7357
17.0800 11.3548 0.7322
17.1000 11.3681 0.7369
17.1200 11.3815 0.7338
17.1400 11.3949 0.7387
17.1600 11.4082 0.7340
17.1800 11.4215 0.7390
17.2000 11.4348 0.7370
17.2200 11.4482 0.7387
17.2400 11.4615 0.7390
17.2600 11.4748 0.7401
17.2800 11.4881 0.7399
17.3000 11.5014 0.7405
17.3200 11.5148 0.7419
17.3400 11.5281 0.7410
17.3600 11.5415 0.7430
17.3800 11.5548 0.7430
17.4000 11.5681 0.7436
17.4200 11.5815 0.7429
17.4400 11.5948 0.7461
17.4600 11.6081 0.7436
17.4800 11.6214 0.7464
17.5000 11.6348 0.7459
17.5200 11.6482 0.7464
17.5400 11.6615 0.7465
17.5600 11.6748 0.7491
17.5800 11.6881 0.7480
17.6000 11.7015 0.7496
17.6200 11.7149 0.7491
17.6400 11.7281 0.7495
17.6600 11.7414 0.7506
17.6800 11.7548 0.7517
17.7000 11.7681 0.7522
17.7200 11.7814 0.7515
17.7400 11.7947 0.7542
17.7600 11.8081 0.7507
17.7800 11.8214 0.7551
17.8000 11.8348 0.7521
17.8200 11.8481 0.7560
17.8400 11.8614 0.7531
17.8600 11.8748 0.7573
17.8800 11.8882 0.7543
17.9000 11.9015 0.7574
17.9200 11.9148 0.7576
17.9400 11.9281 0.7583
17.9600 11.9415 0.7582
17.9800 11.9548 0.7592
18.0000 11.9681 0.7605
18.0200 11.9814 0.7593
18.0400 11.9948 0.7634
18.0600 12.0081 0.7601
18.0800 12.0214 0.7634
18.1000 12.0347 0.7611
18.1200 12.0481 0.7648
18.1400 12.0614 0.7621
18.1600 12.0747 0.7659
18.1800 12.0881 0.7641
18.2000 12.1014 0.7650
18.2200 12.1148 0.7667
18.2400 12.1282 0.7657
18.2600 12.1416 0.7670
18.2800 12.1549 0.7669
18.3000 12.1682 0.7675
18.3200 12.1816 0.7671
18.3400 12.1949 0.7696
18.3600 12.2082 0.7684
18.3800 12.2214 0.7708
18.4000 12.2348 0.7697
18.4200 12.2481 0.7715
18.4400 12.2614 0.7704
18.4600 12.2747 0.7738
18.4800 12.2881 0.7716
18.5000 12.3014 0.7735
18.5200 12.3148 0.7733
18.5400 12.3281 0.7746
18.5600 12.3415 0.7737
18.5800 12.3548 0.7766
18.6000 12.3682 0.7747
18.6200 12.3815 0.7769
18.6400 12.3948 0.7765
18.6600 12.4081 0.7778
18.6800 12.4215 0.7775
18.7000 12.4348 0.7784
18.7200 12.4481 0.7794
18.7400 12.4614 0.7783
18.7600 12.4748 0.7820
18.7800 12.4881 0.7779
18.8000 12.5015 0.7817
18.8200 12.5148 0.7780
18.8400 12.5281 0.7822
18.8600 12.5414 0.7792
18.8800 12.5548 0.7837
18.9000 12.5681 0.7802
18.9200 12.5814 0.7836
18.9400 12.5948 0.7824
18.9600 12.6082 0.7849
18.9800 12.6215 0.7832
19.0000 12.6348 0.7852
19.0200 12.6481 0.7857
19.0400 12.6615 0.7850
19.0600 12.6748 0.7874
19.0800 12.6881 0.7858
19.1000 12.7014 0.7882
19.1200 12.7148 0.7882
19.1400 12.7281 0.7889
19.1600 12.7415 0.7885
19.1800 12.7547 0.7907
19.2000 12.7681 0.7897
19.2200 12.7814 0.7909
19.2400 12.7948 0.7909
19.2600 12.8081 0.7925
19.2800 12.8214 0.7913
19.3000 12.8348 0.7944
19.3200 12.8482 0.7921
19.3400 12.8615 0.7943
19.3600 12.8748 0.7942
19.3800 12.8881 0.7956
19.4000 12.9015 0.7956
19.4200 12.9148 0.7959
19.4400 12.9281 0.7974
19.4600 12.9414 0.7963
19.4800 12.9548 0.7997
19.5000 12.9681 0.7976
19.5200 12.9815 0.8002
19.5400 12.9948 0.7989
19.5600 13.0081 0.8019
19.5800 13.0214 0.7982
19.6000 13.0348 0.8039
19.6200 13.0481 0.7996
19.6400 13.0614 0.8042
19.6600 13.0748 0.8023
19.6800 13.0882 0.8040
19.7000 13.1015 0.8039
19.7200 13.1148 0.8048
19.7400 13.1282 0.8062
19.7600 13.1415 0.8047
19.7800 13.1549 0.8080
19.8000 13.1682 0.8055
19.8200 13.1815 0.8084
19.8400 13.1948 0.8066
19.8600 13.2081 0.8103
19.8800 13.2215 0.8068
19.9000 13.2348 0.8112
19.9200 13.2481 0.8093
19.9400 13.2614 0.8112
19.9600 13.2747 0.8102
19.9800 13.2880 0.8118
20.0000 13.3014 0.8113
20.0200 13.3148 0.8120
20.0400 13.3282 0.8127
20.0600 13.3415 0.8109
20.0800 13.3548 0.8134
20.1000 13.3682 0.8124
20.1200 13.3815 0.8144
20.1400 13.3949 0.8139
20.1600 13.4082 0.8163
20.1800 13.4215 0.8140
20.2000 13.4348 0.8182
20.2200 13.4481 0.8155
20.2400 13.4615 0.8189
20.2600 13.4747 0.8165
20.2800 13.4880 0.8207
20.3000 13.5014 0.8174
20.3200 13.5147 0.8211
20.3400 13.5281 0.8193
20.3600 13.5414 0.8210
20.3800 13.5548 0.8212
20.4000 13.5681 0.8227
20.4200 13.5815 0.8221
20.4400 13.5948 0.8225
20.4600 13.6082 0.8246
20.4800 13.6215 0.8225
20.5000 13.6349 0.8269
20.5200 13.6482 0.8233
20.5400 13.6614 0.8279
20.5600 13.6747 0.8240
20.5800 13.6881 0.8293
20.6000 13.7014 0.8252
20.6200 13.7147 0.8303
20.6400 13.7281 0.8269
20.6600 13.7414 0.8301
20.6800 13.7548 0.8288
20.7000 13.7682 0.8310
20.7200 13.7815 0.8302
20.7400 13.7948 0.8293
20.7600 13.8082 0.8315
20.7800 13.8215 0.8292
20.8000 13.8348 0.8326
20.8200 13.8481 0.8308
20.8400 13.8615 0.8334
20.8600 13.8748 0.8307
20.8800 13.8882 0.8343
20.9000 13.9015 0.8328
20.9200 13.9148 0.8355
20.9400 13.9282 0.8344
20.9600 13.9415 0.8360
20.9800 13.9548 0.8362
21.0000 13.9681 0.8373
21.0200 13.9814 0.8377
21.0400 13.9948 0.8381
21.0600 14.0081 0.8391
21.0800 14.0214 0.8386
21.1000 14.0348 0.8401
21.1200 14.0481 0.8404
21.1400 14.0615 0.8408
21.1600 14.0748 0.8408
21.1800 14.0881 0.8435
21.2000 14.1015 0.8404
21.2200 14.1149 0.8450
21.2400 14.1282 0.8421
21.2600 14.1415 0.8462
21.2800 14.1548 0.8425
21.3000 14.1681 0.8482
21.3200 14.1815 0.8435
21.3400 14.1948 0.8483
21.3600 14.2081 0.8463
21.3800 14.2214 0.8488
21.4000 14.2348 0.8472
21.4200 14.2481 0.8492
21.4400 14.2614 0.8497
21.4600 14.2748 0.8490
21.4800 14.2881 0.8517
21.5000 14.3015 0.8487
21.5200 14.3148 0.8537
21.5400 14.3282 0.8489
21.5600 14.3415 0.8548
21.5800 14.3549 0.8503
21.6000 14.3682 0.8554
21.6200 14.3815 0.8521
21.6400 14.3948 0.8563
21.6600 14.4081 0.8545
21.6800 14.4215 0.8548
21.7000 14.4348 0.8568
21.7200 14.4481 0.8561
21.7400 14.4614 0.8574
21.7600 14.4748 0.8571
21.7800 14.4881 0.8601
21.8000 14.5014 0.8568
21.8200 14.5147 0.8609
21.8400 14.5281 0.8581
21.8600 14.5415 0.8618
21.8800 14.5548 0.8587
21.9000 14.5682 0.8631
21.9200 14.5815 0.8595
21.9400 14.5949 0.8621
21.9600 14.6082 0.8606
21.9800 14.6215 0.8632
22.0000 14.6348 0.8628
22.0200 14.6482 0.8648
22.0400 14.6615 0.8629
22.0600 14.6748 0.8655
22.0800 14.6881 0.8653
22.1000 14.7014 0.8659
22.1200 14.7148 0.8661
22.1400 14.7281 0.8661
22.1600 14.7414 0.8677
22.1800 14.7548 0.8649
22.2000 14.7682 0.8694
22.2200 14.7815 0.8659
22.2400 14.7949 0.8699
22.2600 14.8082 0.8672
22.2800 14.8215 0.8711
22.3000 14.8349 0.8689
22.3200 14.8482 0.8726
22.3400 14.8615 0.8702
22.3600 14.8748 0.8733
22.3800 14.8881 0.8723
22.4000 14.9014 0.8729
22.4200 14.9148 0.8738
22.4400 14.9281 0.8730
22.4600 14.9414 0.8760
22.4800 14.9547 0.8726
22.5000 14.9681 0.8772
22.5200 14.9814 0.8730
22.5400 14.9948 0.8780
22.5600 15.0082 0.8747
22.5800 15.0215 0.8799
22.6000 15.0349 0.8761
22.6200 15.0482 0.8807
22.6400 15.0615 0.8778
22.6600 15.0749 0.8805
22.6800 15.0882 0.8809
22.7000 15.1015 0.8815
22.7200 15.1148 0.8816
22.7400 15.1281 0.8827
22.7600 15.1415 0.8831
22.7800 15.1548 0.8830
22.8000 15.1681 0.8848
22.8200 15.1814 0.8840
22.8400 15.1948 0.8859
22.8600 15.2081 0.8846
22.8800 15.2214 0.8876
22.9000 15.2348 0.8860
22.9200 15.2481 0.8880
22.9400 15.2615 0.8873
22.9600 15.2748 0.8885
22.9800 15.2881 0.8884
23.0000 15.3014 0.8900
23.0200 15.3148 0.8888
23.0400 15.3282 0.8904
23.0600 15.3415 0.8910
23.0800 15.3548 0.8917
23.1000 15.3682 0.8923
23.1200 15.3815 0.8915
23.1400 15.3948 0.8940
23.1600 15.4081 0.8924
23.1800 15.4214 0.8960
23.2000 15.4347 0.8928
23.2200 15.4480 0.8975
23.2400 15.4614 0.8929
23.2600 15.4747 0.8972
23.2800 15.4881 0.8939
23.3000 15.5015 0.8975
23.3200 15.5149 0.8957
23.3400 15.5282 0.8986
23.3600 15.5415 0.8981
23.3800 15.5549 0.8986
23.4000 15.5682 0.8998
23.4200 15.5815 0.9002
23.4400 15.5948 0.9008
23.4600 15.6081 0.8995
23.4800 15.6214 0.9036
23.5000 15.6347 0.9000
23.5200 15.6480 0.9048
23.5400 15.6614 0.9017
23.5600 15.6747 0.9046
23.5800 15.6881 0.9028
23.6000 15.7014 0.9058
23.6200 15.7148 0.9053
23.6400 15.7281 0.9059
23.6600 15.7415 0.9062
23.6800 15.7549 0.9063
23.7000 15.7682 0.9088
23.7200 15.7815 0.9071
23.7400 15.7949 0.9093
23.7600 15.8082 0.9076
23.7800 15.8215 0.9106
23.8000 15.8348 0.9077
23.8200 15.8481 0.9112
23.8400 15.8615 0.9091
23.8600 15.8748 0.9123
23.8800 15.8881 0.9093
23.9000 15.9014 0.9136
23.9200 15.9147 0.9105
23.9400 15.9281 0.9143
23.9600 15.9414 0.9122
23.9800 15.9548 0.9150
24.0000 15.9681 0.9132
24.0200 15.9815 0.9161
24.0400 15.9949 0.9134
24.0600 16.0082 0.9177
24.0800 16.0215 0.9169
24.1000 16.0349 0.9169
24.1200 16.0482 0.9190
24.1400 16.0615 0.9174
24.1600 16.0748 0.9211
24.1800 16.0881 0.9186
24.2000 16.1014 0.9227
24.2200 16.1148 0.9192
24.2400 16.1281 0.9233
24.2600 16.1414 0.9211
24.2800 16.1547 0.9240
24.3000 16.1681 0.9223
24.3200 16.1814 0.9258
24.3400 16.1948 0.9229
24.3600 16.2081 0.9258
24.3800 16.2215 0.9246
24.4000 16.2349 0.9246
24.4200 16.2482 0.9269
24.4400 16.2615 0.9254
24.4600 16.2748 0.9282
24.4800 16.2882 0.9248
24.5000 16.3015 0.9274
24.5200 16.3148 0.9241
24.5400 16.3281 0.9281
24.5600 16.3415 0.9266
24.5800 16.3548 0.9293
24.6000 16.3681 0.9275
24.6200 16.3814 0.9317
24.6400 16.3948 0.9291
24.6600 16.4081 0.9315
24.6800 16.4214 0.9315
24.7000 16.4348 0.9322
24.7200 16.4481 0.9337
24.7400 16.4615 0.9322
24.7600 16.4749 0.9353
24.7800 16.4881 0.9329
24.8000 16.5014 0.9373
24.8200 16.5148 0.9342
24.8400 16.5282 0.9373
24.8600 16.5415 0.9356
24.8800 16.5548 0.9384
24.9000 16.5681 0.9364
24.9200 16.5815 0.9408
24.9400 16.5948 0.9369
24.9600 16.6081 0.9412
24.9800 16.6214 0.9393
25.0000 16.6347 0.9418
25.0200 16.6481 0.9410
25.0400 16.6614 0.9425
25.0600 16.6748 0.9426
25.0800 16.6881 0.9426
25.1000 16.7015 0.9450
25.1200 16.7148 0.9432
25.1400 16.7281 0.9456
25.1600 16.7415 0.9433
25.1800 16.7548 0.9461
25.2000 16.7682 0.9424
25.2200 16.7815 0.9465
25.2400 16.7948 0.9430
25.2600 16.8081 0.9465
25.2800 16.8214 0.9446
25.3000 16.8348 0.9470
25.3200 16.8481 0.9468
25.3400 16.8614 0.9496
25.3600 16.8747 0.9478
25.3800 16.8881 0.9490
25.4000 16.9014 0.9509
25.4200 16.9147 0.9500
25.4400 16.9281 0.9526
25.4600 16.9415 0.9511
25.4800 16.9549 0.9537
25.5000 16.9682 0.9518
25.5200 16.9815 0.9547
25.5400 16.9949 0.9541
25.5600 17.0082 0.9557
25.5800 17.0215 0.9556
25.6000 17.0348 0.9564
25.6200 17.0481 0.9559
25.6400 17.0614 0.9571
25.6600 17.0748 0.9569
25.6800 17.0881 0.9577
25.7000 17.1014 0.9593
25.7200 17.1147 0.9589
25.7400 17.1281 0.9602
25.7600 17.1415 0.9600
25.7800 17.1548 0.9622
25.8000 17.1681 0.9601
25.8200 17.1815 0.9635
25.8400 17.1949 0.9606
25.8600 17.2082 0.9646
25.8800 17.2215 0.9628
25.9000 17.2348 0.9653
25.9200 17.2482 0.9628
25.9400 17.2615 0.9674
25.9600 17.2748 0.9641
25.9800 17.2881 0.9684
26.0000 17.3014 0.9659
26.0200 17.3148 0.9690
26.0400 17.3281 0.9674
26.0600 17.3414 0.9699
26.0800 17.3547 0.9697
26.1000 17.3681 0.9701
26.1200 17.3814 0.9717
26.1400 17.3948 0.9707
26.1600 17.4081 0.9728
26.1800 17.4215 0.9727
26.2000 17.4349 0.9742
26.2200 17.4482 0.9729
26.2400 17.4615 0.9766
26.2600 17.4748 0.9735
26.2800 17.4882 0.9769
26.3000 17.5015 0.9749
26.3200 17.5148 0.9788
26.3400 17.5281 0.9761
26.3600 17.5415 0.9789
26.3800 17.5548 0.9785
26.4000 17.5681 0.9793
26.4200 17.5814 0.9807
26.4400 17.5947 0.9796
26.4600 17.6081 0.9802
26.4800 17.6215 0.9799
26.5000 17.6348 0.9816
26.5200 17.6481 0.9799
26.5400 17.6615 0.9832
26.5600 17.6749 0.9802
26.5800 17.6882 0.9838
26.6000 17.7015 0.9809
26.6200 17.7148 0.9845
26.6400 17.7282 0.9817
26.6600 17.7415 0.9859
26.6800 17.7548 0.9839
26.7000 17.7681 0.9861
26.7200 17.7814 0.9865
26.7400 17.7948 0.9871
26.7600 17.8081 0.9875
26.7800 17.8214 0.9886
26.8000 17.8348 0.9896
26.8200 17.8481 0.9887
26.8400 17.8614 0.9910
26.8600 17.8748 0.9896
26.8800 17.8881 0.9927
26.9000 17.9015 0.9897
26.9200 17.9148 0.9929
26.9400 17.9282 0.9900
26.9600 17.9415 0.9948
26.9800 17.9548 0.9914
27.0000 17.9682 0.9959
27.0200 17.9815 0.9934
27.0400 17.9948 0.9969
27.0600 18.0081 0.9952
27.0800 18.0214 0.9979
27.1000 18.0348 0.9970
27.1200 18.0481 0.9984
27.1400 18.0614 0.9989
27.1600 18.0747 0.9991
27.1800 18.0881 1.0000
27.2000 18.1014 0.9992
27.2200 18.1147 1.0030
27.2400 18.1281 0.9996
27.2600 18.1415 1.0051
27.2800 18.1549 1.0000
27.3000 18.1682 1.0042
27.3200 18.1815 1.0018
27.3400 18.1948 1.0062
27.3600 18.2082 1.0021
27.3800 18.2216 1.0064
27.4000 18.2348 1.0046
27.4200 18.2481 1.0072
27.4400 18.2615 1.0067
27.4600 18.2748 1.0077
27.4800 18.2881 1.0080
27.5000 18.3014 1.0079
27.5200 18.3147 1.0109
27.5400 18.3280 1.0081
27.5600 18.3414 1.0123
27.5800 18.3548 1.0101
27.6000 18.3681 1.0129
27.6200 18.3815 1.0109
27.6400 18.3949 1.0153
27.6600 18.4082 1.0118
27.6800 18.4215 1.0159
27.7000 18.4348 1.0138
27.7200 18.4482 1.0165
27.7400 18.4615 1.0144
27.7600 18.4748 1.0177
27.7800 18.4881 1.0157
27.8000 18.5014 1.0184
27.8200 18.5148 1.0186
27.8400 18.5281 1.0185
27.8600 18.5414 1.0205
27.8800 18.5548 1.0196
27.9000 18.5681 1.0224
27.9200 18.5815 1.0197
27.9400 18.5948 1.0246
27.9600 18.6081 1.0199
27.9800 18.6215 1.0254
28.0000 18.6348 1.0212
28.0200 18.6482 1.0263
28.0400 18.6615 1.0219
28.0600 18.6748 1.0268
28.0800 18.6881 1.0227
28.1000 18.7015 1.0274
28.1200 18.7148 1.0256
28.1400 18.7281 1.0274
28.1600 18.7415 1.0265
28.1800 18.7548 1.0285
28.2000 18.7681 1.0286
28.2200 18.7814 1.0293
28.2400 18.7948 1.0317
28.2600 18.8081 1.0291
28.2800 18.8214 1.0325
28.3000 18.8347 1.0308
28.3200 18.8481 1.0337
28.3400 18.8614 1.0323
28.3600 18.8748 1.0343
28.3800 18.8882 1.0328
28.4000 18.9015 1.0347
28.4200 18.9148 1.0350
28.4400 18.9282 1.0357
28.4600 18.9415 1.0357
28.4800 18.9548 1.0366
28.5000 18.9681 1.0376
28.5200 18.9815 1.0361
28.5400 18.9948 1.0394
28.5600 19.0081 1.0370
28.5800 19.0214 1.0406
28.6000 19.0347 1.0391
28.6200 19.0481 1.0410
28.6400 19.0614 1.0402
28.6600 19.0747 1.0419
28.6800 19.0881 1.0398
28.7000 19.1015 1.0412
28.7200 19.1148 1.0412
28.7400 19.1282 1.0431
28.7600 19.1415 1.0423
28.7800 19.1548 1.0449
28.8000 19.1682 1.0447
28.8200 19.1815 1.0452
28.8400 19.1948 1.0471
28.8600 19.2081 1.0457
28.8800 19.2215 1.0497
28.9000 19.2348 1.0467
28.9200 19.2481 1.0499
28.9400 19.2614 1.0482
28.9600 19.2747 1.0528
28.9800 19.2881 1.0496
29.0000 19.3015 1.0523
29.0200 19.3148 1.0522
29.0400 19.3281 1.0541
29.0600 19.3414 1.0527
29.0800 19.3548 1.0546
29.1000 19.3682 1.0546
29.1200 19.3815 1.0548
29.1400 19.3948 1.0572
29.1600 19.4082 1.0546
29.1800 19.4215 1.0588
29.2000 19.4349 1.0563
29.2200 19.4481 1.0603
29.2400 19.4615 1.0568
29.2600 19.4748 1.0625
29.2800 19.4881 1.0582
29.3000 19.5014 1.0621
29.3200 19.5147 1.0609
29.3400 19.5281 1.0634
29.3600 19.5414 1.0610
29.3800 19.5548 1.0638
29.4000 19.5681 1.0638
29.4200 19.5815 1.0644
29.4400 19.5949 1.0664
29.4600 19.6082 1.0648
29.4800 19.6215 1.0671
29.5000 19.6348 1.0659
29.5200 19.6482 1.0681
29.5400 19.6615 1.0661
29.5600 19.6748 1.0705
29.5800 19.6881 1.0678
29.6000 19.7014 1.0711
29.6200 19.7147 1.0694
29.6400 19.7281 1.0725
29.6600 19.7414 1.0701
29.6800 19.7547 1.0734
29.7000 19.7681 1.0699
29.7200 19.7814 1.0727
29.7400 19.7948 1.0711
29.7600 19.8081 1.0749
29.7800 19.8214 1.0734
29.8000 19.8348 1.0756
29.8200 19.8482 1.0757
29.8400 19.8615 1.0753
29.8600 19.8748 1.0786
29.8800 19.8882 1.0767
29.9000 19.9015 1.0799
29.9200 19.9149 1.0780
29.9400 19.9281 1.0822
29.9600 19.9414 1.0789
29.9800 19.9548 1.0837
30.0000 19.9681 1.0813
30.0200 19.9814 1.0841
30.0400 19.9947 1.0833
30.0600 20.0081 1.0852
30.0800 20.0214 1.0841
30.1000 20.0348 1.0865
30.1200 20.0481 1.0872
30.1400 20.0614 1.0855
30.1600 20.0748 1.0889
30.1800 20.0882 1.0858
30.2000 20.1015 1.0898
30.2200 20.1148 1.0866
30.2400 20.1281 1.0922
30.2600 20.1415 1.0875
30.2800 20.1548 1.0933
30.3000 20.1682 1.0904
30.3200 20.1815 1.0939
30.3400 20.1949 1.0918
30.3600 20.2082 1.0954
30.3800 20.2215 1.0929
30.4000 20.2348 1.0970
30.4200 20.2480 1.0953
30.4400 20.2614 1.0966
30.4600 20.2747 1.0976
30.4800 20.2880 1.0984
30.5000 20.3014 1.0989
30.5200 20.3148 1.0985
30.5400 20.3282 1.1006
30.5600 20.3415 1.0986
30.5800 20.3548 1.1025
30.6000 20.3682 1.1003
30.6200 20.3815 1.1034
30.6400 20.3949 1.1014
30.6600 20.4082 1.1049
30.6800 20.4214 1.1012
30.7000 20.4348 1.1064
30.7200 20.4481 1.1024
30.7400 20.4614 1.1049
30.7600 20.4747 1.1036
30.7800 20.4881 1.1060
30.8000 20.5014 1.1052
30.8200 20.5148 1.1065
30.8400 20.5281 1.1086
30.8600 20.5415 1.1067
30.8800 20.5548 1.1109
30.9000 20.5682 1.1081
30.9200 20.5815 1.1123
30.9400 20.5948 1.1094
30.9600 20.6082 1.1150
30.9800 20.6215 1.1096
31.0000 20.6348 1.1149
31.0200 20.6481 1.1092
31.0400 20.6614 1.1121
31.0600 20.6748 1.1086
31.0800 20.6881 1.1115
31.1000 20.7014 1.1105
31.1200 20.7147 1.1119
31.1400 20.7281 1.1138
31.1600 20.7414 1.1129
31.1800 20.7548 1.1166
31.2000 20.7681 1.1143
31.2200 20.7814 1.1174
31.2400 20.7948 1.1167
31.2600 20.8082 1.1196
31.2800 20.8215 1.1175
31.3000 20.8349 1.1216
31.3200 20.8482 1.1202
31.3400 20.8615 1.1218
31.3600 20.8749 1.1221
31.3800 20.8881 1.1244
31.4000 20.9014 1.1231
31.4200 20.9148 1.1250
31.4400 20.9281 1.1257
31.4600 20.9414 1.1251
31.4800 20.9547 1.1281
31.5000 20.9680 1.1276
31.5200 20.9814 1.1289
31.5400 20.9948 1.1286
31.5600 21.0081 1.1306
31.5800 21.0214 1.1297
31.6000 21.0348 1.1329
31.6200 21.0482 1.1308
31.6400 21.0615 1.1342
31.6600 21.0748 1.1314
31.6800 21.0882 1.1364
31.7000 21.1015 1.1330
31.7200 21.1149 1.1372
31.7400 21.1282 1.1361
31.7600 21.1415 1.1377
31.7800 21.1548 1.1381
31.8000 21.1681 1.1383
31.8200 21.1815 1.1395
31.8400 21.1948 1.1383
31.8600 21.2081 1.1416
31.8800 21.2215 1.1389
31.9000 21.2348 1.1435
31.9200 21.2481 1.1402
31.9400 21.2614 1.1454
31.9600 21.2748 1.1413
31.9800 21.2882 1.1472
32.0000 21.3015 1.1428
32.0200 21.3148 1.1474
32.0400 21.3281 1.1464
32.0600 21.3415 1.1468
32.0800 21.3548 1.1484
32.1000 21.3682 1.1489
32.1200 21.3815 1.1505
32.1400 21.3948 1.1491
32.1600 21.4081 1.1523
32.1800 21.4215 1.1486
32.2000 21.4348 1.1526
32.2200 21.4481 1.1511
32.2400 21.4614 1.1546
32.2600 21.4748 1.1519
32.2800 21.4881 1.1559
32.3000 21.5014 1.1537
32.3200 21.5148 1.1568
32.3400 21.5281 1.1557
32.3600 21.5415 1.1579
32.3800 21.5548 1.1568
32.4000 21.5681 1.1596
32.4200 21.5815 1.1580
32.4400 21.5948 1.1602
32.4600 21.6081 1.1611
32.4800 21.6214 1.1608
32.5000 21.6348 1.1621
32.5200 21.6481 1.1627
32.5400 21.6615 1.1636
32.5600 21.6747 1.1637
32.5800 21.6881 1.1663
32.6000 21.7014 1.1646
32.6200 21.7147 1.1664
32.6400 21.7281 1.1663
32.6600 21.7414 1.1689
32.6800 21.7548 1.1666
32.7000 21.7682 1.1697
32.7200 21.7815 1.1684
32.7400 21.7949 1.1700
32.7600 21.8082 1.1712
32.7800 21.8216 1.1708
32.8000 21.8349 1.1726
32.8200 21.8482 1.1721
32.8400 21.8614 1.1757
32.8600 21.8747 1.1731
32.8800 21.8881 1.1778
32.9000 21.9014 1.1739
32.9200 21.9147 1.1793
32.9400 21.9281 1.1755
32.9600 21.9414 1.1815
32.9800 21.9548 1.1763
33.0000 21.9682 1.1828
33.0200 21.9815 1.1786
33.0400 21.9948 1.1831
33.0600 22.0082 1.1820
33.0800 22.0215 1.1831
33.1000 22.0348 1.1829
33.1200 22.0481 1.1833
33.1400 22.0615 1.1837
33.1600 22.0748 1.1832
33.1800 22.0881 1.1856
33.2000 22.1014 1.1852
33.2200 22.1148 1.1865
33.2400 22.1281 1.1871
33.2600 22.1415 1.1890
33.2800 22.1548 1.1877
33.3000 22.1681 1.1908
33.3200 22.1814 1.1896
33.3400 22.1948 1.1917
33.3600 22.2081 1.1921
33.3800 22.2214 1.1935
33.4000 22.2348 1.1931
33.4200 22.2482 1.1951
33.4400 22.2615 1.1946
33.4600 22.2748 1.1967
33.4800 22.2881 1.1948
33.5000 22.3015 1.1956
33.5200 22.3149 1.1951
33.5400 22.3282 1.1971
33.5600 22.3415 1.1980
33.5800 22.3548 1.1978
33.6000 22.3681 1.2015
33.6200 22.3814 1.1986
33.6400 22.3947 1.2031
33.6600 22.4080 1.2011
33.6800 22.4214 1.2052
33.7000 22.4348 1.2016
33.7200 22.4481 1.2074
33.7400 22.4614 1.2040
33.7600 22.4748 1.2076
33.7800 22.4882 1.2062
33.8000 22.5015 1.2094
33.8200 22.5148 1.2080
33.8400 22.5281 1.2110
33.8600 22.5415 1.2105
33.8800 22.5548 1.2109
33.9000 22.5682 1.2134
33.9200 22.5814 1.2126
33.9400 22.5948 1.2146
33.9600 22.6081 1.2137
33.9800 22.6215 1.2167
34.0000 22.6348 1.2141
34.0200 22.6481 1.2178
34.0400 22.6614 1.2158
34.0600 22.6748 1.2179
34.0800 22.6881 1.2174
34.1000 22.7015 1.2187
34.1200 22.7148 1.2176
34.1400 22.7282 1.2199
34.1600 22.7415 1.2199
34.1800 22.7548 1.2192
34.2000 22.7681 1.2218
34.2200 22.7815 1.2222
34.2400 22.7949 1.2221
34.2600 22.8082 1.2240
34.2800 22.8215 1.2249
34.3000 22.8348 1.2250
34.3200 22.8481 1.2275
34.3400 22.8615 1.2269
34.3600 22.8748 1.2287
34.3800 22.8881 1.2288
34.4000 22.9014 1.2299
34.4200 22.9147 1.2281
34.4400 22.9280 1.2326
34.4600 22.9414 1.2309
34.4800 22.9548 1.2332
34.5000 22.9682 1.2328
34.5200 22.9815 1.2353
34.5400 22.9948 1.2343
34.5600 23.0082 1.2360
34.5800 23.0215 1.2384
34.6000 23.0349 1.2358
34.6200 23.0482 1.2403
34.6400 23.0615 1.2379
34.6600 23.0748 1.2418
34.6800 23.0881 1.2399
34.7000 23.1015 1.2442
34.7200 23.1148 1.2406
34.7400 23.1281 1.2455
34.7600 23.1414 1.2433
34.7800 23.1547 1.2450
34.8000 23.1681 1.2466
34.8200 23.1814 1.2476
34.8400 23.1948 1.2475
34.8600 23.2082 1.2480
34.8800 23.2215 1.2511
34.9000 23.2348 1.2473
34.9200 23.2481 1.2527
34.9400 23.2615 1.2490
34.9600 23.2748 1.2523
34.9800 23.2882 1.2495
35.0000 23.3015 1.2536
35.0200 23.3148 1.2505
35.0400 23.3281 1.2550
35.0600 23.3414 1.2532
35.0800 23.3547 1.2567
35.1000 23.3681 1.2556
35.1200 23.3814 1.2590
35.1400 23.3948 1.2571
35.1600 23.4081 1.2602
35.1800 23.4215 1.2604
35.2000 23.4348 1.2613
35.2200 23.4482 1.2623
35.2400 23.4615 1.2627
35.2600 23.4748 1.2625
35.2800 23.4881 1.2635
35.3000 23.5015 1.2656
35.3200 23.5148 1.2637
35.3400 23.5282 1.2687
35.3600 23.5415 1.2662
35.3800 23.5548 1.2695
35.4000 23.5682 1.2682
35.4200 23.5815 1.2725
35.4400 23.5948 1.2698
35.4600 23.6081 1.2731
35.4800 23.6214 1.2724
35.5000 23.6348 1.2738
35.5200 23.6481 1.2749
35.5400 23.6614 1.2754
35.5600 23.6748 1.2772
35.5800 23.6881 1.2753
35.6000 23.7015 1.2799
35.6200 23.7148 1.2752
35.6400 23.7281 1.2815
35.6600 23.7415 1.2766
35.6800 23.7549 1.2816
35.7000 23.7682 1.2781
35.7200 23.7815 1.2842
35.7400 23.7948 1.2798
35.7600 23.8081 1.2854
35.7800 23.8215 1.2831
35.8000 23.8348 1.2857
35.8200 23.8481 1.2855
35.8400 23.8614 1.2870
35.8600 23.8747 1.2875
35.8800 23.8881 1.2875
35.9000 23.9014 1.2907
35.9200 23.9147 1.2884
35.9400 23.9281 1.2907
35.9600 23.9415 1.2875
35.9800 23.9548 1.2888
36.0000 23.9681 1.2892
36.0200 23.9815 1.2924
36.0400 23.9948 1.2910
36.0600 24.0082 1.2942
36.0800 24.0215 1.2944
36.1000 24.0348 1.2962
36.1200 24.0481 1.2949
36.1400 24.0615 1.2987
36.1600 24.0748 1.2977
36.1800 24.0881 1.2999
36.2000 24.1014 1.3011
36.2200 24.1148 1.3015
36.2400 24.1281 1.3024
36.2600 24.1414 1.3041
36.2800 24.1548 1.3046
36.3000 24.1681 1.3056
36.3200 24.1815 1.3078
36.3400 24.1948 1.3059
36.3600 24.2081 1.3106
36.3800 24.2215 1.3077
36.4000 24.2349 1.3115
36.4200 24.2482 1.3095
36.4400 24.2615 1.3139
36.4600 24.2748 1.3119
36.4800 24.2881 1.3145
36.5000 24.3015 1.3152
36.5200 24.3148 1.3147
36.5400 24.3281 1.3159
36.5600 24.3414 1.3169
36.5800 24.3547 1.3185
36.6000 24.3681 1.3182
36.6200 24.3814 1.3224
36.6400 24.3948 1.3200
36.6600 24.4082 1.3232
36.6800 24.4216 1.3221
36.7000 24.4349 1.3247
36.7200 24.4482 1.3239
36.7400 24.4615 1.3266
36.7600 24.4749 1.3251
36.7800 24.4882 1.3255
36.8000 24.5015 1.3261
36.8200 24.5148 1.3262
36.8400 24.5281 1.3276
36.8600 24.5414 1.3290
36.8800 24.5548 1.3293
36.9000 24.5681 1.3304
36.9200 24.5814 1.3331
36.9400 24.5947 1.3327
36.9600 24.6081 1.3332
36.9800 24.6214 1.3350
37.0000 24.6348 1.3353
37.0200 24.6482 1.3362
37.0400 24.6615 1.3384
37.0600 24.6749 1.3373
37.0800 24.6882 1.3409
37.1000 24.7015 1.3392
37.1200 24.7149 1.3430
37.1400 24.7282 1.3410
37.1600 24.7415 1.3461
37.1800 24.7548 1.3433
37.2000 24.7681 1.3466
37.2200 24.7814 1.3465
37.2400 24.7948 1.3471
37.2600 24.8081 1.3465
37.2800 24.8214 1.3475
37.3000 24.8347 1.3491
37.3200 24.8481 1.3482
37.3400 24.8614 1.3530
37.3600 24.8748 1.3497
37.3800 24.8881 1.3551
37.4000 24.9015 1.3521
37.4200 24.9148 1.3568
37.4400 24.9281 1.3544
37.4600 24.9415 1.3589
37.4800 24.9548 1.3578
37.5000 24.9682 1.3587
37.5200 24.9815 1.3606
37.5400 24.9948 1.3608
37.5600 25.0081 1.3626
37.5800 25.0215 1.3629
37.6000 25.0348 1.3652
37.6200 25.0481 1.3641
37.6400 25.0614 1.3678
37.6600 25.0747 1.3659
37.6800 25.0881 1.3688
37.7000 25.1014 1.3687
37.7200 25.1147 1.3712
37.7400 25.1281 1.3690
37.7600 25.1415 1.3737
37.7800 25.1549 1.3715
37.8000 25.1682 1.3754
37.8200 25.1815 1.3745
37.8400 25.1949 1.3776
37.8600 25.2082 1.3763
37.8800 25.2215 1.3798
37.9000 25.2348 1.3782
37.9200 25.2481 1.3818
37.9400 25.2614 1.3808
37.9600 25.2748 1.3818
37.9800 25.2881 1.3809
38.0000 25.3014 1.3825
38.0200 25.3147 1.3843
38.0400 25.3281 1.3821
38.0600 25.3414 1.3870
38.0800 25.3548 1.3843
38.1000 25.3681 1.3881
38.1200 25.3815 1.3870
38.1400 25.3949 1.3906
38.1600 25.4082 1.3888
38.1800 25.4215 1.3940
38.2000 25.4349 1.3918
38.2200 25.4482 1.3944
38.2400 25.4615 1.3954
38.2600 25.4748 1.3967
38.2800 25.4881 1.3975
38.3000 25.5014 1.3986
38.3200 25.5148 1.4016
38.3400 25.5281 1.3989
38.3600 25.5414 1.4049
38.3800 25.5547 1.4011
38.4000 25.5681 1.4065
38.4200 25.5814 1.4041
38.4400 25.5948 1.4084
38.4600 25.6081 1.4060
38.4800 25.6215 1.4104
38.5000 25.6349 1.4091
38.5200 25.6482 1.4110
38.5400 25.6615 1.4121
38.5600 25.6748 1.4131
38.5800 25.6882 1.4125
38.6000 25.7015 1.4147
38.6200 25.7148 1.4172
38.6400 25.7281 1.4155
38.6600 25.7415 1.4200
38.6800 25.7548 1.4182
38.7000 25.7680 1.4210
38.7200 25.7814 1.4198
38.7400 25.7947 1.4226
38.7600 25.8081 1.4191
38.7800 25.8215 1.4233
38.8000 25.8348 1.4219
38.8200 25.8481 1.4255
38.8400 25.8615 1.4242
38.8600 25.8749 1.4285
38.8800 25.8882 1.4266
38.9000 25.9015 1.4285
38.9200 25.9148 1.4263
38.9400 25.9282 1.4259
38.9600 25.9415 1.4295
38.9800 25.9548 1.4295
39.0000 25.9681 1.4324
39.0200 25.9815 1.4314
39.0400 25.9948 1.4359
39.0600 26.0081 1.4334
39.0800 26.0214 1.4397
39.1000 26.0348 1.4365
39.1200 26.0481 1.4413
39.1400 26.0614 1.4389
39.1600 26.0747 1.4440
39.1800 26.0881 1.4419
39.2000 26.1015 1.4459
39.2200 26.1149 1.4444
39.2400 26.1281 1.4458
39.2600 26.1414 1.4467
39.2800 26.1548 1.4464
39.3000 26.1682 1.4486
39.3200 26.1815 1.4467
39.3400 26.1948 1.4536
39.3600 26.2081 1.4486
39.3800 26.2215 1.4560
39.4000 26.2348 1.4516
39.4200 26.2481 1.4576
39.4400 26.2614 1.4546
39.4600 26.2747 1.4611
39.4800 26.2881 1.4564
39.5000 26.3014 1.4621
39.5200 26.3148 1.4600
39.5400 26.3281 1.4623
39.5600 26.3415 1.4613
39.5800 26.3548 1.4619
39.6000 26.3681 1.4635
39.6200 26.3815 1.4634
39.6400 26.3948 1.4686
39.6600 26.4082 1.4651
39.6800 26.4215 1.4717
39.7000 26.4348 1.4683
39.7200 26.4481 1.4742
39.7400 26.4615 1.4709
39.7600 26.4748 1.4764
39.7800 26.4881 1.4734
39.8000 26.5014 1.4781
39.8200 26.5147 1.4774
39.8400 26.5281 1.4804
39.8600 26.5414 1.4801
39.8800 26.5547 1.4831
39.9000 26.5681 1.4829
39.9200 26.5815 1.4854
39.9400 26.5949 1.4876
39.9600 26.6082 1.4861
39.9800 26.6215 1.4904
40.0000 26.6349 1.4896
40.0200 26.6482 1.4929
40.0400 26.6615 1.4916
40.0600 26.6747 1.4960
40.0800 26.6880 1.4939
40.1000 26.7014 1.4970
40.1200 26.7148 1.4949
40.1400 26.7281 1.4970
40.1600 26.7414 1.4961
40.1800 26.7548 1.4985
40.2000 26.7681 1.4981
40.2200 26.7815 1.5009
40.2400 26.7948 1.5021
40.2600 26.8081 1.5025
40.2800 26.8215 1.5060
40.3000 26.8349 1.5053
40.3200 26.8482 1.5083
40.3400 26.8615 1.5067
40.3600 26.8748 1.5127
40.3800 26.8882 1.5092
40.4000 26.9015 1.5145
40.4200 26.9148 1.5139
40.4400 26.9281 1.5165
40.4600 26.9414 1.5167
40.4800 26.9548 1.5199
40.5000 26.9681 1.5192
40.5200 26.9814 1.5215
40.5400 26.9947 1.5231
40.5600 27.0081 1.5237
40.5800 27.0214 1.5264
40.6000 27.0348 1.5256
40.6200 27.0481 1.5296
40.6400 27.0615 1.5265
40.6600 27.0749 1.5314
40.6800 27.0882 1.5294
40.7000 27.1015 1.5335
40.7200 27.1148 1.5327
40.7400 27.1282 1.5341
40.7600 27.1415 1.5341
40.7800 27.1548 1.5372
40.8000 27.1681 1.5369
40.8200 27.1814 1.5385
40.8400 27.1948 1.5412
40.8600 27.2081 1.5417
40.8800 27.2214 1.5442
40.9000 27.2347 1.5459
40.9200 27.2481 1.5471
40.9400 27.2615 1.5472
40.9600 27.2748 1.5519
40.9800 27.2881 1.5499
41.0000 27.3015 1.5535
41.0200 27.3149 1.5530
41.0400 27.3282 1.5560
41.0600 27.3415 1.5546
41.0800 27.3548 1.5601
41.1000 27.3682 1.5574
41.1200 27.3815 1.5617
41.1400 27.3948 1.5600
41.1600 27.4081 1.5644
41.1800 27.4214 1.5612
41.2000 27.4348 1.5630
41.2200 27.4481 1.5615
41.2400 27.4614 1.5633
41.2600 27.4747 1.5668
41.2800 27.4881 1.5664
41.3000 27.5015 1.5701
41.3200 27.5148 1.5704
41.3400 27.5281 1.5738
41.3600 27.5414 1.5726
41.3800 27.5548 1.5777
41.4000 27.5682 1.5760
41.4200 27.5815 1.5802
41.4400 27.5948 1.5787
41.4600 27.6082 1.5823
41.4800 27.6216 1.5812
41.5000 27.6349 1.5855
41.5200 27.6482 1.5835
41.5400 27.6615 1.5855
41.5600 27.6748 1.5881
41.5800 27.6881 1.5887
41.6000 27.7014 1.5911
41.6200 27.7147 1.5930
41.6400 27.7281 1.5952
41.6600 27.7414 1.5943
41.6800 27.7547 1.5991
41.7000 27.7681 1.5982
41.7200 27.7815 1.6014
41.7400 27.7949 1.6010
41.7600 27.8082 1.6039
41.7800 27.8215 1.6034
41.8000 27.8348 1.6077
41.8200 27.8482 1.6066
41.8400 27.8615 1.6099
41.8600 27.8748 1.6101
41.8800 27.8881 1.6137
41.9000 27.9014 1.6130
41.9200 27.9148 1.6164
41.9400 27.9281 1.6161
41.9600 27.9414 1.6181
41.9800 27.9547 1.6213
42.0000 27.9681 1.6216
42.0200 27.9814 1.6242
42.0400 27.9947 1.6251
42.0600 28.0081 1.6281
42.0800 28.0214 1.6266
42.1000 28.0348 1.6320
42.1200 28.0482 1.6294
42.1400 28.0615 1.6326
42.1600 28.0748 1.6308
42.1800 28.0882 1.6353
42.2000 28.1015 1.6338
42.2200 28.1148 1.6391
42.2400 28.1281 1.6391
42.2600 28.1414 1.6412
42.2800 28.1548 1.6442
42.3000 28.1681 1.6445
42.3200 28.1814 1.6477
42.3400 28.1947 1.6488
42.3600 28.2081 1.6523
42.3800 28.2215 1.6505
42.4000 28.2348 1.6567
42.4200 28.2482 1.6547
42.4400 28.2615 1.6597
42.4600 28.2749 1.6585
42.4800 28.2882 1.6633
42.5000 28.3015 1.6616
42.5200 28.3148 1.6636
42.5400 28.3281 1.6627
42.5600 28.3415 1.6640
42.5800 28.3548 1.6674
42.6000 28.3682 1.6680
42.6200 28.3815 1.6716
42.6400 28.3949 1.6720
42.6600 28.4082 1.6749
42.6800 28.4214 1.6747
42.7000 28.4347 1.6793
42.7200 28.4481 1.6789
42.7400 28.4614 1.6828
42.7600 28.4747 1.6827
42.7800 28.4881 1.6872
42.8000 28.5014 1.6845
42.8200 28.5148 1.6907
42.8400 28.5282 1.6889
42.8600 28.5415 1.6934
42.8800 28.5548 1.6944
42.9000 28.5682 1.6980
42.9200 28.5816 1.6971
42.9400 28.5949 1.7001
42.9600 28.6081 1.7014
42.9800 28.6215 1.7019
43.0000 28.6348 1.7049
43.0200 28.6481 1.7052
43.0400 28.6614 1.7080
43.0600 28.6747 1.7081
43.0800 28.6881 1.7142
43.1000 28.7014 1.7109
43.1200 28.7147 1.7190
43.1400 28.7281 1.7158
43.1600 28.7414 1.7216
43.1800 28.7548 1.7210
43.2000 28.7682 1.7255
43.2200 28.7815 1.7248
43.2400 28.7948 1.7298
43.2600 28.8082 1.7305
43.2800 28.8215 1.7327
43.3000 28.8348 1.7350
43.3200 28.8481 1.7377
43.3400 28.8615 1.7391
43.3600 28.8748 1.7412
43.3800 28.8881 1.7439
43.4000 28.9014 1.7442
43.4200 28.9147 1.7487
43.4400 28.9281 1.7483
43.4600 28.9414 1.7502
43.4800 28.9548 1.7499
43.5000 28.9681 1.7525
43.5200 28.9814 1.7534
43.5400 28.9948 1.7576
43.5600 29.0082 1.7598
43.5800 29.0215 1.7622
43.6000 29.0348 1.7653
43.6200 29.0482 1.7677
43.6400 29.0615 1.7690
43.6600 29.0749 1.7715
43.6800 29.0882 1.7747
43.7000 29.1015 1.7750
43.7200 29.1148 1.7798
43.7400 29.1282 1.7801
43.7600 29.1414 1.7849
43.7800 29.1547 1.7838
43.8000 29.1681 1.7902
43.8200 29.1814 1.7880
43.8400 29.1948 1.7939
43.8600 29.2081 1.7925
43.8800 29.2215 1.7979
43.9000 29.2348 1.7975
43.9200 29.2482 1.8036
43.9400 29.2615 1.8034
43.9600 29.2748 1.8077
43.9800 29.2882 1.8081
44.0000 29.3015 1.8084
44.0200 29.3149 1.8115
44.0400 29.3281 1.8133
44.0600 29.3414 1.8167
44.0800 29.3547 1.8180
44.1000 29.3681 1.8231
44.1200 29.3814 1.8222
44.1400 29.3947 1.8294
44.1600 29.4081 1.8280
44.1800 29.4214 1.8342
44.2000 29.4348 1.8338
44.2200 29.4481 1.8397
44.2400 29.4615 1.8404
44.2600 29.4748 1.8443
44.2800 29.4882 1.8469
44.3000 29.5015 1.8490
44.3200 29.5148 1.8511
44.3400 29.5282 1.8533
44.3600 29.5415 1.8559
44.3800 29.5548 1.8575
44.4000 29.5681 1.8627
44.4200 29.5814 1.8618
44.4400 29.5948 1.8674
44.4600 29.6081 1.8678
44.4800 29.6214 1.8734
44.5000 29.6347 1.8739
44.5200 29.6481 1.8794
44.5400 29.6614 1.8789
44.5600 29.6748 1.8830
44.5800 29.6881 1.8844
44.6000 29.7014 1.8888
44.6200 29.7148 1.8911
44.6400 29.7282 1.8963
44.6600 29.7415 1.8985
44.6800 29.7548 1.9025
44.7000 29.7681 1.9055
44.7200 29.7815 1.9057
44.7400 29.7949 1.9076
44.7600 29.8082 1.9066
44.7800 29.8215 1.9119
44.8000 29.8348 1.9121
44.8200 29.8482 1.9195
44.8400 29.8615 1.9181
44.8600 29.8748 1.9243
44.8800 29.8881 1.9243
44.9000 29.9014 1.9289
44.9200 29.9147 1.9287
44.9400 29.9281 1.9357
44.9600 29.9414 1.9362
44.9800 29.9548 1.9418
45.0000 29.9682 1.9442
45.0200 29.9815 1.9468
45.0400 29.9948 1.9514
45.0480 30.0001 1.9476
45.0490 30.0007 1.9471
45.0500 30.0013 1.9466
45.0700 30.0118 1.9361
45.0900 30.0141 1.9219
45.1100 30.0058 1.9287
45.1300 29.9931 1.9286
45.1500 29.9802 1.9157
45.1700 29.9673 1.9092
45.1900 29.9539 1.8969
45.2100 29.9399 1.8922
45.2300 29.9258 1.8814
45.2500 29.9119 1.8782
45.2700 29.8984 1.8654
45.2900 29.8851 1.8609
45.3100 29.8718 1.8514
45.3300 29.8585 1.8469
45.3500 29.8451 1.8388
45.3700 29.8318 1.8344
45.3900 29.8185 1.8260
45.4100 29.8051 1.8216
45.4300 29.7918 1.8145
45.4500 29.7784 1.8094
45.4700 29.7651 1.8026
45.4900 29.7517 1.7981
45.5100 29.7384 1.7915
45.5300 29.7250 1.7864
45.5500 29.7116 1.7826
45.5700 29.6983 1.7746
45.5900 29.6850 1.7728
45.6100 29.6717 1.7650
45.6300 29.6583 1.7624
45.6500 29.6450 1.7551
45.6700 29.6317 1.7532
45.6900 29.6183 1.7460
45.7100 29.6050 1.7442
45.7300 29.5917 1.7368
45.7500 29.5784 1.7351
45.7700 29.5651 1.7287
45.7900 29.5517 1.7263
45.8100 29.5384 1.7206
45.8300 29.5251 1.7168
45.8500 29.5117 1.7133
45.8700 29.4984 1.7081
45.8900 29.4850 1.7060
45.9100 29.4717 1.7006
45.9300 29.4584 1.6977
45.9500 29.4450 1.6926
45.9700 29.4317 1.6912
45.9900 29.4183 1.6852
46.0100 29.4050 1.6834
46.0300 29.3917 1.6778
46.0500 29.3784 1.6756
46.0700 29.3651 1.6712
46.0900 29.3518 1.6689
46.1100 29.3384 1.6634
46.1300 29.3251 1.6616
46.1500 29.3118 1.6580
46.1700 29.2984 1.6532
46.1900 29.2851 1.6517
46.2100 29.2718 1.6468
46.2300 29.2584 1.6450
46.2500 29.2450 1.6399
46.2700 29.2317 1.6400
46.2900 29.2183 1.6332
46.3100 29.2050 1.6327
46.3300 29.1916 1.6274
46.3500 29.1783 1.6264
46.3700 29.1650 1.6213
46.3900 29.1517 1.6212
46.4100 29.1383 1.6146
46.4300 29.1250 1.6146
46.4500 29.1117 1.6106
46.4700 29.0984 1.6078
46.4900 29.0851 1.6049
46.5100 29.0717 1.6018
46.5300 29.0584 1.5992
46.5500 29.0450 1.5961
46.5700 29.0317 1.5943
46.5900 29.0184 1.5902
46.6100 29.0050 1.5890
46.6300 28.9916 1.5841
46.6500 28.9783 1.5844
46.6700 28.9650 1.5773
46.6900 28.9516 1.5808
46.7100 28.9383 1.5719
46.7300 28.9250 1.5744
46.7500 28.9117 1.5680
46.7700 28.8983 1.5686
46.7900 28.8850 1.5633
46.8100 28.8717 1.5632
46.8300 28.8584 1.5588
46.8500 28.8451 1.5571
46.8700 28.8317 1.5553
46.8900 28.8184 1.5511
46.9100 28.8051 1.5506
46.9300 28.7917 1.5457
46.9500 28.7784 1.5469
46.9700 28.7650 1.5398
46.9900 28.7516 1.5432
47.0100 28.7383 1.5351
47.0300 28.7250 1.5369
47.0500 28.7116 1.5317
47.0700 28.6983 1.5322
47.0900 28.6850 1.5273
47.1100 28.6717 1.5268
47.1300 28.6584 1.5235
47.1500 28.6451 1.5217
47.1700 28.6317 1.5199
47.1900 28.6184 1.5170
47.2100 28.6051 1.5146
47.2300 28.5918 1.5130
47.2500 28.5784 1.5106
47.2700 28.5651 1.5073
47.2900 28.5517 1.5072
47.3100 28.5384 1.5035
47.3300 28.5250 1.5018
47.3500 28.5116 1.4996
47.3700 28.4983 1.4986
47.3900 28.4850 1.4945
47.4100 28.4717 1.4947
47.4300 28.4583 1.4894
47.4500 28.4450 1.4914
47.4700 28.4317 1.4852
47.4900 28.4184 1.4863
47.5100 28.4050 1.4827
47.5300 28.3917 1.4817
47.5500 28.3784 1.4787
47.5700 28.3651 1.4776
47.5900 28.3517 1.4750
47.6100 28.3384 1.4731
47.6300 28.3250 1.4715
47.6500 28.3117 1.4669
47.6700 28.2984 1.4701
47.6900 28.2850 1.4614
47.7100 28.2717 1.4670
47.7300 28.2583 1.4592
47.7500 28.2450 1.4620
47.7700 28.2317 1.4562
47.7900 28.2183 1.4575
47.8100 28.2050 1.4530
47.8300 28.1917 1.4534
47.8500 28.1783 1.4502
47.8700 28.1650 1.4483
47.8900 28.1517 1.4481
47.9100 28.1384 1.4438
47.9300 28.1251 1.4441
47.9500 28.1117 1.4406
47.9700 28.0983 1.4406
47.9900 28.0850 1.4357
48.0100 28.0717 1.4370
48.0300 28.0584 1.4320
48.0500 28.0450 1.4335
48.0700 28.0317 1.4289
48.0900 28.0183 1.4296
48.1100 28.0050 1.4260
48.1300 27.9917 1.4246
48.1500 27.9783 1.4238
48.1700 27.9650 1.4207
48.1900 27.9517 1.4198
48.2100 27.9384 1.4187
48.2300 27.9250 1.4159
48.2500 27.9117 1.4153
48.2700 27.8984 1.4130
48.2900 27.8851 1.4105
48.3100 27.8717 1.4117
48.3300 27.8583 1.4070
48.3500 27.8450 1.4074
48.3700 27.8317 1.4037
48.3900 27.8184 1.4044
48.4100 27.8050 1.4001
48.4300 27.7916 1.4013
48.4500 27.7783 1.3966
48.4700 27.7650 1.3972
48.4900 27.7517 1.3933
48.5100 27.7383 1.3934
48.5300 27.7250 1.3915
48.5500 27.7117 1.3894
48.5700 27.6984 1.3886
48.5900 27.6851 1.3853
48.6100 27.6717 1.3874
48.6300 27.6584 1.3816
48.6500 27.6451 1.3840
48.6700 27.6318 1.3772
48.6900 27.6184 1.3817
48.7100 27.6050 1.3742
48.7300 27.5917 1.3786
48.7500 27.5784 1.3719
48.7700 27.5650 1.3735
48.7900 27.5516 1.3706
48.8100 27.5383 1.3696
48.8300 27.5250 1.3678
48.8500 27.5117 1.3660
48.8700 27.4983 1.3658
48.8900 27.4850 1.3607
48.9100 27.4717 1.3630
48.9300 27.4584 1.3584
48.9500 27.4450 1.3606
48.9700 27.4317 1.3541
48.9900 27.4184 1.3576
49.0100 27.4051 1.3511
49.0300 27.3917 1.3545
49.0500 27.3784 1.3496
49.0700 27.3650 1.3503
49.0900 27.3517 1.3468
49.1100 27.3384 1.3472
49.1300 27.3250 1.3437
49.1500 27.3116 1.3451
49.1700 27.2983 1.3410
49.1900 27.2850 1.3410
49.2100 27.2717 1.3383
49.2300 27.2583 1.3385
49.2500 27.2450 1.3361
49.2700 27.2317 1.3347
49.2900 27.2184 1.3343
49.3100 27.2050 1.3304
49.3300 27.1917 1.3326
49.3500 27.1784 1.3280
49.3700 27.1651 1.3292
49.3900 27.1517 1.3240
49.4100 27.1383 1.3271
49.4300 27.1250 1.3207
49.4500 27.1117 1.3244
49.4700 27.0984 1.3195
49.4900 27.0850 1.3205
49.5100 27.0717 1.3166
49.5300 27.0583 1.3168
49.5500 27.0450 1.3149
49.5700 27.0317 1.3126
49.5900 27.0183 1.3139
49.6100 27.0050 1.3086
49.6300 26.9917 1.3113
49.6500 26.9784 1.3058
49.6700 26.9650 1.3095
49.6900 26.9517 1.3028
49.7100 26.9384 1.3068
49.7300 26.9251 1.3000
49.7500 26.9118 1.3026
49.7700 26.8984 1.2990
49.7900 26.8850 1.2997
49.8100 26.8717 1.2963
49.8300 26.8584 1.2965
49.8500 26.8450 1.2942
49.8700 26.8317 1.2933
49.8900 26.8183 1.2927
49.9100 26.8050 1.2898
49.9300 26.7917 1.2901
49.9500 26.7783 1.2878
49.9700 26.7650 1.2871
49.9900 26.7516 1.2854
50.0100 26.7383 1.2845
50.0300 26.7250 1.2827
50.0500 26.7117 1.2820
50.0700 26.6984 1.2806
50.0900 26.6851 1.2792
50.1100 26.6717 1.2772
50.1300 26.6584 1.2774
50.1500 26.6450 1.2750
50.1700 26.6317 1.2746
50.1900 26.6184 1.2722
50.2100 26.6051 1.2716
50.2300 26.5917 1.2696
50.2500 26.5783 1.2693
50.2700 26.5650 1.2682
50.2900 26.5516 1.2649
50.3100 26.5383 1.2666
50.3300 26.5250 1.2623
50.3500 26.5117 1.2644
50.3700 26.4984 1.2597
50.3900 26.4850 1.2617
50.4100 26.4717 1.2567
50.4300 26.4584 1.2597
50.4500 26.4451 1.2549
50.4700 26.4318 1.2570
50.4900 26.4184 1.2523
50.5100 26.4050 1.2537
50.5300 26.3917 1.2506
50.5500 26.3784 1.2504
50.5700 26.3650 1.2494
50.5900 26.3517 1.2469
50.6100 26.3383 1.2480
50.6300 26.3250 1.2435
50.6500 26.3117 1.2456
50.6700 26.2983 1.2418
50.6900 26.2850 1.2435
50.7100 26.2717 1.2391
50.7300 26.2584 1.2409
50.7500 26.2450 1.2374
50.7700 26.2317 1.2377
50.7900 26.2184 1.2358
50.8100 26.2051 1.2358
50.8300 26.1917 1.2320
50.8500 26.1784 1.2336
50.8700 26.1650 1.2305
50.8900 26.1517 1.2303
50.9100 26.1384 1.2289
50.9300 26.1250 1.2273
50.9500 26.1116 1.2269
50.9700 26.0983 1.2252
50.9900 26.0850 1.2242
51.0100 26.0717 1.2223
51.0300 26.0584 1.2226
51.0500 26.0450 1.2200
51.0700 26.0316 1.2210
51.0900 26.0183 1.2170
51.1100 26.0050 1.2196
51.1300 25.9917 1.2135
51.1500 25.9783 1.2177
51.1700 25.9650 1.2119
51.1900 25.9517 1.2146
51.2100 25.9384 1.2104
51.2300 25.9250 1.2120
51.2500 25.9117 1.2081
51.2700 25.8984 1.2092
51.2900 25.8851 1.2071
51.3100 25.8717 1.2052
51.3300 25.8583 1.2056
51.3500 25.8450 1.2033
51.3700 25.8317 1.2035
51.3900 25.8183 1.2007
51.4100 25.8050 1.2023
51.4300 25.7917 1.1975
51.4500 25.7784 1.2003
51.4700 25.7650 1.1958
51.4900 25.7517 1.1973
51.5100 25.7383 1.1951
51.5300 25.7251 1.1941
51.5500 25.7118 1.1934
51.5700 25.6984 1.1914
51.5900 25.6851 1.1917
51.6100 25.6717 1.1883
51.6300 25.6584 1.1899
51.6500 25.6450 1.1862
51.6700 25.6317 1.1878
51.6900 25.6183 1.1844
51.7100 25.6050 1.1863
51.7300 25.5917 1.1807
51.7500 25.5783 1.1841
51.7700 25.5649 1.1794
51.7900 25.5516 1.1816
51.8100 25.5383 1.1777
51.8300 25.5250 1.1795
51.8500 25.5116 1.1753
51.8700 25.4983 1.1774
51.8900 25.4850 1.1734
51.9100 25.4718 1.1741
51.9300 25.4584 1.1718
51.9500 25.4451 1.1724
51.9700 25.4317 1.1697
51.9900 25.4184 1.1694
52.0100 25.4051 1.1689
52.0300 25.3917 1.1661
52.0500 25.3783 1.1667
52.0700 25.3650 1.1638
52.0900 25.3516 1.1651
52.1100 25.3383 1.1619
52.1300 25.3249 1.1639
52.1500 25.3116 1.1599
52.1700 25.2983 1.1610
52.1900 25.2850 1.1589
52.2100 25.2717 1.1586
52.2300 25.2584 1.1581
52.2500 25.2451 1.1557
52.2700 25.2318 1.1553
52.2900 25.2184 1.1531
52.3100 25.2050 1.1548
52.3300 25.1917 1.1504
52.3500 25.1784 1.1527
52.3700 25.1650 1.1482
52.3900 25.1517 1.1512
52.4100 25.1383 1.1461
52.4300 25.1250 1.1493
52.4500 25.1116 1.1435
52.4700 25.0983 1.1473
52.4900 25.0850 1.1425
52.5100 25.0716 1.1447
52.5300 25.0584 1.1409
52.5500 25.0450 1.1418
52.5700 25.0317 1.1404
52.5900 25.0184 1.1390
52.6100 25.0051 1.1394
52.6300 24.9918 1.1368
52.6500 24.9784 1.1372
52.6700 24.9650 1.1346
52.6900 24.9517 1.1355
52.7100 24.9384 1.1322
52.7300 24.9250 1.1346
52.7500 24.9117 1.1296
52.7700 24.8983 1.1324
52.7900 24.8850 1.1280
52.8100 24.8717 1.1297
52.8300 24.8583 1.1263
52.8500 24.8450 1.1288
52.8700 24.8316 1.1244
52.8900 24.8183 1.1256
52.9100 24.8050 1.1232
52.9300 24.7917 1.1237
52.9500 24.7784 1.1216
52.9700 24.7651 1.1221
52.9900 24.7518 1.1197
53.0100 24.7384 1.1192
53.0300 24.7250 1.1199
53.0500 24.7117 1.1166
53.0700 24.6984 1.1182
53.0900 24.6851 1.1145
53.1100 24.6717 1.1171
53.1300 24.6583 1.1125
53.1500 24.6450 1.1158
53.1700 24.6317 1.1099
53.1900 24.6183 1.1128
53.2100 24.6050 1.1091
53.2300 24.5916 1.1104
53.2500 24.5783 1.1070
53.2700 24.5650 1.1084
53.2900 24.5517 1.1053
53.3100 24.5383 1.1055
53.3300 24.5251 1.1045
53.3500 24.5118 1.1025
53.3700 24.4984 1.1038
53.3900 24.4851 1.1001
53.4100 24.4717 1.1027
53.4300 24.4584 1.0975
53.4500 24.4451 1.1010
53.4700 24.4317 1.0952
53.4900 24.4183 1.0988
53.5100 24.4050 1.0947
53.5300 24.3916 1.0955
53.5500 24.3783 1.0926
53.5700 24.3649 1.0947
53.5900 24.3516 1.0912
53.6100 24.3383 1.0920
53.6300 24.3250 1.0904
53.6500 24.3117 1.0905
53.6700 24.2983 1.0890
53.6900 24.2851 1.0874
53.7100 24.2718 1.0878
53.7300 24.2584 1.0850
53.7500 24.2450 1.0871
53.7700 24.2317 1.0828
53.7900 24.2184 1.0849
53.8100 24.2050 1.0814
53.8300 24.1917 1.0830
53.8500 24.1783 1.0793
53.8700 24.1650 1.0824
53.8900 24.1517 1.0774
53.9100 24.1383 1.0792
53.9300 24.1250 1.0758
53.9500 24.1116 1.0786
53.9700 24.0983 1.0738
53.9900 24.0850 1.0761
54.0100 24.0717 1.0727
54.0300 24.0584 1.0725
54.0500 24.0451 1.0728
54.0700 24.0318 1.0702
54.0900 24.0184 1.0714
54.1100 24.0051 1.0681
54.1300 23.9917 1.0701
54.1500 23.9784 1.0663
54.1700 23.9650 1.0690
54.1900 23.9517 1.0643
54.2100 23.9383 1.0667
54.2300 23.9250 1.0628
54.2500 23.9116 1.0646
54.2700 23.8983 1.0615
54.2900 23.8850 1.0633
54.3100 23.8716 1.0612
54.3300 23.8584 1.0594
54.3500 23.8451 1.0609
54.3700 23.8317 1.0572
54.3900 23.8184 1.0589
54.4100 23.8051 1.0555
54.4300 23.7918 1.0576
54.4500 23.7784 1.0532
54.4700 23.7651 1.0561
54.4900 23.7517 1.0523
54.5100 23.7384 1.0534
54.5300 23.7250 1.0499
54.5500 23.7117 1.0525
54.5700 23.6983 1.0478
54.5900 23.6850 1.0509
54.6100 23.6717 1.0473
54.6300 23.6583 1.0464
54.6500 23.6450 1.0469
54.6700 23.6316 1.0452
54.6900 23.6183 1.0452
54.7100 23.6050 1.0442
54.7300 23.5917 1.0434
54.7500 23.5783 1.0422
54.7700 23.5650 1.0419
54.7900 23.5517 1.0398
54.8100 23.5384 1.0415
54.8300 23.5251 1.0369
54.8500 23.5117 1.0408
54.8700 23.4984 1.0348
54.8900 23.4851 1.0381
54.9100 23.4717 1.0359
54.9300 23.4583 1.0354
54.9500 23.4450 1.0338
54.9700 23.4317 1.0345
54.9900 23.4183 1.0307
55.0100 23.4050 1.0335
55.0300 23.3916 1.0314
55.0500 23.3783 1.0288
55.0700 23.3650 1.0320
55.0900 23.3517 1.0262
55.1100 23.3383 1.0303
55.1300 23.3250 1.0260
55.1500 23.3117 1.0282
55.1700 23.2984 1.0232
55.1900 23.2850 1.0268
55.2100 23.2717 1.0227
55.2300 23.2584 1.0241
55.2500 23.2451 1.0213
55.2700 23.2317 1.0224
55.2900 23.2183 1.0207
55.3100 23.2050 1.0203
55.3300 23.1917 1.0197
55.3500 23.1784 1.0175
55.3700 23.1650 1.0192
55.3900 23.1516 1.0158
55.4100 23.1383 1.0179
55.4300 23.1250 1.0139
55.4500 23.1117 1.0163
55.4700 23.0984 1.0119
55.4900 23.0850 1.0149
55.5100 23.0717 1.0116
55.5300 23.0584 1.0121
55.5500 23.0450 1.0098
55.5700 23.0317 1.0122
55.5900 23.0184 1.0068
55.6100 23.0051 1.0102
55.6300 22.9917 1.0070
55.6500 22.9783 1.0065
55.6700 22.9650 1.0070
55.6900 22.9516 1.0044
55.7100 22.9383 1.0047
55.7300 22.9250 1.0033
55.7500 22.9116 1.0040
55.7700 22.8983 1.0009
55.7900 22.8850 1.0029
55.8100 22.8717 0.9990
55.8300 22.8584 1.0018
55.8500 22.8451 0.9972
55.8700 22.8318 1.0005
55.8900 22.8184 0.9956
55.9100 22.8051 0.9980
55.9300 22.7917 0.9960
55.9500 22.7784 0.9953
55.9700 22.7650 0.9944
55.9900 22.7517 0.9930
56.0100 22.7383 0.9936
56.0300 22.7249 0.9917
56.0500 22.7117 0.9927
56.0700 22.6983 0.9889
56.0900 22.6850 0.9914
56.1100 22.6716 0.9880
56.1300 22.6583 0.9904
56.1500 22.6450 0.9860
56.1700 22.6317 0.9892
56.1900 22.6183 0.9838
56.2100 22.6050 0.9875
56.2300 22.5917 0.9836
56.2500 22.5784 0.9846
56.2700 22.5650 0.9827
56.2900 22.5517 0.9833
56.3100 22.5384 0.9815
56.3300 22.5250 0.9803
56.3500 22.5117 0.9814
56.3700 22.4983 0.9772
56.3900 22.4850 0.9800
56.4100 22.4717 0.9765
56.4300 22.4583 0.9782
56.4500 22.4450 0.9745
56.4700 22.4316 0.9786
56.4900 22.4183 0.9731
56.5100 22.4050 0.9765
56.5300 22.3917 0.9724
56.5500 22.3784 0.9748
56.5700 22.3650 0.9717
56.5900 22.3517 0.9732
56.6100 22.3384 0.9706
56.6300 22.3250 0.9713
56.6500 22.3117 0.9705
56.6700 22.2983 0.9684
56.6900 22.2850 0.9688
56.7100 22.2717 0.9671
56.7300 22.2584 0.9668
56.7500 22.2450 0.9651
56.7700 22.2317 0.9670
56.7900 22.2184 0.9620
56.8100 22.2050 0.9654
56.8300 22.1917 0.9625
56.8500 22.1783 0.9641
56.8700 22.1650 0.9598
56.8900 22.1517 0.9625
56.9100 22.1383 0.9584
56.9300 22.1250 0.9606
56.9500 22.1117 0.9583
56.9700 22.0984 0.9580
56.9900 22.0851 0.9570
57.0100 22.0717 0.9560
57.0300 22.0584 0.9558
57.0500 22.0451 0.9541
57.0700 22.0317 0.9554
57.0900 22.0183 0.9514
57.1100 22.0050 0.9541
57.1300 21.9917 0.9508
57.1500 21.9783 0.9525
57.1700 21.9650 0.9489
57.1900 21.9516 0.9516
57.2100 21.9383 0.9473
57.2300 21.9250 0.9493
57.2500 21.9117 0.9472
57.2700 21.8983 0.9476
57.2900 21.8850 0.9460
57.3100 21.8717 0.9456
57.3300 21.8584 0.9442
57.3500 21.8451 0.9441
57.3700 21.8317 0.9439
57.3900 21.8184 0.9422
57.4100 21.8051 0.9421
57.4300 21.7917 0.9401
57.4500 21.7783 0.9414
57.4700 21.7650 0.9388
57.4900 21.7516 0.9402
57.5100 21.7383 0.9376
57.5300 21.7250 0.9388
57.5500 21.7116 0.9364
57.5700 21.6983 0.9377
57.5900 21.6850 0.9350
57.6100 21.6717 0.9359
57.6300 21.6583 0.9344
57.6500 21.6450 0.9336
57.6700 21.6317 0.9336
57.6900 21.6184 0.9319
57.7100 21.6051 0.9313
57.7300 21.5917 0.9315
57.7500 21.5784 0.9305
57.7700 21.5650 0.9284
57.7900 21.5517 0.9301
57.8100 21.5384 0.9259
57.8300 21.5250 0.9293
57.8500 21.5117 0.9253
57.8700 21.4983 0.9276
57.8900 21.4850 0.9237
57.9100 21.4716 0.9259
57.9300 21.4583 0.9231
57.9500 21.4450 0.9235
57.9700 21.4317 0.9227
57.9900 21.4184 0.9228
58.0100 21.4050 0.9199
58.0300 21.3917 0.9214
58.0500 21.3784 0.9194
58.0700 21.3651 0.9192
58.0900 21.3517 0.9194
58.1100 21.3384 0.9176
58.1300 21.3251 0.9178
58.1500 21.3117 0.9158
58.1700 21.2983 0.9176
58.1900 21.2850 0.9132
58.2100 21.2717 0.9168
58.2300 21.2584 0.9120
58.2500 21.2451 0.9143
58.2700 21.2317 0.9120
58.2900 21.2183 0.9138
58.3100 21.2050 0.9095
58.3300 21.1917 0.9126
58.3500 21.1784 0.9088
58.3700 21.1650 0.9100
58.3900 21.1517 0.9092
58.4100 21.1384 0.9082
58.4300 21.1250 0.9077
58.4500 21.1117 0.9061
58.4700 21.0984 0.9074
58.4900 21.0851 0.9034
58.5100 21.0717 0.9060
58.5300 21.0584 0.9027
58.5500 21.0450 0.9045
58.5700 21.0317 0.9024
58.5900 21.0184 0.9035
58.6100 21.0050 0.8986
58.6300 20.9917 0.9030
58.6500 20.9783 0.8985
58.6700 20.9650 0.9004
58.6900 20.9517 0.8977
58.7100 20.9383 0.8997
58.7300 20.9250 0.8958
58.7500 20.9117 0.8981
58.7700 20.8984 0.8960
58.7900 20.8851 0.8954
58.8100 20.8717 0.8951
58.8300 20.8584 0.8940
58.8500 20.8450 0.8937
58.8700 20.8317 0.8929
58.8900 20.8184 0.8934
58.9100 20.8050 0.8903
58.9300 20.7917 0.8927
58.9500 20.7784 0.8888
58.9700 20.7650 0.8909
58.9900 20.7516 0.8877
59.0100 20.7383 0.8899
59.0300 20.7250 0.8858
59.0500 20.7117 0.8882
59.0700 20.6983 0.8860
59.0900 20.6850 0.8855
59.1100 20.6717 0.8852
59.1300 20.6584 0.8847
59.1500 20.6451 0.8829
59.1700 20.6317 0.8831
59.1900 20.6184 0.8831
59.2100 20.6051 0.8811
59.2300 20.5917 0.8819
59.2500 20.5784 0.8797
59.2700 20.5650 0.8806
59.2900 20.5516 0.8786
59.3100 20.5383 0.8795
59.3300 20.5250 0.8763
59.3500 20.5116 0.8792
59.3700 20.4983 0.8763
59.3900 20.4850 0.8762
59.4100 20.4717 0.8748
59.4300 20.4584 0.8757
59.4500 20.4450 0.8735
59.4700 20.4317 0.8734
59.4900 20.4184 0.8736
59.5100 20.4051 0.8707
59.5300 20.3917 0.8724
59.5500 20.3784 0.8707
59.5700 20.3650 0.8703
59.5900 20.3517 0.8690
59.6100 20.3384 0.8704
59.6300 20.3250 0.8665
59.6500 20.3116 0.8694
59.6700 20.2983 0.8659
59.6900 20.2850 0.8672
59.7100 20.2716 0.8648
59.7300 20.2583 0.8659
59.7500 20.2450 0.8637
59.7700 20.2317 0.8643
59.7900 20.2184 0.8638
59.8100 20.2050 0.8616
59.8300 20.1917 0.8641
59.8500 20.1784 0.8602
59.8700 20.1651 0.8616
59.8900 20.1517 0.8585
59.9100 20.1383 0.8624
59.9300 20.1250 0.8563
59.9500 20.1117 0.8606
59.9700 20.0983 0.8555
59.9900 20.0850 0.8591
60.0100 20.0716 0.8544
60.0300 20.0583 0.8580
60.0500 20.0450 0.8532
60.0700 20.0316 0.8560
60.0900 20.0183 0.8536
60.1100 20.0050 0.8535
60.1300 19.9917 0.8533
60.1500 19.9784 0.8526
60.1700 19.9650 0.8511
60.1900 19.9517 0.8514
60.2100 19.9384 0.8510
60.2300 19.9251 0.8487
60.2500 19.9117 0.8505
60.2700 19.8984 0.8473
60.2900 19.8850 0.8496
60.3100 19.8717 0.8454
60.3300 19.8584 0.8491
60.3500 19.8450 0.8440
60.3700 19.8316 0.8477
60.3900 19.8183 0.8440
60.4100 19.8050 0.8444
60.4300 19.7916 0.8434
60.4500 19.7783 0.8444
60.4700 19.7650 0.8418
60.4900 19.7517 0.8425
60.5100 19.7384 0.8417
60.5300 19.7250 0.8397
60.5500 19.7117 0.8417
60.5700 19.6984 0.8379
60.5900 19.6851 0.8407
60.6100 19.6717 0.8364
60.6300 19.6584 0.8401
60.6500 19.6451 0.8344
60.6700 19.6318 0.8385
60.6900 19.6184 0.8347
60.7100 19.6050 0.8359
60.7300 19.5917 0.8339
60.7500 19.5784 0.8349
60.7700 19.5650 0.8322
60.7900 19.5516 0.8330
60.8100 19.5383 0.8328
60.8300 19.5250 0.8309
60.8500 19.5117 0.8315
60.8700 19.4983 0.8301
60.8900 19.4850 0.8301
60.9100 19.4717 0.8279
60.9300 19.4584 0.8301
60.9500 19.4451 0.8263
60.9700 19.4317 0.8285
60.9900 19.4184 0.8260
61.0100 19.4050 0.8266
61.0300 19.3917 0.8242
61.0500 19.3784 0.8263
61.0700 19.3650 0.8225
61.0900 19.3516 0.8246
61.1100 19.3383 0.8223
61.1300 19.3250 0.8223
61.1500 19.3116 0.8210
61.1700 19.2983 0.8223
61.1900 19.2850 0.8199
61.2100 19.2717 0.8202
61.2300 19.2584 0.8200
61.2500 19.2450 0.8186
61.2700 19.2317 0.8187
61.2900 19.2184 0.8175
61.3100 19.2051 0.8180
61.3300 19.1918 0.8148
61.3500 19.1784 0.8178
61.3700 19.1651 0.8130
61.3900 19.1517 0.8156
61.4100 19.1384 0.8130
61.4300 19.1250 0.8145
61.4500 19.1116 0.8113
61.4700 19.0983 0.8136
61.4900 19.0850 0.8107
61.5100 19.0717 0.8116
61.5300 19.0583 0.8115
61.5500 19.0450 0.8092
61.5700 19.0317 0.8102
61.5900 19.0183 0.8080
61.6100 19.0050 0.8101
61.6300 18.9917 0.8051
61.6500 18.9784 0.8105
61.6700 18.9651 0.8040
61.6900 18.9517 0.8083
61.7100 18.9384 0.8041
61.7300 18.9250 0.8058
61.7500 18.9117 0.8031
61.7700 18.8984 0.8049
61.7900 18.8850 0.8022
61.8100 18.8716 0.8029
61.8300 18.8583 0.8017
61.8500 18.8450 0.8010
61.8700 18.8317 0.8009
61.8900 18.8183 0.8000
61.9100 18.8050 0.8011
61.9300 18.7917 0.7969
61.9500 18.7784 0.8012
61.9700 18.7650 0.7957
61.9900 18.7517 0.7988
62.0100 18.7384 0.7957
62.0300 18.7251 0.7967
62.0500 18.7117 0.7943
62.0700 18.6984 0.7968
62.0900 18.6850 0.7927
62.1100 18.6717 0.7947
62.1300 18.6584 0.7923
62.1500 18.6450 0.7932
62.1700 18.6317 0.7912
62.1900 18.6183 0.7918
62.2100 18.6050 0.7908
62.2300 18.5917 0.7890
62.2500 18.5783 0.7904
62.2700 18.5650 0.7886
62.2900 18.5517 0.7885
62.3100 18.5383 0.7872
62.3300 18.5250 0.7880
62.3500 18.5117 0.7849
62.3700 18.4984 0.7881
62.3900 18.4851 0.7836
62.4100 18.4717 0.7862
62.4300 18.4584 0.7830
62.4500 18.4450 0.7856
62.4700 18.4317 0.7815
62.4900 18.4184 0.7840
62.5100 18.4050 0.7812
62.5300 18.3917 0.7813
62.5500 18.3783 0.7822
62.5700 18.3650 0.7781
62.5900 18.3517 0.7821
62.6100 18.3383 0.7773
62.6300 18.3250 0.7814
62.6500 18.3117 0.7752
62.6700 18.2984 0.7807
62.6900 18.2850 0.7749
62.7100 18.2717 0.7785
62.7300 18.2584 0.7742
62.7500 18.2451 0.7776
62.7700 18.2317 0.7721
62.7900 18.2184 0.7761
62.8100 18.2050 0.7727
62.8300 18.1917 0.7731
62.8500 18.1784 0.7726
62.8700 18.1650 0.7717
62.8900 18.1516 0.7719
62.9100 18.1383 0.7705
62.9300 18.1250 0.7714
62.9500 18.1117 0.7679
62.9700 18.0983 0.7711
62.9900 18.0850 0.7677
63.0100 18.0717 0.7691
63.0300 18.0584 0.7662
63.0500 18.0450 0.7691
63.0700 18.0317 0.7634
63.0900 18.0184 0.7686
63.1100 18.0051 0.7629
63.1300 17.9918 0.7668
63.1500 17.9784 0.7625
63.1700 17.9650 0.7649
63.1900 17.9517 0.7617
63.2100 17.9383 0.7635
63.2300 17.9250 0.7620
63.2500 17.9116 0.7605
63.2700 17.8983 0.7620
63.2900 17.8850 0.7593
63.3100 17.8717 0.7604
63.3300 17.8583 0.7581
63.3500 17.8450 0.7608
63.3700 17.8317 0.7556
63.3900 17.8184 0.7599
63.4100 17.8050 0.7548
63.4300 17.7917 0.7581
63.4500 17.7784 0.7546
63.4700 17.7651 0.7567
63.4900 17.7517 0.7538
63.5100 17.7384 0.7548
63.5300 17.7250 0.7549
63.5500 17.7117 0.7520
63.5700 17.6984 0.7537
63.5900 17.6851 0.7507
63.6100 17.6717 0.7529
63.6300 17.6583 0.7492
63.6500 17.6450 0.7522
63.6700 17.6316 0.7472
63.6900 17.6183 0.7515
63.7100 17.6050 0.7469
63.7300 17.5917 0.7497
63.7500 17.5784 0.7457
63.7700 17.5651 0.7484
63.7900 17.5517 0.7448
63.8100 17.5384 0.7473
63.8300 17.5251 0.7446
63.8500 17.5117 0.7442
63.8700 17.4984 0.7441
63.8900 17.4850 0.7439
63.9100 17.4717 0.7427
63.9300 17.4584 0.7421
63.9500 17.4450 0.7425
63.9700 17.4317 0.7395
63.9900 17.4183 0.7419
64.0100 17.4050 0.7388
64.0300 17.3917 0.7409
64.0500 17.3783 0.7365
64.0700 17.3650 0.7412
64.0900 17.3517 0.7353
64.1100 17.3384 0.7402
64.1300 17.3250 0.7350
64.1500 17.3117 0.7376
64.1700 17.2984 0.7350
64.1900 17.2851 0.7357
64.2100 17.2717 0.7341
64.2300 17.2584 0.7341
64.2500 17.2450 0.7352
64.2700 17.2317 0.7311
64.2900 17.2184 0.7344
64.3100 17.2051 0.7301
64.3300 17.1917 0.7333
64.3500 17.1783 0.7290
64.3700 17.1650 0.7329
64.3900 17.1517 0.7264
64.4100 17.1383 0.7322
64.4300 17.1250 0.7269
64.4500 17.1116 0.7295
64.4700 17.0983 0.7271
64.4900 17.0850 0.7277
64.5100 17.0717 0.7264
64.5300 17.0583 0.7253
64.5500 17.0451 0.7266
64.5700 17.0318 0.7231
64.5900 17.0184 0.7262
64.6100 17.0050 0.7228
64.6300 16.9917 0.7245
64.6500 16.9784 0.7208
64.6700 16.9651 0.7243
64.6900 16.9517 0.7189
64.7100 16.9383 0.7232
64.7300 16.9250 0.7192
64.7500 16.9117 0.7210
64.7700 16.8983 0.7181
64.7900 16.8849 0.7203
64.8100 16.8716 0.7168
64.8300 16.8583 0.7184
64.8500 16.8450 0.7171
64.8700 16.8317 0.7171
64.8900 16.8184 0.7161
64.9100 16.8051 0.7158
64.9300 16.7918 0.7144
64.9500 16.7784 0.7143
64.9700 16.7651 0.7151
64.9900 16.7517 0.7124
65.0100 16.7384 0.7137
65.0300 16.7250 0.7113
65.0500 16.7117 0.7134
65.0700 16.6983 0.7096
65.0900 16.6850 0.7132
65.1100 16.6717 0.7079
65.1300 16.6583 0.7108
65.1500 16.6450 0.7088
65.1700 16.6316 0.7090
65.1900 16.6183 0.7077
65.2100 16.6050 0.7077
65.2300 16.5917 0.7068
65.2500 16.5784 0.7059
65.2700 16.5651 0.7071
65.2900 16.5517 0.7036
65.3100 16.5384 0.7063
65.3300 16.5250 0.7026
65.3500 16.5117 0.7046
65.3700 16.4984 0.7011
65.3900 16.4851 0.7044
65.4100 16.4717 0.7001
65.4300 16.4583 0.7026
65.4500 16.4450 0.7010
65.4700 16.4317 0.6998
65.4900 16.4184 0.6992
65.5100 16.4050 0.6998
65.5300 16.3916 0.6992
65.5500 16.3784 0.6970
65.5700 16.3650 0.6986
65.5900 16.3517 0.6961
65.6100 16.3383 0.6969
65.6300 16.3250 0.6957
65.6500 16.3117 0.6963
65.6700 16.2984 0.6941
65.6900 16.2850 0.6959
65.7100 16.2717 0.6921
65.7300 16.2584 0.6941
65.7500 16.2451 0.6919
65.7700 16.2317 0.6931
65.7900 16.2183 0.6905
65.8100 16.2050 0.6929
65.8300 16.1917 0.6887
65.8500 16.1783 0.6911
65.8700 16.1649 0.6884
65.8900 16.1516 0.6903
65.9100 16.1383 0.6873
65.9300 16.1250 0.6891
65.9500 16.1117 0.6871
65.9700 16.0983 0.6866
65.9900 16.0850 0.6876
66.0100 16.0717 0.6845
66.0300 16.0584 0.6864
66.0500 16.0450 0.6839
66.0700 16.0317 0.6859
66.0900 16.0184 0.6812
66.1100 16.0051 0.6857
66.1300 15.9917 0.6805
66.1500 15.9783 0.6835
66.1700 15.9650 0.6806
66.1900 15.9517 0.6812
66.2100 15.9384 0.6800
66.2300 15.9250 0.6810
66.2500 15.9116 0.6795
66.2700 15.8983 0.6778
66.2900 15.8850 0.6799
66.3100 15.8716 0.6763
66.3300 15.8583 0.6792
66.3500 15.8450 0.6759
66.3700 15.8318 0.6777
66.3900 15.8184 0.6737
66.4100 15.8051 0.6780
66.4300 15.7917 0.6735
66.4500 15.7784 0.6752
66.4700 15.7651 0.6729
66.4900 15.7517 0.6737
66.5100 15.7383 0.6717
66.5300 15.7250 0.6732
66.5500 15.7116 0.6707
66.5700 15.6983 0.6712
66.5900 15.6850 0.6702
66.6100 15.6716 0.6694
66.6300 15.6584 0.6696
66.6500 15.6450 0.6689
66.6700 15.6317 0.6686
66.6900 15.6184 0.6667
66.7100 15.6051 0.6689
66.7300 15.5917 0.6653
66.7500 15.5784 0.6669
66.7700 15.5650 0.6641
66.7900 15.5517 0.6670
66.8100 15.5384 0.6626
66.8300 15.5251 0.6658
66.8500 15.5117 0.6619
66.8700 15.4983 0.6642
66.8900 15.4850 0.6612
66.9100 15.4716 0.6628
66.9300 15.4583 0.6598
66.9500 15.4450 0.6615
66.9700 15.4316 0.6604
66.9900 15.4183 0.6589
67.0100 15.4050 0.6607
67.0300 15.3917 0.6580
67.0500 15.3784 0.6593
67.0700 15.3651 0.6568
67.0900 15.3518 0.6580
67.1100 15.3385 0.6550
67.1300 15.3250 0.6576
67.1500 15.3117 0.6549
67.1700 15.2983 0.6551
67.1900 15.2850 0.6541
67.2100 15.2717 0.6546
67.2300 15.2583 0.6524
67.2500 15.2450 0.6533
67.2700 15.2317 0.6529
67.2900 15.2183 0.6510
67.3100 15.2050 0.6531
67.3300 15.1916 0.6505
67.3500 15.1783 0.6513
67.3700 15.1650 0.6498
67.3900 15.1517 0.6507
67.4100 15.1384 0.6484
67.4300 15.1251 0.6494
67.4500 15.1118 0.6472
67.4700 15.0984 0.6474
67.4900 15.0851 0.6465
67.5100 15.0717 0.6476
67.5300 15.0584 0.6442
67.5500 15.0451 0.6461
67.5700 15.0317 0.6443
67.5900 15.0183 0.6435
67.6100 15.0050 0.6444
67.6300 14.9917 0.6428
67.6500 14.9783 0.6425
67.6700 14.9650 0.6421
67.6900 14.9516 0.6422
67.7100 14.9383 0.6404
67.7300 14.9250 0.6414
67.7500 14.9117 0.6398
67.7700 14.8984 0.6401
67.7900 14.8851 0.6383
67.8100 14.8717 0.6398
67.8300 14.8584 0.6361
67.8500 14.8451 0.6394
67.8700 14.8317 0.6358
67.8900 14.8184 0.6368
67.9100 14.8051 0.6349
67.9300 14.7917 0.6352
67.9500 14.7783 0.6341
67.9700 14.7650 0.6343
67.9900 14.7517 0.6338
68.0100 14.7383 0.6327
68.0300 14.7249 0.6331
68.0500 14.7116 0.6315
68.0700 14.6983 0.6324
68.0900 14.6850 0.6297
68.1100 14.6717 0.6326
68.1300 14.6583 0.6278
68.1500 14.6450 0.6311
68.1700 14.6318 0.6269
68.1900 14.6185 0.6293
68.2100 14.6051 0.6267
68.2300 14.5917 0.6284
68.2500 14.5784 0.6248
68.2700 14.5650 0.6267
68.2900 14.5517 0.6252
68.3100 14.5383 0.6244
68.3300 14.5250 0.6249
68.3500 14.5117 0.6235
68.3700 14.4983 0.6235
68.3900 14.4850 0.6217
68.4100 14.4716 0.6242
68.4300 14.4583 0.6195
68.4500 14.4450 0.6227
68.4700 14.4317 0.6189
68.4900 14.4183 0.6215
68.5100 14.4050 0.6187
68.5300 14.3918 0.6202
68.5500 14.3784 0.6169
68.5700 14.3651 0.6195
68.5900 14.3517 0.6167
68.6100 14.3384 0.6176
68.6300 14.3251 0.6158
68.6500 14.3117 0.6165
68.6700 14.2983 0.6152
68.6900 14.2849 0.6147
68.7100 14.2716 0.6150
68.7300 14.2583 0.6133
68.7500 14.2450 0.6141
68.7700 14.2316 0.6121
68.7900 14.2184 0.6130
68.8100 14.2051 0.6103
68.8300 14.1917 0.6134
68.8500 14.1784 0.6088
68.8700 14.1650 0.6120
68.8900 14.1517 0.6084
68.9100 14.1384 0.6099
68.9300 14.1251 0.6077
68.9500 14.1117 0.6091
68.9700 14.0984 0.6066
68.9900 14.0850 0.6069
69.0100 14.0717 0.6069
69.0300 14.0583 0.6054
69.0500 14.0450 0.6064
69.0700 14.0317 0.6044
69.0900 14.0184 0.6051
69.1100 14.0050 0.6027
69.1300 13.9916 0.6053
69.1500 13.9783 0.6008
69.1700 13.9650 0.6037
69.1900 13.9517 0.5999
69.2100 13.9383 0.6028
69.2300 13.9250 0.5995
69.2500 13.9117 0.6008
69.2700 13.8984 0.5993
69.2900 13.8851 0.5996
69.3100 13.8717 0.5982
69.3300 13.8584 0.5981
69.3500 13.8450 0.5972
69.3700 13.8317 0.5978
69.3900 13.8183 0.5959
69.4100 13.8050 0.5967
69.4300 13.7917 0.5956
69.4500 13.7783 0.5943
69.4700 13.7650 0.5956
69.4900 13.7516 0.5934
69.5100 13.7383 0.5942
69.5300 13.7250 0.5918
69.5500 13.7117 0.5934
69.5700 13.6983 0.5910
69.5900 13.6850 0.5922
69.6100 13.6717 0.5901
69.6300 13.6584 0.5910
69.6500 13.6450 0.5884
69.6700 13.6317 0.5908
69.6900 13.6184 0.5877
69.7100 13.6051 0.5881
69.7300 13.5917 0.5878
69.7500 13.5783 0.5860
69.7700 13.5650 0.5873
69.7900 13.5517 0.5852
69.8100 13.5383 0.5863
69.8300 13.5250 0.5831
69.8500 13.5116 0.5867
69.8700 13.4983 0.5821
69.8900 13.4850 0.5841
69.9100 13.4717 0.5813
69.9300 13.4584 0.5828
69.9500 13.4450 0.5804
69.9700 13.4317 0.5822
69.9900 13.4184 0.5798
70.0100 13.4051 0.5797
70.0300 13.3917 0.5796
70.0500 13.3784 0.5782
70.0700 13.3651 0.5790
70.0900 13.3517 0.5766
70.1100 13.3383 0.5780
70.1300 13.3250 0.5753
70.1500 13.3116 0.5775
70.1700 13.2983 0.5747
70.1900 13.2850 0.5761
70.2100 13.2716 0.5739
70.2300 13.2583 0.5758
70.2500 13.2450 0.5717
70.2700 13.2317 0.5744
70.2900 13.2184 0.5716
70.3100 13.2051 0.5735
70.3300 13.1918 0.5712
70.3500 13.1784 0.5717
70.3700 13.1651 0.5696
70.3900 13.1517 0.5704
70.4100 13.1384 0.5698
70.4300 13.1250 0.5678
70.4500 13.1117 0.5692
70.4700 13.0983 0.5665
70.4900 13.0849 0.5690
70.5100 13.0716 0.5657
70.5300 13.0583 0.5679
70.5500 13.0450 0.5633
70.5700 13.0316 0.5675
70.5900 13.0183 0.5628
70.6100 13.0050 0.5656
70.6300 12.9917 0.5621
70.6500 12.9784 0.5645
70.6700 12.9650 0.5612
70.6900 12.9517 0.5631
70.7100 12.9384 0.5616
70.7300 12.9251 0.5604
70.7500 12.9117 0.5620
70.7700 12.8983 0.5587
70.7900 12.8850 0.5603
70.8100 12.8717 0.5576
70.8300 12.8583 0.5603
70.8500 12.8450 0.5558
70.8700 12.8316 0.5599
70.8900 12.8183 0.5545
70.9100 12.8050 0.5583
70.9300 12.7916 0.5539
70.9500 12.7783 0.5580
70.9700 12.7650 0.5532
70.9900 12.7517 0.5561
71.0100 12.7384 0.5530
71.0300 12.7250 0.5546
71.0500 12.7117 0.5527
71.0700 12.6984 0.5521
71.0900 12.6850 0.5520
71.1100 12.6717 0.5510
71.1300 12.6583 0.5523
71.1500 12.6450 0.5483
71.1700 12.6317 0.5510
71.1900 12.6184 0.5477
71.2100 12.6050 0.5496
71.2300 12.5917 0.5467
71.2500 12.5784 0.5493
71.2700 12.5650 0.5444
71.2900 12.5517 0.5485
71.3100 12.5383 0.5443
71.3300 12.5250 0.5469
71.3500 12.5117 0.5437
71.3700 12.4984 0.5452
71.3900 12.4850 0.5433
71.4100 12.4717 0.5431
71.4300 12.4584 0.5440
71.4500 12.4451 0.5403
71.4700 12.4317 0.5433
71.4900 12.4184 0.5398
71.5100 12.4051 0.5415
71.5300 12.3917 0.5386
71.5500 12.3784 0.5408
71.5700 12.3650 0.5374
71.5900 12.3517 0.5402
71.6100 12.3383 0.5363
71.6300 12.3250 0.5379
71.6500 12.3116 0.5364
71.6700 12.2983 0.5368
71.6900 12.2850 0.5355
71.7100 12.2717 0.5348
71.7300 12.2583 0.5361
71.7500 12.2450 0.5321
71.7700 12.2317 0.5354
71.7900 12.2184 0.5311
71.8100 12.2051 0.5335
71.8300 12.1917 0.5306
71.8500 12.1784 0.5332
71.8700 12.1650 0.5285
71.8900 12.1517 0.5316
71.9100 12.1384 0.5280
71.9300 12.1250 0.5310
71.9500 12.1116 0.5272
71.9700 12.0983 0.5297
71.9900 12.0850 0.5262
72.0100 12.0716 0.5278
72.0300 12.0583 0.5264
72.0500 12.0450 0.5254
72.0700 12.0317 0.5265
72.0900 12.0183 0.5238
72.1100 12.0050 0.5247
72.1300 11.9917 0.5229
72.1500 11.9784 0.5241
72.1700 11.9651 0.5211
72.1900 11.9517 0.5241
72.2100 11.9384 0.5203
72.2300 11.9250 0.5225
72.2500 11.9117 0.5187
72.2700 11.8984 0.5217
72.2900 11.8850 0.5177
72.3100 11.8717 0.5203
72.3300 11.8583 0.5179
72.3500 11.8450 0.5184
72.3700 11.8316 0.5169
72.3900 11.8183 0.5173
72.4100 11.8050 0.5161
72.4300 11.7917 0.5159
72.4500 11.7783 0.5158
72.4700 11.7650 0.5142
72.4900 11.7517 0.5151
72.5100 11.7384 0.5125
72.5300 11.7251 0.5151
72.5500 11.7117 0.5119
72.5700 11.6984 0.5140
72.5900 11.6851 0.5094
72.6100 11.6718 0.5121
72.6300 11.6584 0.5091
72.6500 11.6450 0.5111
72.6700 11.6317 0.5089
72.6900 11.6184 0.5088
72.7100 11.6051 0.5081
72.7300 11.5917 0.5068
72.7500 11.5783 0.5093
72.7700 11.5650 0.5056
72.7900 11.5517 0.5076
72.8100 11.5384 0.5039
72.8300 11.5250 0.5077
72.8500 11.5117 0.5025
72.8700 11.4984 0.5068
72.8900 11.4851 0.5010
72.9100 11.4717 0.5054
72.9300 11.4583 0.5004
72.9500 11.4450 0.5038
72.9700 11.4317 0.5001
72.9900 11.4184 0.5024
73.0100 11.4050 0.4992
73.0300 11.3917 0.5006
73.0500 11.3784 0.4986
73.0700 11.3650 0.4986
73.0900 11.3516 0.4978
73.1100 11.3383 0.4975
73.1300 11.3250 0.4971
73.1500 11.3117 0.4954
73.1700 11.2983 0.4966
73.1900 11.2850 0.4948
73.2100 11.2717 0.4960
73.2300 11.2584 0.4934
73.2500 11.2451 0.4951
73.2700 11.2317 0.4919
73.2900 11.2184 0.4946
73.3100 11.2050 0.4913
73.3300 11.1917 0.4912
73.3500 11.1784 0.4902
73.3700 11.1650 0.4911
73.3900 11.1517 0.4888
73.4100 11.1383 0.4893
73.4300 11.1250 0.4882
73.4500 11.1116 0.4876
73.4700 11.0983 0.4878
73.4900 11.0850 0.4864
73.5100 11.0716 0.4871
73.5300 11.0583 0.4853
73.5500 11.0450 0.4868
73.5700 11.0317 0.4833
73.5900 11.0184 0.4870
73.6100 11.0051 0.4819
73.6300 10.9917 0.4856
73.6500 10.9784 0.4809
73.6700 10.9651 0.4841
73.6900 10.9518 0.4799
73.7100 10.9384 0.4820
73.7300 10.9250 0.4795
73.7500 10.9116 0.4805
73.7700 10.8983 0.4803
73.7900 10.8850 0.4786
73.8100 10.8716 0.4792
73.8300 10.8583 0.4774
73.8500 10.8450 0.4787
73.8700 10.8317 0.4751
73.8900 10.8184 0.4787
73.9100 10.8050 0.4743
73.9300 10.7917 0.4770
73.9500 10.7784 0.4737
73.9700 10.7651 0.4750
73.9900 10.7517 0.4734
74.0100 10.7384 0.4734
74.0300 10.7250 0.4725
74.0500 10.7117 0.4716
74.0700 10.6984 0.4708
74.0900 10.6850 0.4714
74.1100 10.6716 0.4700
74.1300 10.6583 0.4704
74.1500 10.6450 0.4689
74.1700 10.6316 0.4686
74.1900 10.6183 0.4688
74.2100 10.6050 0.4669
74.2300 10.5917 0.4681
74.2500 10.5784 0.4653
74.2700 10.5650 0.4666
74.2900 10.5517 0.4643
74.3100 10.5384 0.4658
74.3300 10.5251 0.4626
74.3500 10.5117 0.4642
74.3700 10.4984 0.4615
74.3900 10.4850 0.4639
74.4100 10.4717 0.4599
74.4300 10.4583 0.4627
74.4500 10.4450 0.4596
74.4700 10.4316 0.4604
74.4900 10.4183 0.4600
74.5100 10.4050 0.4585
74.5300 10.3917 0.4593
74.5500 10.3783 0.4565
74.5700 10.3650 0.4594
74.5900 10.3517 0.4544
74.6100 10.3384 0.4584
74.6300 10.3250 0.4542
74.6500 10.3117 0.4567
74.6700 10.2984 0.4531
74.6900 10.2851 0.4558
74.7100 10.2718 0.4523
74.7300 10.2584 0.4543
74.7500 10.2450 0.4522
74.7700 10.2317 0.4519
74.7900 10.2184 0.4518
74.8100 10.2050 0.4499
74.8300 10.1916 0.4508
74.8500 10.1783 0.4483
74.8700 10.1650 0.4508
74.8900 10.1517 0.4461
74.9100 10.1383 0.4492
74.9300 10.1250 0.4466
74.9500 10.1117 0.4479
74.9700 10.0983 0.4453
74.9900 10.0850 0.4477
75.0100 10.0717 0.4435
75.0300 10.0584 0.4462
75.0500 10.0451 0.4431
75.0700 10.0317 0.4451
75.0900 10.0184 0.4420
75.1100 10.0051 0.4438
75.1300 9.9917 0.4406
75.1500 9.9784 0.4420
75.1700 9.9650 0.4409
75.1900 9.9516 0.4400
75.2100 9.9383 0.4408
75.2300 9.9250 0.4387
75.2500 9.9116 0.4391
75.2700 9.8983 0.4372
75.2900 9.8849 0.4399
75.3100 9.8717 0.4350
75.3300 9.8584 0.4380
75.3500 9.8450 0.4351
75.3700 9.8317 0.4363
75.3900 9.8184 0.4339
75.4100 9.8051 0.4348
75.4300 9.7918 0.4333
75.4500 9.7784 0.4326
75.4700 9.7650 0.4341
75.4900 9.7517 0.4305
75.5100 9.7384 0.4333
75.5300 9.7250 0.4293
75.5500 9.7116 0.4324
75.5700 9.6983 0.4273
75.5900 9.6850 0.4318
75.6100 9.6716 0.4263
75.6300 9.6583 0.4295
75.6500 9.6450 0.4265
75.6700 9.6317 0.4279
75.6900 9.6184 0.4255
75.7100 9.6050 0.4269
75.7300 9.5917 0.4242
75.7500 9.5784 0.4256
75.7700 9.5651 0.4238
75.7900 9.5518 0.4236
75.8100 9.5384 0.4231
75.8300 9.5251 0.4227
75.8500 9.5117 0.4219
75.8700 9.4984 0.4211
75.8900 9.4850 0.4209
75.9100 9.4716 0.4198
75.9300 9.4583 0.4198
75.9500 9.4450 0.4184
75.9700 9.4316 0.4191
75.9900 9.4183 0.4169
76.0100 9.4050 0.4187
76.0300 9.3917 0.4151
76.0500 9.3784 0.4176
76.0700 9.3650 0.4142
76.0900 9.3517 0.4163
76.1100 9.3384 0.4129
76.1300 9.3251 0.4153
76.1500 9.3118 0.4120
76.1700 9.2984 0.4130
76.1900 9.2850 0.4124
76.2100 9.2717 0.4111
76.2300 9.2584 0.4113
76.2500 9.2450 0.4101
76.2700 9.2316 0.4102
76.2900 9.2183 0.4084
76.3100 9.2050 0.4100
76.3300 9.1916 0.4062
76.3500 9.1783 0.4090
76.3700 9.1649 0.4054
76.3900 9.1517 0.4077
76.4100 9.1383 0.4045
76.4300 9.1250 0.4062
76.4500 9.1117 0.4045
76.4700 9.0984 0.4038
76.4900 9.0851 0.4040
76.5100 9.0717 0.4025
76.5300 9.0583 0.4028
76.5500 9.0450 0.4018
76.5700 9.0317 0.4014
76.5900 9.0184 0.4000
76.6100 9.0050 0.4010
76.6300 8.9917 0.3987
76.6500 8.9783 0.3992
76.6700 8.9650 0.3982
76.6900 8.9517 0.3981
76.7100 8.9383 0.3962
76.7300 8.9250 0.3981
76.7500 8.9117 0.3945
76.7700 8.8983 0.3961
76.7900 8.8850 0.3940
76.8100 8.8717 0.3947
76.8300 8.8584 0.3927
76.8500 8.8451 0.3942
76.8700 8.8317 0.3916
76.8900 8.8184 0.3925
76.9100 8.8050 0.3907
76.9300 8.7917 0.3919
76.9500 8.7784 0.3895
76.9700 8.7650 0.3893
76.9900 8.7517 0.3901
77.0100 8.7383 0.3869
77.0300 8.7250 0.3897
77.0500 8.7117 0.3854
77.0700 8.6983 0.3884
77.0900 8.6850 0.3849
77.1100 8.6717 0.3866
77.1300 8.6584 0.3829
77.1500 8.6450 0.3860
77.1700 8.6317 0.3829
77.1900 8.6184 0.3838
77.2100 8.6051 0.3819
77.2300 8.5917 0.3814
77.2500 8.5784 0.3811
77.2700 8.5650 0.3808
77.2900 8.5517 0.3807
77.3100 8.5384 0.3781
77.3300 8.5250 0.3805
77.3500 8.5116 0.3767
77.3700 8.4983 0.3786
77.3900 8.4850 0.3767
77.4100 8.4717 0.3779
77.4300 8.4583 0.3748
77.4500 8.4450 0.3762
77.4700 8.4317 0.3750
77.4900 8.4184 0.3746
77.5100 8.4051 0.3738
77.5300 8.3917 0.3735
77.5500 8.3784 0.3727
77.5700 8.3651 0.3720
77.5900 8.3518 0.3723
77.6100 8.3384 0.3692
77.6300 8.3250 0.3719
77.6500 8.3117 0.3685
77.6700 8.2984 0.3699
77.6900 8.2850 0.3673
77.7100 8.2716 0.3697
77.7300 8.2583 0.3656
77.7500 8.2450 0.3684
77.7700 8.2317 0.3648
77.7900 8.2183 0.3673
77.8100 8.2050 0.3634
77.8300 8.1917 0.3659
77.8500 8.1784 0.3618
77.8700 8.1650 0.3651
77.8900 8.1517 0.3619
77.9100 8.1384 0.3625
77.9300 8.1251 0.3615
77.9500 8.1117 0.3610
77.9700 8.0984 0.3603
77.9900 8.0850 0.3592
78.0100 8.0717 0.3609
78.0300 8.0584 0.3566
78.0500 8.0450 0.3594
78.0700 8.0317 0.3553
78.0900 8.0183 0.3585
78.1100 8.0050 0.3548
78.1300 7.9917 0.3575
78.1500 7.9783 0.3532
78.1700 7.9650 0.3560
78.1900 7.9517 0.3531
78.2100 7.9384 0.3536
78.2300 7.9251 0.3527
78.2500 7.9117 0.3522
78.2700 7.8984 0.3514
78.2900 7.8851 0.3502
78.3100 7.8717 0.3521
78.3300 7.8584 0.3478
78.3500 7.8450 0.3514
78.3700 7.8317 0.3469
78.3900 7.8184 0.3494
78.4100 7.8050 0.3456
78.4300 7.7917 0.3487
78.4500 7.7783 0.3443
78.4700 7.7650 0.3474
78.4900 7.7517 0.3441
78.5100 7.7384 0.3449
78.5300 7.7250 0.3435
78.5500 7.7117 0.3442
78.5700 7.6984 0.3412
78.5900 7.6850 0.3427
78.6100 7.6717 0.3414
78.6300 7.6584 0.3405
78.6500 7.6451 0.3407
78.6700 7.6317 0.3391
78.6900 7.6184 0.3395
78.7100 7.6050 0.3383
78.7300 7.5917 0.3386
78.7500 7.5784 0.3359
78.7700 7.5651 0.3376
78.7900 7.5517 0.3342
78.8100 7.5383 0.3373
78.8300 7.5250 0.3322
78.8500 7.5117 0.3366
78.8700 7.4983 0.3309
78.8900 7.4849 0.3348
78.9100 7.4716 0.3314
78.9300 7.4583 0.3321
78.9500 7.4450 0.3307
78.9700 7.4317 0.3305
78.9900 7.4183 0.3309
79.0100 7.4051 0.3286
79.0300 7.3918 0.3307
79.0500 7.3784 0.3258
79.0700 7.3650 0.3297
79.0900 7.3517 0.3253
79.1100 7.3384 0.3279
79.1300 7.3250 0.3236
79.1500 7.3117 0.3272
79.1700 7.2983 0.3229
79.1900 7.2850 0.3254
79.2100 7.2716 0.3228
79.2300 7.2583 0.3227
79.2500 7.2449 0.3228
79.2700 7.2316 0.3209
79.2900 7.2183 0.3222
79.3100 7.2050 0.3196
79.3300 7.1917 0.3215
79.3500 7.1784 0.3181
79.3700 7.1651 0.3198
79.3900 7.1518 0.3180
79.4100 7.1384 0.3183
79.4300 7.1250 0.3160
79.4500 7.1117 0.3184
79.4700 7.0984 0.3135
79.4900 7.0851 0.3173
79.5100 7.0717 0.3136
79.5300 7.0583 0.3154
79.5500 7.0450 0.3128
79.5700 7.0317 0.3139
79.5900 7.0183 0.3117
79.6100 7.0050 0.3119
79.6300 6.9916 0.3116
79.6500 6.9783 0.3096
79.6700 6.9650 0.3107
79.6900 6.9517 0.3084
79.7100 6.9384 0.3099
79.7300 6.9251 0.3062
79.7500 6.9117 0.3100
79.7700 6.8984 0.3040
79.7900 6.8851 0.3089
79.8100 6.8717 0.3029
79.8300 6.8584 0.3065
79.8500 6.8451 0.3017
79.8700 6.8317 0.3053
79.8900 6.8183 0.3015
79.9100 6.8050 0.3025
79.9300 6.7917 0.3014
79.9500 6.7784 0.2997
79.9700 6.7650 0.3006
79.9900 6.7517 0.2988
80.0100 6.7383 0.2999
80.0300 6.7250 0.2960
80.0500 6.7117 0.2996
80.0700 6.6983 0.2944
80.0900 6.6850 0.2980
80.1100 6.6717 0.2940
80.1300 6.6584 0.2970
80.1500 6.6450 0.2930
80.1700 6.6317 0.2957
80.1900 6.6184 0.2926
80.2100 6.6051 0.2926
80.2300 6.5917 0.2927
80.2500 6.5783 0.2915
80.2700 6.5650 0.2913
80.2900 6.5517 0.2902
80.3100 6.5383 0.2903
80.3300 6.5249 0.2887
80.3500 6.5116 0.2904
80.3700 6.4983 0.2872
80.3900 6.4850 0.2882
80.4100 6.4717 0.2870
80.4300 6.4583 0.2870
80.4500 6.4450 0.2843
80.4700 6.4317 0.2867
80.4900 6.4184 0.2833
80.5100 6.4051 0.2843
80.5300 6.3917 0.2824
80.5500 6.3784 0.2830
80.5700 6.3651 0.2809
80.5900 6.3517 0.2817
80.6100 6.3383 0.2808
80.6300 6.3250 0.2793
80.6500 6.3117 0.2797
80.6700 6.2984 0.2777
80.6900 6.2850 0.2784
80.7100 6.2716 0.2767
80.7300 6.2583 0.2780
80.7500 6.2450 0.2742
80.7700 6.2317 0.2780
80.7900 6.2183 0.2739
80.8100 6.2050 0.2758
80.8300 6.1917 0.2729
80.8500 6.1784 0.2736
80.8700 6.1651 0.2720
80.8900 6.1517 0.2724
80.9100 6.1384 0.2714
80.9300 6.1251 0.2699
80.9500 6.1117 0.2708
80.9700 6.0984 0.2693
80.9900 6.0850 0.2689
81.0100 6.0716 0.2678
81.0300 6.0583 0.2682
81.0500 6.0449 0.2660
81.0700 6.0316 0.2676
81.0900 6.0183 0.2640
81.1100 6.0050 0.2666
81.1300 5.9917 0.2635
81.1500 5.9784 0.2653
81.1700 5.9651 0.2629
81.1900 5.9518 0.2636
81.2100 5.9384 0.2627
81.2300 5.9251 0.2609
81.2500 5.9117 0.2626
81.2700 5.8984 0.2611
81.2900 5.8851 0.2599
81.3100 5.8717 0.2597
81.3300 5.8583 0.2599
81.3500 5.8450 0.2580
81.3700 5.8316 0.2588
81.3900 5.8183 0.2564
81.4100 5.8050 0.2576
81.4300 5.7916 0.2552
81.4500 5.7783 0.2568
81.4700 5.7650 0.2527
81.4900 5.7517 0.2562
81.5100 5.7384 0.2521
81.5300 5.7251 0.2539
81.5500 5.7118 0.2516
81.5700 5.6984 0.2539
81.5900 5.6850 0.2504
81.6100 5.6717 0.2531
81.6300 5.6583 0.2499
81.6500 5.6450 0.2497
81.6700 5.6317 0.2503
81.6900 5.6183 0.2480
81.7100 5.6050 0.2500
81.7300 5.5917 0.2462
81.7500 5.5783 0.2500
81.7700 5.5650 0.2428
81.7900 5.5516 0.2490
81.8100 5.5383 0.2429
81.8300 5.5250 0.2463
81.8500 5.5117 0.2424
81.8700 5.4983 0.2451
81.8900 5.4850 0.2420
81.9100 5.4718 0.2440
81.9300 5.4584 0.2423
81.9500 5.4451 0.2411
81.9700 5.4317 0.2423
81.9900 5.4184 0.2402
82.0100 5.4050 0.2410
82.0300 5.3917 0.2382
82.0500 5.3783 0.2416
82.0700 5.3650 0.2363
82.0900 5.3517 0.2410
82.1100 5.3383 0.2359
82.1300 5.3250 0.2383
82.1500 5.3116 0.2353
82.1700 5.2983 0.2376
82.1900 5.2850 0.2333
82.2100 5.2717 0.2373
82.2300 5.2584 0.2333
82.2500 5.2451 0.2354
82.2700 5.2317 0.2326
82.2900 5.2184 0.2350
82.3100 5.2051 0.2328
82.3300 5.1917 0.2346
82.3500 5.1784 0.2340
82.3700 5.1651 0.2328
82.3900 5.1517 0.2352
82.4100 5.1383 0.2316
82.4300 5.1250 0.2334
82.4500 5.1117 0.2295
82.4700 5.0983 0.2324
82.4900 5.0850 0.2265
82.5100 5.0716 0.2309
82.5300 5.0583 0.2265
82.5500 5.0450 0.2277
82.5700 5.0317 0.2245
82.5900 5.0183 0.2264
82.6100 5.0050 0.2235
82.6300 4.9918 0.2239
82.6500 4.9785 0.2236
82.6700 4.9651 0.2214
82.6900 4.9517 0.2230
82.7100 4.9384 0.2197
82.7300 4.9250 0.2218
82.7500 4.9117 0.2185
82.7700 4.8983 0.2215
82.7900 4.8849 0.2166
82.8100 4.8716 0.2199
82.8300 4.8583 0.2158
82.8500 4.8450 0.2170
82.8700 4.8316 0.2150
82.8900 4.8183 0.2161
82.9100 4.8050 0.2132
82.9300 4.7917 0.2139
82.9500 4.7783 0.2132
82.9700 4.7650 0.2117
82.9900 4.7517 0.2119
83.0100 4.7384 0.2106
83.0300 4.7251 0.2105
83.0500 4.7117 0.2079
83.0700 4.6984 0.2104
83.0900 4.6850 0.2059
83.1100 4.6717 0.2093
83.1300 4.6583 0.2055
83.1500 4.6449 0.2066
83.1700 4.6316 0.2040
83.1900 4.6183 0.2059
83.2100 4.6050 0.2018
83.2300 4.5916 0.2051
83.2500 4.5783 0.2012
83.2700 4.5651 0.2027
83.2900 4.5517 0.1996
83.3100 4.5384 0.2015
83.3300 4.5251 0.1992
83.3500 4.5118 0.1994
83.3700 4.4985 0.1989
83.3900 4.4851 0.1965
83.4100 4.4717 0.1977
83.4300 4.4584 0.1961
83.4500 4.4450 0.1961
83.4700 4.4317 0.1940
83.4900 4.4183 0.1960
83.5100 4.4050 0.1923
83.5300 4.3917 0.1947
83.5500 4.3784 0.1912
83.5700 4.3650 0.1932
83.5900 4.3516 0.1901
83.6100 4.3383 0.1922
83.6300 4.3250 0.1887
83.6500 4.3117 0.1901
83.6700 4.2983 0.1889
83.6900 4.2850 0.1875
83.7100 4.2717 0.1876
83.7300 4.2584 0.1854
83.7500 4.2451 0.1865
83.7700 4.2317 0.1832
83.7900 4.2184 0.1860
83.8100 4.2050 0.1817
83.8300 4.1917 0.1847
83.8500 4.1783 0.1801
83.8700 4.1650 0.1824
83.8900 4.1517 0.1783
83.9100 4.1384 0.1815
83.9300 4.1250 0.1766
83.9500 4.1116 0.1791
83.9700 4.0983 0.1774
83.9900 4.0850 0.1766
84.0100 4.0717 0.1758
84.0300 4.0583 0.1762
84.0500 4.0450 0.1744
84.0700 4.0317 0.1739
84.0900 4.0184 0.1744
84.1100 4.0051 0.1714
84.1300 3.9917 0.1734
84.1500 3.9784 0.1708
84.1700 3.9650 0.1724
84.1900 3.9517 0.1679
84.2100 3.9383 0.1715
84.2300 3.9250 0.1664
84.2500 3.9117 0.1696
84.2700 3.8983 0.1660
84.2900 3.8850 0.1679
84.3100 3.8716 0.1644
84.3300 3.8583 0.1664
84.3500 3.8450 0.1635
84.3700 3.8317 0.1637
84.3900 3.8183 0.1633
84.4100 3.8050 0.1618
84.4300 3.7917 0.1613
84.4500 3.7784 0.1610
84.4700 3.7650 0.1605
84.4900 3.7517 0.1582
84.5100 3.7384 0.1606
84.5300 3.7251 0.1555
84.5500 3.7117 0.1582
84.5700 3.6983 0.1547
84.5900 3.6850 0.1571
84.6100 3.6716 0.1529
84.6300 3.6583 0.1560
84.6500 3.6450 0.1517
84.6700 3.6316 0.1534
84.6900 3.6183 0.1519
84.7100 3.6050 0.1521
84.7300 3.5917 0.1505
84.7500 3.5784 0.1504
84.7700 3.5650 0.1500
84.7900 3.5518 0.1475
84.8100 3.5384 0.1495
84.8300 3.5251 0.1463
84.8500 3.5117 0.1476
84.8700 3.4984 0.1456
84.8900 3.4850 0.1470
84.9100 3.4717 0.1434
84.9300 3.4583 0.1462
84.9500 3.4450 0.1426
84.9700 3.4317 0.1427
84.9900 3.4184 0.1419
85.0100 3.4050 0.1415
85.0300 3.3917 0.1390
85.0500 3.3783 0.1411
85.0700 3.3650 0.1375
85.0900 3.3517 0.1390
85.1100 3.3384 0.1367
85.1300 3.3250 0.1370
85.1500 3.3117 0.1353
85.1700 3.2984 0.1349
85.1900 3.2851 0.1351
85.2100 3.2717 0.1324
85.2300 3.2583 0.1341
85.2500 3.2451 0.1301
85.2700 3.2317 0.1325
85.2900 3.2184 0.1293
85.3100 3.2050 0.1316
85.3300 3.1917 0.1268
85.3500 3.1784 0.1303
85.3700 3.1650 0.1264
85.3900 3.1517 0.1283
85.4100 3.1383 0.1251
85.4300 3.1250 0.1264
85.4500 3.1117 0.1236
85.4700 3.0984 0.1249
85.4900 3.0850 0.1236
85.5100 3.0717 0.1223
85.5300 3.0584 0.1239
85.5500 3.0450 0.1198
85.5700 3.0317 0.1221
85.5900 3.0183 0.1195
85.6100 3.0050 0.1206
85.6300 2.9917 0.1172
85.6500 2.9784 0.1190
85.6700 2.9650 0.1174
85.6900 2.9517 0.1169
85.7100 2.9384 0.1155
85.7300 2.9250 0.1150
85.7500 2.9117 0.1140
85.7700 2.8983 0.1140
85.7900 2.8850 0.1134
85.8100 2.8717 0.1114
85.8300 2.8583 0.1130
85.8500 2.8450 0.1098
85.8700 2.8317 0.1112
85.8900 2.8184 0.1090
85.9100 2.8051 0.1100
85.9300 2.7917 0.1062
85.9500 2.7784 0.1087
85.9700 2.7650 0.1052
85.9900 2.7517 0.1068
86.0100 2.7384 0.1039
86.0300 2.7250 0.1062
86.0500 2.7116 0.1012
86.0700 2.6983 0.1046
86.0900 2.6850 0.1004
86.1100 2.6716 0.1018
86.1300 2.6583 0.1003
86.1500 2.6450 0.0999
86.1700 2.6317 0.0982
86.1900 2.6184 0.0977
86.2100 2.6050 0.0985
86.2300 2.5917 0.0952
86.2500 2.5784 0.0972
86.2700 2.5651 0.0941
86.2900 2.5517 0.0954
86.3100 2.5383 0.0934
86.3300 2.5250 0.0951
86.3500 2.5117 0.0897
86.3700 2.4984 0.0937
86.3900 2.4850 0.0891
86.4100 2.4716 0.0911
86.4300 2.4583 0.0887
86.4500 2.4450 0.0890
86.4700 2.4316 0.0868
86.4900 2.4183 0.0872
86.5100 2.4050 0.0867
86.5300 2.3917 0.0845
86.5500 2.3784 0.0853
86.5700 2.3650 0.0836
86.5900 2.3517 0.0840
86.6100 2.3384 0.0808
86.6300 2.3251 0.0834
86.6500 2.3117 0.0781
86.6700 2.2984 0.0820
86.6900 2.2850 0.0773
86.7100 2.2717 0.0799
86.7300 2.2584 0.0761
86.7500 2.2450 0.0783
86.7700 2.2317 0.0748
86.7900 2.2183 0.0764
86.8100 2.2050 0.0743
86.8300 2.1916 0.0738
86.8500 2.1783 0.0739
86.8700 2.1650 0.0726
86.8900 2.1517 0.0716
86.9100 2.1383 0.0701
86.9300 2.1250 0.0720
86.9500 2.1117 0.0680
86.9700 2.0984 0.0702
86.9900 2.0851 0.0663
87.0100 2.0717 0.0693
87.0300 2.0583 0.0643
87.0500 2.0450 0.0680
87.0700 2.0317 0.0617
87.0900 2.0184 0.0654
87.1100 2.0050 0.0616
87.1300 1.9916 0.0632
87.1500 1.9784 0.0605
87.1700 1.9650 0.0621
87.1900 1.9517 0.0585
87.2100 1.9383 0.0591
87.2300 1.9250 0.0593
87.2500 1.9117 0.0554
87.2700 1.8984 0.0577
87.2900 1.8850 0.0549
87.3100 1.8717 0.0561
87.3300 1.8584 0.0526
87.3500 1.8450 0.0554
87.3700 1.8317 0.0509
87.3900 1.8184 0.0538
87.4100 1.8050 0.0502
87.4300 1.7917 0.0515
87.4500 1.7784 0.0483
87.4700 1.7650 0.0497
87.4900 1.7517 0.0467
87.5100 1.7383 0.0470
87.5300 1.7250 0.0470
87.5500 1.7117 0.0443
87.5700 1.6983 0.0449
87.5900 1.6850 0.0432
87.6100 1.6717 0.0429
87.6300 1.6584 0.0407
87.6500 1.6450 0.0426
87.6700 1.6317 0.0388
87.6900 1.6184 0.0408
87.7100 1.6051 0.0372
87.7300 1.5917 0.0378
87.7500 1.5784 0.0358
87.7700 1.5650 0.0369
87.7900 1.5517 0.0340
87.8100 1.5384 0.0333
87.8300 1.5250 0.0336
87.8500 1.5117 0.0309
87.8700 1.4984 0.0319
87.8900 1.4850 0.0293
87.9100 1.4717 0.0303
87.9300 1.4583 0.0274
87.9500 1.4450 0.0297
87.9700 1.4317 0.0242
87.9900 1.4183 0.0280
88.0100 1.4050 0.0238
88.0300 1.3917 0.0260
88.0500 1.3784 0.0211
88.0700 1.3651 0.0248
88.0900 1.3518 0.0190
88.1100 1.3384 0.0214
88.1300 1.3250 0.0191
88.1500 1.3117 0.0191
88.1700 1.2984 0.0170
88.1900 1.2850 0.0178
88.2100 1.2717 0.0150
88.2300 1.2583 0.0154
88.2500 1.2450 0.0145
88.2700 1.2316 0.0126
88.2900 1.2183 0.0128
88.3100 1.2050 0.0112
88.3300 1.1917 0.0113
88.3500 1.1784 0.0085
88.3700 1.1650 0.0105
88.3900 1.1517 0.0072
88.4100 1.1384 0.0076
88.4300 1.1251 0.0061
88.4500 1.1118 0.0052
88.4700 1.0984 0.0039
88.4900 1.0850 0.0039
88.5100 1.0717 0.0023
88.5300 1.0584 0.0015
88.5500 1.0450 0.0019
88.5700 1.0316 -0.0006
88.5900 1.0183 0.0001
88.6100 1.0050 -0.0029
88.6300 0.9916 -0.0009
88.6500 0.9783 -0.0059
88.6700 0.9650 -0.0013
88.6900 0.9517 -0.0078
88.7100 0.9384 -0.0039
88.7300 0.9250 -0.0085
88.7500 0.9117 -0.0060
88.7700 0.8984 -0.0104
88.7900 0.8851 -0.0074
88.8100 0.8718 -0.0119
88.8300 0.8584 -0.0054
88.8500 0.8450 -0.0048
88.8700 0.8317 -0.0032
88.8900 0.8184 -0.0060
88.9100 0.8050 -0.0058
88.9300 0.7916 -0.0067
88.9500 0.7783 -0.0101
88.9700 0.7650 -0.0075
88.9900 0.7517 -0.0132
89.0100 0.7383 -0.0106
89.0300 0.7250 -0.0143
89.0500 0.7117 -0.0123
89.0700 0.6984 -0.0180
89.0900 0.6850 -0.0134
89.1100 0.6717 -0.0194
89.1300 0.6584 -0.0169
89.1500 0.6451 -0.0210
89.1700 0.6318 -0.0192
89.1900 0.6184 -0.0232
89.2100 0.6050 -0.0210
89.2300 0.5917 -0.0240
89.2500 0.5784 -0.0250
89.2700 0.5650 -0.0243
89.2900 0.5516 -0.0268
89.3100 0.5383 -0.0260
89.3300 0.5250 -0.0283
89.3500 0.5117 -0.0266
89.3700 0.4983 -0.0310
89.3900 0.4850 -0.0275
89.4100 0.4717 -0.0313
89.4300 0.4583 -0.0296
89.4500 0.4450 -0.0322
89.4700 0.4317 -0.0306
89.4900 0.4184 -0.0337
89.5100 0.4051 -0.0312
89.5300 0.3917 -0.0345
89.5500 0.3784 -0.0338
89.5700 0.3651 -0.0338
89.5900 0.3518 -0.0350
89.6100 0.3384 -0.0343
89.6300 0.3250 -0.0342
89.6500 0.3116 -0.0332
89.6700 0.2983 -0.0359
89.6900 0.2850 -0.0331
89.7100 0.2716 -0.0354
89.7300 0.2583 -0.0332
89.7500 0.2449 -0.0351
89.7700 0.2316 -0.0323
89.7900 0.2183 -0.0358
89.8100 0.2050 -0.0323
89.8300 0.1917 -0.0353
89.8500 0.1784 -0.0325
89.8700 0.1651 -0.0350
89.8900 0.1518 -0.0335
89.9100 0.1384 -0.0348
89.9300 0.1250 -0.0337
89.9500 0.1117 -0.0332
89.9700 0.0984 -0.0364
89.9900 0.0850 -0.0316
90.0100 0.0716 -0.0370
90.0300 0.0583 -0.0316
90.0500 0.0450 -0.0365
90.0700 0.0316 -0.0313
90.0900 0.0183 -0.0371
90.1100 0.0050 -0.0304
90.1180 -0.0002 -0.0276
