Raw Data
Time Displacement Force
(s) (mm) (N)
0.0000 0.0000 -0.0324
0.0200 0.0001 -0.0332
0.0400 0.0018 -0.0190
0.0600 0.0088 -0.0241
0.0800 0.0203 -0.0329
0.1000 0.0326 -0.0329
0.1200 0.0452 -0.0317
0.1400 0.0586 -0.0305
0.1600 0.0728 -0.0317
0.1800 0.0871 -0.0302
0.2000 0.1011 -0.0321
0.2200 0.1147 -0.0273
0.2400 0.1281 -0.0283
0.2600 0.1414 -0.0254
0.2800 0.1547 -0.0263
0.3000 0.1680 -0.0230
0.3200 0.1813 -0.0244
0.3400 0.1947 -0.0207
0.3600 0.2080 -0.0216
0.3800 0.2213 -0.0189
0.4000 0.2347 -0.0175
0.4200 0.2480 -0.0165
0.4400 0.2614 -0.0152
0.4600 0.2747 -0.0131
0.4800 0.2880 -0.0101
0.5000 0.3014 -0.0102
0.5200 0.3148 -0.0052
0.5400 0.3281 -0.0057
0.5600 0.3414 -0.0003
0.5800 0.3548 -0.0009
0.6000 0.3681 0.0049
0.6200 0.3815 0.0029
0.6400 0.3948 0.0086
0.6600 0.4080 0.0086
0.6800 0.4213 0.0127
0.7000 0.4347 0.0136
0.7200 0.4480 0.0167
0.7400 0.4614 0.0183
0.7600 0.4747 0.0214
0.7800 0.4880 0.0235
0.8000 0.5014 0.0248
0.8200 0.5147 0.0274
0.8400 0.5281 0.0298
0.8600 0.5415 0.0322
0.8800 0.5548 0.0329
0.9000 0.5681 0.0377
0.9200 0.5814 0.0366
0.9400 0.5948 0.0425
0.9600 0.6081 0.0415
0.9800 0.6215 0.0460
1.0000 0.6347 0.0451
1.0200 0.6480 0.0509
1.0400 0.6613 0.0496
1.0600 0.6747 0.0545
1.0800 0.6880 0.0549
1.1000 0.7013 0.0579
1.1200 0.7147 0.0598
1.1400 0.7280 0.0623
1.1600 0.7414 0.0630
1.1800 0.7547 0.0657
1.2000 0.7680 0.0697
1.2200 0.7814 0.0676
1.2400 0.7948 0.0746
1.2600 0.8081 0.0721
1.2800 0.8214 0.0785
1.3000 0.8347 0.0765
1.3200 0.8481 0.0826
1.3400 0.8615 0.0814
1.3600 0.8748 0.0856
1.3800 0.8881 0.0863
1.4000 0.9014 0.0884
1.4200 0.9148 0.0904
1.4400 0.9281 0.0930
1.4600 0.9414 0.0947
1.4800 0.9547 0.0962
1.5000 0.9680 0.1004
1.5200 0.9813 0.0985
1.5400 0.9947 0.1050
1.5600 1.0080 0.1025
1.5800 1.0214 0.1078
1.6000 1.0348 0.1062
1.6200 1.0481 0.1123
1.6400 1.0614 0.1102
1.6600 1.0748 0.1155
1.6800 1.0882 0.1159
1.7000 1.1015 0.1175
1.7200 1.1148 0.1206
1.7400 1.1281 0.1221
1.7600 1.1414 0.1239
1.7800 1.1547 0.1250
1.8000 1.1681 0.1290
1.8200 1.1814 0.1281
1.8400 1.1947 0.1325
1.8600 1.2080 0.1322
1.8800 1.2214 0.1360
1.9000 1.2347 0.1357
1.9200 1.2480 0.1410
1.9400 1.2614 0.1387
1.9600 1.2748 0.1440
1.9800 1.2882 0.1433
2.0000 1.3015 0.1472
2.0200 1.3148 0.1468
2.0400 1.3281 0.1516
2.0600 1.3415 0.1499
2.0800 1.3548 0.1544
2.1000 1.3681 0.1551
2.1200 1.3814 0.1569
2.1400 1.3947 0.1593
2.1600 1.4081 0.1598
2.1800 1.4214 0.1640
2.2000 1.4347 0.1621
2.2200 1.4480 0.1680
2.2400 1.4614 0.1651
2.2600 1.4747 0.1713
2.2800 1.4880 0.1694
2.3000 1.5014 0.1741
2.3200 1.5148 0.1734
2.3400 1.5282 0.1774
2.3600 1.5415 0.1774
2.3800 1.5548 0.1801
2.4000 1.5681 0.1825
2.4200 1.5815 0.1812
2.4400 1.5948 0.1865
2.4600 1.6081 0.1851
2.4800 1.6214 0.1900
2.5000 1.6347 0.1884
2.5200 1.6480 0.1943
2.5400 1.6613 0.1909
2.5600 1.6746 0.1964
2.5800 1.6880 0.1959
2.6000 1.7014 0.1993
2.6200 1.7147 0.1984
2.6400 1.7281 0.2033
2.6600 1.7414 0.2023
2.6800 1.7548 0.2055
2.7000 1.7682 0.2068
2.7200 1.7814 0.2082
2.7400 1.7947 0.2102
2.7600 1.8081 0.2115
2.7800 1.8215 0.2134
2.8000 1.8348 0.2137
2.8200 1.8481 0.2181
2.8400 1.8614 0.2166
2.8600 1.8747 0.2212
2.8800 1.8881 0.2196
2.9000 1.9014 0.2243
2.9200 1.9147 0.2226
2.9400 1.9280 0.2286
2.9600 1.9414 0.2258
2.9800 1.9547 0.2305
3.0000 1.9680 0.2305
3.0200 1.9814 0.2329
3.0400 1.9948 0.2337
3.0600 2.0081 0.2360
3.0800 2.0214 0.2375
3.1000 2.0347 0.2382
3.1200 2.0481 0.2428
3.1400 2.0615 0.2400
3.1600 2.0748 0.2457
3.1800 2.0881 0.2437
3.2000 2.1014 0.2492
3.2200 2.1148 0.2457
3.2400 2.1281 0.2523
3.2600 2.1414 0.2495
3.2800 2.1547 0.2530
3.3000 2.1680 0.2544
3.3200 2.1814 0.2554
3.3400 2.1947 0.2576
3.3600 2.2081 0.2580
3.3800 2.2214 0.2617
3.4000 2.2347 0.2598
3.4200 2.2481 0.2654
3.4400 2.2614 0.2627
3.4600 2.2747 0.2686
3.4800 2.2881 0.2664
3.5000 2.3014 0.2717
3.5200 2.3148 0.2685
3.5400 2.3281 0.2748
3.5600 2.3414 0.2729
3.5800 2.3548 0.2753
3.6000 2.3681 0.2773
3.6200 2.3814 0.2781
3.6400 2.3947 0.2800
3.6600 2.4080 0.2811
3.6800 2.4213 0.2834
3.7000 2.4347 0.2831
3.7200 2.4480 0.2869
3.7400 2.4614 0.2854
3.7600 2.4748 0.2893
3.7800 2.4882 0.2888
3.8000 2.5015 0.2931
3.8200 2.5148 0.2906
3.8400 2.5282 0.2966
3.8600 2.5415 0.2941
3.8800 2.5548 0.2981
3.9000 2.5680 0.2974
3.9200 2.5813 0.3013
3.9400 2.5947 0.3001
3.9600 2.6081 0.3030
3.9800 2.6214 0.3040
4.0000 2.6347 0.3053
4.0200 2.6480 0.3072
4.0400 2.6614 0.3078
4.0600 2.6747 0.3098
4.0800 2.6881 0.3101
4.1000 2.7014 0.3143
4.1200 2.7148 0.3113
4.1400 2.7282 0.3182
4.1600 2.7415 0.3140
4.1800 2.7548 0.3205
4.2000 2.7681 0.3176
4.2200 2.7815 0.3232
4.2400 2.7948 0.3192
4.2600 2.8081 0.3255
4.2800 2.8214 0.3230
4.3000 2.8347 0.3267
4.3200 2.8481 0.3273
4.3400 2.8614 0.3293
4.3600 2.8747 0.3301
4.3800 2.8880 0.3316
4.4000 2.9014 0.3341
4.4200 2.9147 0.3325
4.4400 2.9281 0.3377
4.4600 2.9414 0.3352
4.4800 2.9548 0.3396
4.5000 2.9681 0.3383
4.5200 2.9814 0.3430
4.5400 2.9947 0.3407
4.5600 3.0081 0.3455
4.5800 3.0215 0.3442
4.6000 3.0348 0.3466
4.6200 3.0481 0.3482
4.6400 3.0614 0.3497
4.6600 3.0747 0.3500
4.6800 3.0881 0.3525
4.7000 3.1014 0.3531
4.7200 3.1147 0.3544
4.7400 3.1280 0.3568
4.7600 3.1414 0.3565
4.7800 3.1547 0.3584
4.8000 3.1681 0.3593
4.8200 3.1814 0.3618
4.8400 3.1948 0.3608
4.8600 3.2081 0.3652
4.8800 3.2215 0.3630
4.9000 3.2347 0.3674
4.9200 3.2480 0.3659
4.9400 3.2614 0.3711
4.9600 3.2747 0.3678
4.9800 3.2880 0.3731
5.0000 3.3014 0.3718
5.0200 3.3147 0.3738
5.0400 3.3281 0.3748
5.0600 3.3414 0.3758
5.0800 3.3547 0.3773
5.1000 3.3680 0.3785
5.1200 3.3814 0.3807
5.1400 3.3947 0.3788
5.1600 3.4080 0.3855
5.1800 3.4214 0.3816
5.2000 3.4347 0.3877
5.2200 3.4481 0.3837
5.2400 3.4614 0.3901
5.2600 3.4747 0.3870
5.2800 3.4881 0.3923
5.3000 3.5014 0.3903
5.3200 3.5148 0.3935
5.3400 3.5281 0.3928
5.3600 3.5414 0.3958
5.3800 3.5548 0.3955
5.4000 3.5681 0.3970
5.4200 3.5814 0.3999
5.4400 3.5947 0.3974
5.4600 3.6080 0.4028
5.4800 3.6213 0.4013
5.5000 3.6347 0.4045
5.5200 3.6480 0.4039
5.5400 3.6614 0.4073
5.5600 3.6748 0.4053
5.5800 3.6881 0.4092
5.6000 3.7015 0.4088
5.6200 3.7148 0.4115
5.6400 3.7281 0.4117
5.6600 3.7415 0.4137
5.6800 3.7548 0.4137
5.7000 3.7681 0.4159
5.7200 3.7814 0.4183
5.7400 3.7947 0.4164
5.7600 3.8081 0.4207
5.7800 3.8214 0.4196
5.8000 3.8347 0.4231
5.8200 3.8480 0.4218
5.8400 3.8613 0.4264
5.8600 3.8747 0.4232
5.8800 3.8880 0.4282
5.9000 3.9014 0.4262
5.9200 3.9147 0.4298
5.9400 3.9281 0.4279
5.9600 3.9415 0.4328
5.9800 3.9548 0.4307
6.0000 3.9681 0.4335
6.0200 3.9815 0.4340
6.0400 3.9948 0.4339
6.0600 4.0081 0.4376
6.0800 4.0214 0.4362
6.1000 4.0347 0.4406
6.1200 4.0480 0.4379
6.1400 4.0614 0.4439
6.1600 4.0747 0.4401
6.1800 4.0880 0.4458
6.2000 4.1014 0.4432
6.2200 4.1148 0.4471
6.2400 4.1281 0.4459
6.2600 4.1414 0.4499
6.2800 4.1548 0.4474
6.3000 4.1681 0.4509
6.3200 4.1814 0.4519
6.3400 4.1947 0.4523
6.3600 4.2081 0.4544
6.3800 4.2214 0.4551
6.4000 4.2348 0.4568
6.4200 4.2481 0.4564
6.4400 4.2614 0.4607
6.4600 4.2748 0.4586
6.4800 4.2881 0.4622
6.5000 4.3014 0.4614
6.5200 4.3147 0.4646
6.5400 4.3280 0.4640
6.5600 4.3414 0.4672
6.5800 4.3547 0.4650
6.6000 4.3680 0.4687
6.6200 4.3814 0.4680
6.6400 4.3947 0.4700
6.6600 4.4081 0.4699
6.6800 4.4215 0.4722
6.7000 4.4348 0.4735
6.7200 4.4481 0.4733
6.7400 4.4614 0.4772
6.7600 4.4748 0.4751
6.7800 4.4881 0.4797
6.8000 4.5014 0.4776
6.8200 4.5148 0.4818
6.8400 4.5281 0.4799
6.8600 4.5414 0.4844
6.8800 4.5547 0.4821
6.9000 4.5680 0.4859
6.9200 4.5813 0.4847
6.9400 4.5947 0.4876
6.9600 4.6080 0.4859
6.9800 4.6214 0.4891
7.0000 4.6347 0.4887
7.0200 4.6481 0.4903
7.0400 4.6615 0.4922
7.0600 4.6748 0.4924
7.0800 4.6881 0.4943
7.1000 4.7015 0.4946
7.1200 4.7148 0.4957
7.1400 4.7281 0.4943
7.1600 4.7414 0.4991
7.1800 4.7547 0.4971
7.2000 4.7681 0.5006
7.2200 4.7814 0.4999
7.2400 4.7947 0.5028
7.2600 4.8080 0.5020
7.2800 4.8214 0.5051
7.3000 4.8347 0.5032
7.3200 4.8480 0.5056
7.3400 4.8613 0.5070
7.3600 4.8747 0.5067
7.3800 4.8881 0.5095
7.4000 4.9014 0.5094
7.4200 4.9148 0.5115
7.4400 4.9281 0.5105
7.4600 4.9415 0.5154
7.4800 4.9548 0.5127
7.5000 4.9682 0.5162
7.5200 4.9814 0.5151
7.5400 4.9947 0.5184
7.5600 5.0081 0.5171
7.5800 5.0214 0.5206
7.6000 5.0347 0.5200
7.6200 5.0480 0.5217
7.6400 5.0613 0.5237
7.6600 5.0747 0.5229
7.6800 5.0880 0.5254
7.7000 5.1014 0.5255
7.7200 5.1147 0.5286
7.7400 5.1281 0.5262
7.7600 5.1415 0.5312
7.7800 5.1548 0.5283
7.8000 5.1681 0.5328
7.8200 5.1814 0.5312
7.8400 5.1948 0.5347
7.8600 5.2081 0.5328
7.8800 5.2214 0.5373
7.9000 5.2347 0.5347
7.9200 5.2480 0.5372
7.9400 5.2614 0.5372
7.9600 5.2747 0.5393
7.9800 5.2880 0.5396
8.0000 5.3013 0.5409
8.0200 5.3147 0.5427
8.0400 5.3281 0.5417
8.0600 5.3414 0.5443
8.0800 5.3548 0.5426
8.1000 5.3681 0.5451
8.1200 5.3815 0.5446
8.1400 5.3948 0.5482
8.1600 5.4081 0.5468
8.1800 5.4214 0.5516
8.2000 5.4348 0.5486
8.2200 5.4481 0.5527
8.2400 5.4614 0.5522
8.2600 5.4747 0.5543
8.2800 5.4880 0.5542
8.3000 5.5014 0.5553
8.3200 5.5147 0.5582
8.3400 5.5280 0.5559
8.3600 5.5413 0.5609
8.3800 5.5547 0.5581
8.4000 5.5680 0.5621
8.4200 5.5814 0.5602
8.4400 5.5947 0.5649
8.4600 5.6081 0.5614
8.4800 5.6215 0.5662
8.5000 5.6348 0.5641
8.5200 5.6481 0.5679
8.5400 5.6614 0.5669
8.5600 5.6748 0.5698
8.5800 5.6881 0.5683
8.6000 5.7015 0.5713
8.6200 5.7148 0.5714
8.6400 5.7281 0.5711
8.6600 5.7415 0.5735
8.6800 5.7548 0.5729
8.7000 5.7680 0.5750
8.7200 5.7813 0.5760
8.7400 5.7947 0.5776
8.7600 5.8080 0.5773
8.7800 5.8213 0.5790
8.8000 5.8347 0.5798
8.8200 5.8481 0.5811
8.8400 5.8615 0.5815
8.8600 5.8748 0.5841
8.8800 5.8881 0.5827
8.9000 5.9015 0.5863
8.9200 5.9148 0.5846
8.9400 5.9282 0.5864
8.9600 5.9414 0.5874
8.9800 5.9547 0.5882
9.0000 5.9681 0.5893
9.0200 5.9814 0.5899
9.0400 5.9947 0.5923
9.0600 6.0080 0.5914
9.0800 6.0213 0.5946
9.1000 6.0347 0.5931
9.1200 6.0480 0.5953
9.1400 6.0614 0.5948
9.1600 6.0747 0.5977
9.1800 6.0881 0.5961
9.2000 6.1015 0.5996
9.2200 6.1148 0.5989
9.2400 6.1281 0.6005
9.2600 6.1414 0.6019
9.2800 6.1548 0.6020
9.3000 6.1681 0.6040
9.3200 6.1814 0.6038
9.3400 6.1947 0.6071
9.3600 6.2081 0.6045
9.3800 6.2214 0.6088
9.4000 6.2347 0.6076
9.4200 6.2480 0.6097
9.4400 6.2613 0.6097
9.4600 6.2747 0.6123
9.4800 6.2880 0.6106
9.5000 6.3014 0.6145
9.5200 6.3147 0.6130
9.5400 6.3281 0.6156
9.5600 6.3415 0.6146
9.5800 6.3548 0.6166
9.6000 6.3681 0.6154
9.6200 6.3815 0.6170
9.6400 6.3948 0.6179
9.6600 6.4081 0.6181
9.6800 6.4214 0.6214
9.7000 6.4347 0.6207
9.7200 6.4480 0.6230
9.7400 6.4614 0.6216
9.7600 6.4747 0.6243
9.7800 6.4880 0.6225
9.8000 6.5013 0.6251
9.8200 6.5147 0.6230
9.8400 6.5281 0.6252
9.8600 6.5414 0.6258
9.8800 6.5547 0.6284
9.9000 6.5681 0.6285
9.9200 6.5815 0.6295
9.9400 6.5948 0.6309
9.9600 6.6081 0.6309
9.9800 6.6215 0.6331
10.0000 6.6348 0.6336
10.0200 6.6481 0.6348
10.0400 6.6614 0.6344
10.0600 6.6747 0.6379
10.0800 6.6881 0.6358
10.1000 6.7014 0.6391
10.1200 6.7147 0.6385
10.1400 6.7280 0.6407
10.1600 6.7414 0.6398
10.1800 6.7547 0.6435
10.2000 6.7681 0.6413
10.2200 6.7814 0.6441
10.2400 6.7947 0.6449
10.2600 6.8081 0.6450
10.2800 6.8215 0.6459
10.3000 6.8348 0.6471
10.3200 6.8481 0.6491
10.3400 6.8614 0.6481
10.3600 6.8748 0.6519
10.3800 6.8881 0.6491
10.4000 6.9015 0.6524
10.4200 6.9147 0.6514
10.4400 6.9280 0.6543
10.4600 6.9414 0.6524
10.4800 6.9547 0.6568
10.5000 6.9680 0.6546
10.5200 6.9813 0.6582
10.5400 6.9947 0.6575
10.5600 7.0080 0.6594
10.5800 7.0214 0.6590
10.6000 7.0347 0.6611
10.6200 7.0481 0.6614
10.6400 7.0614 0.6614
10.6600 7.0748 0.6639
10.6800 7.0881 0.6632
10.7000 7.1014 0.6655
10.7200 7.1148 0.6642
10.7400 7.1281 0.6653
10.7600 7.1414 0.6649
10.7800 7.1547 0.6667
10.8000 7.1681 0.6661
10.8200 7.1814 0.6683
10.8400 7.1947 0.6684
10.8600 7.2080 0.6707
10.8800 7.2213 0.6707
10.9000 7.2347 0.6726
10.9200 7.2480 0.6727
10.9400 7.2613 0.6739
10.9600 7.2747 0.6754
10.9800 7.2881 0.6759
11.0000 7.3015 0.6768
11.0200 7.3148 0.6780
11.0400 7.3282 0.6783
11.0600 7.3415 0.6784
11.0800 7.3548 0.6810
11.1000 7.3682 0.6786
11.1200 7.3814 0.6833
11.1400 7.3947 0.6807
11.1600 7.4080 0.6851
11.1800 7.4214 0.6826
11.2000 7.4347 0.6862
11.2200 7.4480 0.6855
11.2400 7.4613 0.6865
11.2600 7.4747 0.6885
11.2800 7.4881 0.6876
11.3000 7.5014 0.6904
11.3200 7.5148 0.6886
11.3400 7.5281 0.6926
11.3600 7.5415 0.6903
11.3800 7.5548 0.6943
11.4000 7.5681 0.6914
11.4200 7.5814 0.6953
11.4400 7.5948 0.6933
11.4600 7.6081 0.6967
11.4800 7.6214 0.6950
11.5000 7.6347 0.6985
11.5200 7.6480 0.6984
11.5400 7.6614 0.6986
11.5600 7.6748 0.7011
11.5800 7.6880 0.7002
11.6000 7.7013 0.7014
11.6200 7.7147 0.6996
11.6400 7.7281 0.7009
11.6600 7.7414 0.7004
11.6800 7.7547 0.7033
11.7000 7.7681 0.7030
11.7200 7.7815 0.7050
11.7400 7.7948 0.7052
11.7600 7.8081 0.7072
11.7800 7.8214 0.7064
11.8000 7.8348 0.7099
11.8200 7.8481 0.7071
11.8400 7.8615 0.7100
11.8600 7.8747 0.7103
11.8800 7.8880 0.7122
11.9000 7.9014 0.7122
11.9200 7.9147 0.7137
11.9400 7.9280 0.7149
11.9600 7.9413 0.7142
11.9800 7.9547 0.7171
12.0000 7.9681 0.7158
12.0200 7.9814 0.7187
12.0400 7.9947 0.7170
12.0600 8.0081 0.7199
12.0800 8.0214 0.7163
12.1000 8.0348 0.7217
12.1200 8.0481 0.7185
12.1400 8.0614 0.7232
12.1600 8.0748 0.7216
12.1800 8.0881 0.7243
12.2000 8.1014 0.7234
12.2200 8.1147 0.7261
12.2400 8.1281 0.7262
12.2600 8.1414 0.7255
12.2800 8.1548 0.7286
12.3000 8.1681 0.7275
12.3200 8.1814 0.7309
12.3400 8.1947 0.7285
12.3600 8.2081 0.7333
12.3800 8.2214 0.7291
12.4000 8.2347 0.7337
12.4200 8.2481 0.7310
12.4400 8.2614 0.7342
12.4600 8.2748 0.7336
12.4800 8.2881 0.7361
12.5000 8.3014 0.7351
12.5200 8.3148 0.7374
12.5400 8.3282 0.7378
12.5600 8.3415 0.7386
12.5800 8.3548 0.7399
12.6000 8.3681 0.7401
12.6200 8.3814 0.7408
12.6400 8.3947 0.7412
12.6600 8.4080 0.7429
12.6800 8.4214 0.7428
12.7000 8.4347 0.7448
12.7200 8.4480 0.7444
12.7400 8.4613 0.7460
12.7600 8.4747 0.7455
12.7800 8.4880 0.7489
12.8000 8.5014 0.7468
12.8200 8.5148 0.7494
12.8400 8.5281 0.7499
12.8600 8.5414 0.7505
12.8800 8.5548 0.7510
12.9000 8.5682 0.7519
12.9200 8.5815 0.7532
12.9400 8.5948 0.7530
12.9600 8.6081 0.7553
12.9800 8.6214 0.7513
13.0000 8.6348 0.7548
13.0200 8.6480 0.7526
13.0400 8.6613 0.7569
13.0600 8.6746 0.7550
13.0800 8.6880 0.7598
13.1000 8.7014 0.7560
13.1200 8.7147 0.7605
13.1400 8.7280 0.7581
13.1600 8.7414 0.7588
13.1800 8.7548 0.7586
13.2000 8.7681 0.7587
13.2200 8.7814 0.7613
13.2400 8.7948 0.7605
13.2600 8.8081 0.7644
13.2800 8.8214 0.7619
13.3000 8.8347 0.7668
13.3200 8.8480 0.7643
13.3400 8.8614 0.7665
13.3600 8.8747 0.7642
13.3800 8.8880 0.7689
13.4000 8.9013 0.7658
13.4200 8.9147 0.7704
13.4400 8.9281 0.7691
13.4600 8.9414 0.7710
13.4800 8.9547 0.7710
13.5000 8.9681 0.7720
13.5200 8.9814 0.7729
13.5400 8.9948 0.7730
13.5600 9.0081 0.7755
13.5800 9.0214 0.7747
13.6000 9.0347 0.7764
13.6200 9.0481 0.7765
13.6400 9.0615 0.7783
13.6600 9.0748 0.7776
13.6800 9.0881 0.7806
13.7000 9.1014 0.7781
13.7200 9.1148 0.7829
13.7400 9.1281 0.7790
13.7600 9.1414 0.7844
13.7800 9.1547 0.7816
13.8000 9.1680 0.7855
13.8200 9.1814 0.7839
13.8400 9.1947 0.7860
13.8600 9.2080 0.7871
13.8800 9.2214 0.7868
13.9000 9.2348 0.7888
13.9200 9.2481 0.7865
13.9400 9.2614 0.7894
13.9600 9.2748 0.7858
13.9800 9.2881 0.7921
14.0000 9.3015 0.7867
14.0200 9.3148 0.7946
14.0400 9.3281 0.7898
14.0600 9.3414 0.7959
14.0800 9.3548 0.7908
14.1000 9.3681 0.7969
14.1200 9.3814 0.7937
14.1400 9.3947 0.7974
14.1600 9.4080 0.7971
14.1800 9.4214 0.7971
14.2000 9.4347 0.7995
14.2200 9.4480 0.7979
14.2400 9.4614 0.8017
14.2600 9.4748 0.7989
14.2800 9.4881 0.8043
14.3000 9.5014 0.7995
14.3200 9.5148 0.8053
14.3400 9.5281 0.8021
14.3600 9.5415 0.8065
14.3800 9.5548 0.8038
14.4000 9.5681 0.8071
14.4200 9.5814 0.8057
14.4400 9.5948 0.8076
14.4600 9.6081 0.8071
14.4800 9.6214 0.8070
14.5000 9.6347 0.8076
14.5200 9.6480 0.8087
14.5400 9.6614 0.8095
14.5600 9.6747 0.8096
14.5800 9.6880 0.8130
14.6000 9.7014 0.8109
14.6200 9.7147 0.8138
14.6400 9.7281 0.8120
14.6600 9.7414 0.8141
14.6800 9.7548 0.8125
14.7000 9.7681 0.8160
14.7200 9.7815 0.8140
14.7400 9.7948 0.8175
14.7600 9.8081 0.8161
14.7800 9.8214 0.8182
14.8000 9.8348 0.8171
14.8200 9.8481 0.8202
14.8400 9.8614 0.8199
14.8600 9.8747 0.8202
14.8800 9.8880 0.8230
14.9000 9.9014 0.8215
14.9200 9.9147 0.8243
14.9400 9.9280 0.8228
14.9600 9.9414 0.8259
14.9800 9.9548 0.8234
15.0000 9.9682 0.8286
15.0200 9.9815 0.8249
15.0400 9.9948 0.8297
15.0600 10.0081 0.8273
15.0800 10.0215 0.8306
15.1000 10.0348 0.8287
15.1200 10.0481 0.8317
15.1400 10.0613 0.8314
15.1600 10.0747 0.8314
15.1800 10.0880 0.8338
15.2000 10.1014 0.8328
15.2200 10.1147 0.8354
15.2400 10.1280 0.8342
15.2600 10.1414 0.8370
15.2800 10.1547 0.8352
15.3000 10.1681 0.8391
15.3200 10.1814 0.8353
15.3400 10.1948 0.8376
15.3600 10.2081 0.8350
15.3800 10.2214 0.8383
15.4000 10.2348 0.8378
15.4200 10.2481 0.8397
15.4400 10.2615 0.8385
15.4600 10.2748 0.8369
15.4800 10.2880 0.8390
15.5000 10.3014 0.8376
15.5200 10.3147 0.8396
15.5400 10.3280 0.8380
15.5600 10.3413 0.8415
15.5800 10.3547 0.8398
15.6000 10.3680 0.8431
15.6200 10.3814 0.8403
15.6400 10.3947 0.8424
15.6600 10.4081 0.8372
15.6800 10.4214 0.8329
15.7000 10.4348 0.8246
15.7200 10.4481 0.8293
15.7400 10.4614 0.8281
15.7600 10.4747 0.8324
15.7800 10.4881 0.8327
15.8000 10.5015 0.8349
15.8200 10.5148 0.8359
15.8400 10.5281 0.8377
15.8600 10.5414 0.8382
15.8800 10.5548 0.8384
15.9000 10.5681 0.8410
15.9200 10.5814 0.8406
15.9400 10.5947 0.8431
15.9600 10.6080 0.8389
15.9800 10.6213 0.8428
16.0000 10.6347 0.8396
16.0200 10.6480 0.8458
16.0400 10.6614 0.8424
16.0600 10.6748 0.8475
16.0800 10.6882 0.8457
16.1000 10.7015 0.8486
16.1200 10.7148 0.8487
16.1400 10.7281 0.8503
16.1600 10.7415 0.8515
16.1800 10.7548 0.8510
16.2000 10.7681 0.8536
16.2200 10.7814 0.8529
16.2400 10.7947 0.8551
16.2600 10.8081 0.8532
16.2800 10.8214 0.8574
16.3000 10.8347 0.8557
16.3200 10.8480 0.8589
16.3400 10.8614 0.8578
16.3600 10.8747 0.8593
16.3800 10.8880 0.8603
16.4000 10.9014 0.8609
16.4200 10.9148 0.8614
16.4400 10.9281 0.8626
16.4600 10.9415 0.8636
16.4800 10.9548 0.8634
16.5000 10.9681 0.8648
16.5200 10.9815 0.8658
16.5400 10.9948 0.8662
16.5600 11.0081 0.8665
16.5800 11.0214 0.8682
16.6000 11.0347 0.8671
16.6200 11.0481 0.8696
16.6400 11.0614 0.8691
16.6600 11.0747 0.8712
16.6800 11.0880 0.8702
16.7000 11.1014 0.8733
16.7200 11.1147 0.8702
16.7400 11.1281 0.8731
16.7600 11.1414 0.8720
16.7800 11.1548 0.8742
16.8000 11.1681 0.8739
16.8200 11.1815 0.8759
16.8400 11.1948 0.8757
16.8600 11.2081 0.8765
16.8800 11.2215 0.8790
16.9000 11.2348 0.8773
16.9200 11.2481 0.8808
16.9400 11.2614 0.8792
16.9600 11.2747 0.8821
16.9800 11.2881 0.8800
17.0000 11.3014 0.8838
17.0200 11.3147 0.8814
17.0400 11.3280 0.8848
17.0600 11.3414 0.8841
17.0800 11.3547 0.8849
17.1000 11.3681 0.8863
17.1200 11.3814 0.8865
17.1400 11.3948 0.8882
17.1600 11.4082 0.8869
17.1800 11.4215 0.8904
17.2000 11.4348 0.8876
17.2200 11.4481 0.8908
17.2400 11.4615 0.8894
17.2600 11.4748 0.8920
17.2800 11.4881 0.8900
17.3000 11.5014 0.8934
17.3200 11.5147 0.8918
17.3400 11.5281 0.8942
17.3600 11.5414 0.8944
17.3800 11.5547 0.8952
17.4000 11.5680 0.8957
17.4200 11.5814 0.8962
17.4400 11.5947 0.8973
17.4600 11.6080 0.8970
17.4800 11.6214 0.8994
17.5000 11.6348 0.8985
17.5200 11.6481 0.8991
17.5400 11.6614 0.8994
17.5600 11.6747 0.9007
17.5800 11.6880 0.9001
17.6000 11.7014 0.9034
17.6200 11.7148 0.9011
17.6400 11.7281 0.9054
17.6600 11.7414 0.9035
17.6800 11.7547 0.9069
17.7000 11.7681 0.9044
17.7200 11.7814 0.9082
17.7400 11.7947 0.9064
17.7600 11.8080 0.9087
17.7800 11.8214 0.9087
17.8000 11.8347 0.9089
17.8200 11.8480 0.9097
17.8400 11.8614 0.9103
17.8600 11.8747 0.9118
17.8800 11.8881 0.9095
17.9000 11.9014 0.9140
17.9200 11.9147 0.9105
17.9400 11.9281 0.9157
17.9600 11.9414 0.9118
17.9800 11.9548 0.9173
18.0000 11.9681 0.9142
18.0200 11.9814 0.9182
18.0400 11.9947 0.9171
18.0600 12.0081 0.9182
18.0800 12.0214 0.9199
18.1000 12.0347 0.9195
18.1200 12.0480 0.9212
18.1400 12.0613 0.9210
18.1600 12.0747 0.9227
18.1800 12.0880 0.9219
18.2000 12.1014 0.9243
18.2200 12.1148 0.9200
18.2400 12.1282 0.9215
18.2600 12.1415 0.9207
18.2800 12.1548 0.9238
18.3000 12.1682 0.9227
18.3200 12.1815 0.9256
18.3400 12.1948 0.9246
18.3600 12.2081 0.9258
18.3800 12.2214 0.9270
18.4000 12.2347 0.9288
18.4200 12.2481 0.9277
18.4400 12.2614 0.9308
18.4600 12.2747 0.9297
18.4800 12.2880 0.9312
18.5000 12.3014 0.9319
18.5200 12.3147 0.9326
18.5400 12.3281 0.9336
18.5600 12.3414 0.9340
18.5800 12.3548 0.9355
18.6000 12.3682 0.9343
18.6200 12.3815 0.9379
18.6400 12.3948 0.9357
18.6600 12.4081 0.9382
18.6800 12.4214 0.9369
18.7000 12.4348 0.9397
18.7200 12.4481 0.9381
18.7400 12.4614 0.9414
18.7600 12.4747 0.9405
18.7800 12.4881 0.9403
18.8000 12.5014 0.9425
18.8200 12.5147 0.9412
18.8400 12.5280 0.9442
18.8600 12.5414 0.9425
18.8800 12.5547 0.9460
18.9000 12.5680 0.9427
18.9200 12.5814 0.9486
18.9400 12.5947 0.9443
18.9600 12.6081 0.9488
18.9800 12.6215 0.9463
19.0000 12.6348 0.9498
19.0200 12.6481 0.9480
19.0400 12.6615 0.9505
19.0600 12.6748 0.9500
19.0800 12.6881 0.9505
19.1000 12.7014 0.9521
19.1200 12.7147 0.9516
19.1400 12.7281 0.9530
19.1600 12.7414 0.9531
19.1800 12.7547 0.9557
19.2000 12.7680 0.9529
19.2200 12.7814 0.9579
19.2400 12.7947 0.9542
19.2600 12.8081 0.9586
19.2800 12.8214 0.9556
19.3000 12.8347 0.9600
19.3200 12.8481 0.9554
19.3400 12.8615 0.9597
19.3600 12.8748 0.9582
19.3800 12.8881 0.9611
19.4000 12.9014 0.9606
19.4200 12.9148 0.9625
19.4400 12.9281 0.9616
19.4600 12.9414 0.9636
19.4800 12.9547 0.9646
19.5000 12.9681 0.9636
19.5200 12.9814 0.9668
19.5400 12.9947 0.9641
19.5600 13.0080 0.9686
19.5800 13.0214 0.9649
19.6000 13.0347 0.9708
19.6200 13.0481 0.9660
19.6400 13.0614 0.9714
19.6600 13.0747 0.9684
19.6800 13.0881 0.9711
19.7000 13.1015 0.9706
19.7200 13.1148 0.9729
19.7400 13.1281 0.9713
19.7600 13.1415 0.9739
19.7800 13.1548 0.9738
19.8000 13.1682 0.9739
19.8200 13.1815 0.9762
19.8400 13.1948 0.9753
19.8600 13.2081 0.9785
19.8800 13.2214 0.9748
19.9000 13.2347 0.9810
19.9200 13.2480 0.9759
19.9400 13.2613 0.9819
19.9600 13.2747 0.9778
19.9800 13.2880 0.9824
20.0000 13.3013 0.9797
20.0200 13.3147 0.9838
20.0400 13.3281 0.9808
20.0600 13.3415 0.9839
20.0800 13.3548 0.9837
20.1000 13.3681 0.9849
20.1200 13.3815 0.9853
20.1400 13.3948 0.9857
20.1600 13.4081 0.9870
20.1800 13.4214 0.9861
20.2000 13.4347 0.9893
20.2200 13.4481 0.9854
20.2400 13.4614 0.9901
20.2600 13.4747 0.9878
20.2800 13.4880 0.9917
20.3000 13.5013 0.9894
20.3200 13.5147 0.9925
20.3400 13.5280 0.9905
20.3600 13.5413 0.9933
20.3800 13.5547 0.9911
20.4000 13.5681 0.9906
20.4200 13.5815 0.9907
20.4400 13.5948 0.9923
20.4600 13.6081 0.9927
20.4800 13.6215 0.9938
20.5000 13.6348 0.9955
20.5200 13.6481 0.9944
20.5400 13.6614 0.9977
20.5600 13.6747 0.9962
20.5800 13.6880 0.9995
20.6000 13.7014 0.9972
20.6200 13.7147 1.0014
20.6400 13.7280 0.9982
20.6600 13.7414 1.0026
20.6800 13.7548 0.9997
20.7000 13.7681 1.0029
20.7200 13.7814 1.0018
20.7400 13.7948 1.0043
20.7600 13.8081 1.0035
20.7800 13.8215 1.0035
20.8000 13.8347 1.0068
20.8200 13.8481 1.0036
20.8400 13.8614 1.0099
20.8600 13.8748 1.0042
20.8800 13.8881 1.0111
20.9000 13.9014 1.0055
20.9200 13.9148 1.0128
20.9400 13.9281 1.0070
20.9600 13.9414 1.0130
20.9800 13.9547 1.0099
21.0000 13.9680 1.0133
21.0200 13.9814 1.0114
21.0400 13.9947 1.0147
21.0600 14.0080 1.0134
21.0800 14.0214 1.0148
21.1000 14.0347 1.0163
21.1200 14.0481 1.0147
21.1400 14.0614 1.0181
21.1600 14.0748 1.0158
21.1800 14.0881 1.0198
21.2000 14.1014 1.0171
21.2200 14.1148 1.0216
21.2400 14.1281 1.0183
21.2600 14.1414 1.0224
21.2800 14.1547 1.0204
21.3000 14.1681 1.0236
21.3200 14.1814 1.0212
21.3400 14.1947 1.0254
21.3600 14.2080 1.0226
21.3800 14.2213 1.0250
21.4000 14.2347 1.0254
21.4200 14.2480 1.0249
21.4400 14.2614 1.0272
21.4600 14.2747 1.0262
21.4800 14.2881 1.0283
21.5000 14.3014 1.0240
21.5200 14.3148 1.0302
21.5400 14.3281 1.0255
21.5600 14.3414 1.0315
21.5800 14.3548 1.0279
21.6000 14.3681 1.0326
21.6200 14.3814 1.0292
21.6400 14.3947 1.0340
21.6600 14.4081 1.0312
21.6800 14.4214 1.0340
21.7000 14.4347 1.0340
21.7200 14.4480 1.0353
21.7400 14.4614 1.0352
21.7600 14.4747 1.0361
21.7800 14.4880 1.0373
21.8000 14.5013 1.0359
21.8200 14.5147 1.0406
21.8400 14.5281 1.0360
21.8600 14.5414 1.0416
21.8800 14.5548 1.0377
21.9000 14.5681 1.0434
21.9200 14.5815 1.0387
21.9400 14.5948 1.0442
21.9600 14.6082 1.0404
21.9800 14.6215 1.0443
22.0000 14.6348 1.0432
22.0200 14.6481 1.0456
22.0400 14.6614 1.0439
22.0600 14.6747 1.0466
22.0800 14.6880 1.0466
22.1000 14.7013 1.0461
22.1200 14.7147 1.0491
22.1400 14.7280 1.0472
22.1600 14.7414 1.0503
22.1800 14.7547 1.0489
22.2000 14.7681 1.0515
22.2200 14.7815 1.0493
22.2400 14.7948 1.0530
22.2600 14.8081 1.0517
22.2800 14.8214 1.0531
22.3000 14.8348 1.0535
22.3200 14.8482 1.0549
22.3400 14.8614 1.0539
22.3600 14.8747 1.0571
22.3800 14.8880 1.0555
22.4000 14.9014 1.0570
22.4200 14.9147 1.0579
22.4400 14.9280 1.0578
22.4600 14.9413 1.0586
22.4800 14.9547 1.0554
22.5000 14.9680 1.0556
22.5200 14.9814 1.0531
22.5400 14.9947 1.0581
22.5600 15.0081 1.0558
22.5800 15.0215 1.0603
22.6000 15.0348 1.0584
22.6200 15.0481 1.0623
22.6400 15.0614 1.0599
22.6600 15.0748 1.0637
22.6800 15.0881 1.0624
22.7000 15.1014 1.0649
22.7200 15.1147 1.0651
22.7400 15.1280 1.0650
22.7600 15.1414 1.0666
22.7800 15.1547 1.0659
22.8000 15.1680 1.0694
22.8200 15.1813 1.0658
22.8400 15.1947 1.0714
22.8600 15.2081 1.0674
22.8800 15.2214 1.0722
22.9000 15.2347 1.0696
22.9200 15.2481 1.0737
22.9400 15.2614 1.0699
22.9600 15.2748 1.0747
22.9800 15.2881 1.0716
23.0000 15.3014 1.0739
23.0200 15.3148 1.0738
23.0400 15.3281 1.0753
23.0600 15.3414 1.0754
23.0800 15.3548 1.0768
23.1000 15.3681 1.0779
23.1200 15.3815 1.0766
23.1400 15.3948 1.0799
23.1600 15.4080 1.0784
23.1800 15.4213 1.0808
23.2000 15.4346 1.0801
23.2200 15.4480 1.0817
23.2400 15.4613 1.0803
23.2600 15.4747 1.0845
23.2800 15.4881 1.0822
23.3000 15.5015 1.0845
23.3200 15.5148 1.0835
23.3400 15.5281 1.0859
23.3600 15.5415 1.0846
23.3800 15.5548 1.0868
23.4000 15.5682 1.0867
23.4200 15.5815 1.0870
23.4400 15.5947 1.0896
23.4600 15.6081 1.0883
23.4800 15.6214 1.0904
23.5000 15.6347 1.0897
23.5200 15.6480 1.0926
23.5400 15.6613 1.0894
23.5600 15.6747 1.0946
23.5800 15.6880 1.0912
23.6000 15.7014 1.0949
23.6200 15.7147 1.0922
23.6400 15.7281 1.0962
23.6600 15.7415 1.0922
23.6800 15.7548 1.0964
23.7000 15.7681 1.0957
23.7200 15.7815 1.0961
23.7400 15.7948 1.0985
23.7600 15.8082 1.0969
23.7800 15.8214 1.0995
23.8000 15.8347 1.0983
23.8200 15.8481 1.1017
23.8400 15.8614 1.0983
23.8600 15.8747 1.1030
23.8800 15.8880 1.1006
23.9000 15.9013 1.1039
23.9200 15.9147 1.1022
23.9400 15.9280 1.1056
23.9600 15.9414 1.1026
23.9800 15.9547 1.1063
24.0000 15.9681 1.1055
24.0200 15.9815 1.1062
24.0400 15.9948 1.1074
24.0600 16.0081 1.1079
24.0800 16.0214 1.1092
24.1000 16.0348 1.1089
24.1200 16.0481 1.1119
24.1400 16.0615 1.1091
24.1600 16.0748 1.1133
24.1800 16.0881 1.1114
24.2000 16.1014 1.1134
24.2200 16.1147 1.1129
24.2400 16.1280 1.1155
24.2600 16.1413 1.1142
24.2800 16.1547 1.1163
24.3000 16.1680 1.1162
24.3200 16.1814 1.1168
24.3400 16.1947 1.1177
24.3600 16.2081 1.1190
24.3800 16.2215 1.1186
24.4000 16.2348 1.1188
24.4200 16.2481 1.1211
24.4400 16.2614 1.1194
24.4600 16.2748 1.1228
24.4800 16.2881 1.1210
24.5000 16.3014 1.1240
24.5200 16.3147 1.1225
24.5400 16.3281 1.1259
24.5600 16.3414 1.1228
24.5800 16.3547 1.1271
24.6000 16.3680 1.1252
24.6200 16.3814 1.1282
24.6400 16.3947 1.1260
24.6600 16.4081 1.1297
24.6800 16.4214 1.1275
24.7000 16.4347 1.1301
24.7200 16.4481 1.1289
24.7400 16.4615 1.1268
24.7600 16.4748 1.1282
24.7800 16.4881 1.1281
24.8000 16.5014 1.1300
24.8200 16.5147 1.1301
24.8400 16.5281 1.1330
24.8600 16.5415 1.1308
24.8800 16.5548 1.1339
24.9000 16.5681 1.1335
24.9200 16.5814 1.1353
24.9400 16.5948 1.1345
24.9600 16.6081 1.1374
24.9800 16.6214 1.1356
25.0000 16.6347 1.1373
25.0200 16.6481 1.1365
25.0400 16.6614 1.1366
25.0600 16.6747 1.1384
25.0800 16.6881 1.1380
25.1000 16.7014 1.1401
25.1200 16.7148 1.1391
25.1400 16.7281 1.1427
25.1600 16.7414 1.1402
25.1800 16.7548 1.1436
25.2000 16.7681 1.1422
25.2200 16.7814 1.1442
25.2400 16.7947 1.1437
25.2600 16.8080 1.1468
25.2800 16.8214 1.1452
25.3000 16.8347 1.1471
25.3200 16.8480 1.1478
25.3400 16.8613 1.1473
25.3600 16.8747 1.1498
25.3800 16.8880 1.1488
25.4000 16.9013 1.1506
25.4200 16.9147 1.1494
25.4400 16.9280 1.1532
25.4600 16.9414 1.1509
25.4800 16.9548 1.1541
25.5000 16.9681 1.1523
25.5200 16.9815 1.1554
25.5400 16.9948 1.1530
25.5600 17.0081 1.1579
25.5800 17.0214 1.1542
25.6000 17.0347 1.1587
25.6200 17.0480 1.1560
25.6400 17.0614 1.1580
25.6600 17.0747 1.1578
25.6800 17.0880 1.1601
25.7000 17.1013 1.1600
25.7200 17.1147 1.1601
25.7400 17.1281 1.1627
25.7600 17.1414 1.1604
25.7800 17.1547 1.1640
25.8000 17.1681 1.1628
25.8200 17.1815 1.1653
25.8400 17.1948 1.1624
25.8600 17.2081 1.1682
25.8800 17.2214 1.1637
25.9000 17.2348 1.1684
25.9200 17.2481 1.1668
25.9400 17.2614 1.1689
25.9600 17.2747 1.1683
25.9800 17.2880 1.1704
26.0000 17.3014 1.1702
26.0200 17.3147 1.1696
26.0400 17.3280 1.1731
26.0600 17.3414 1.1705
26.0800 17.3547 1.1741
26.1000 17.3681 1.1726
26.1200 17.3814 1.1752
26.1400 17.3947 1.1729
26.1600 17.4081 1.1772
26.1800 17.4214 1.1748
26.2000 17.4348 1.1777
26.2200 17.4481 1.1769
26.2400 17.4614 1.1788
26.2600 17.4748 1.1781
26.2800 17.4881 1.1804
26.3000 17.5015 1.1798
26.3200 17.5148 1.1810
26.3400 17.5281 1.1827
26.3600 17.5414 1.1813
26.3800 17.5548 1.1831
26.4000 17.5681 1.1836
26.4200 17.5814 1.1849
26.4400 17.5947 1.1839
26.4600 17.6080 1.1869
26.4800 17.6214 1.1847
26.5000 17.6347 1.1880
26.5200 17.6481 1.1862
26.5400 17.6614 1.1897
26.5600 17.6748 1.1864
26.5800 17.6881 1.1918
26.6000 17.7014 1.1889
26.6200 17.7147 1.1920
26.6400 17.7281 1.1909
26.6600 17.7414 1.1929
26.6800 17.7547 1.1918
26.7000 17.7680 1.1939
26.7200 17.7814 1.1944
26.7400 17.7948 1.1936
26.7600 17.8081 1.1971
26.7800 17.8214 1.1947
26.8000 17.8347 1.1980
26.8200 17.8481 1.1964
26.8400 17.8614 1.2002
26.8600 17.8747 1.1965
26.8800 17.8880 1.2016
26.9000 17.9014 1.1953
26.9200 17.9148 1.1949
26.9400 17.9281 1.1941
26.9600 17.9414 1.1964
26.9800 17.9548 1.1971
27.0000 17.9681 1.1985
27.0200 17.9815 1.2000
27.0400 17.9948 1.1993
27.0600 18.0081 1.2035
27.0800 18.0214 1.2020
27.1000 18.0347 1.2040
27.1200 18.0480 1.2036
27.1400 18.0614 1.2063
27.1600 18.0747 1.2049
27.1800 18.0880 1.2082
27.2000 18.1013 1.2066
27.2200 18.1146 1.2095
27.2400 18.1280 1.2087
27.2600 18.1414 1.2114
27.2800 18.1548 1.2096
27.3000 18.1681 1.2130
27.3200 18.1814 1.2115
27.3400 18.1948 1.2133
27.3600 18.2081 1.2131
27.3800 18.2215 1.2147
27.4000 18.2348 1.2147
27.4200 18.2481 1.2163
27.4400 18.2614 1.2173
27.4600 18.2748 1.2164
27.4800 18.2881 1.2189
27.5000 18.3013 1.2168
27.5200 18.3146 1.2203
27.5400 18.3280 1.2175
27.5600 18.3414 1.2223
27.5800 18.3547 1.2184
27.6000 18.3680 1.2239
27.6200 18.3814 1.2213
27.6400 18.3948 1.2236
27.6600 18.4081 1.2236
27.6800 18.4214 1.2254
27.7000 18.4348 1.2239
27.7200 18.4481 1.2265
27.7400 18.4615 1.2263
27.7600 18.4748 1.2267
27.7800 18.4881 1.2284
27.8000 18.5014 1.2274
27.8200 18.5147 1.2286
27.8400 18.5281 1.2290
27.8600 18.5414 1.2310
27.8800 18.5547 1.2295
27.9000 18.5680 1.2325
27.9200 18.5814 1.2308
27.9400 18.5948 1.2334
27.9600 18.6081 1.2335
27.9800 18.6214 1.2347
28.0000 18.6348 1.2336
28.0200 18.6481 1.2360
28.0400 18.6614 1.2360
28.0600 18.6747 1.2369
28.0800 18.6881 1.2378
28.1000 18.7014 1.2383
28.1200 18.7148 1.2390
28.1400 18.7281 1.2393
28.1600 18.7414 1.2420
28.1800 18.7548 1.2393
28.2000 18.7681 1.2432
28.2200 18.7814 1.2417
28.2400 18.7947 1.2444
28.2600 18.8080 1.2428
28.2800 18.8214 1.2457
28.3000 18.8347 1.2441
28.3200 18.8480 1.2478
28.3400 18.8614 1.2463
28.3600 18.8748 1.2478
28.3800 18.8881 1.2491
28.4000 18.9014 1.2493
28.4200 18.9148 1.2498
28.4400 18.9281 1.2502
28.4600 18.9415 1.2534
28.4800 18.9548 1.2495
28.5000 18.9681 1.2554
28.5200 18.9814 1.2522
28.5400 18.9948 1.2563
28.5600 19.0081 1.2523
28.5800 19.0214 1.2585
28.6000 19.0347 1.2547
28.6200 19.0480 1.2584
28.6400 19.0614 1.2580
28.6600 19.0747 1.2590
28.6800 19.0880 1.2597
28.7000 19.1014 1.2600
28.7200 19.1148 1.2616
28.7400 19.1281 1.2600
28.7600 19.1414 1.2645
28.7800 19.1548 1.2606
28.8000 19.1681 1.2658
28.8200 19.1815 1.2626
28.8400 19.1948 1.2659
28.8600 19.2081 1.2611
28.8800 19.2214 1.2652
28.9000 19.2347 1.2622
28.9200 19.2481 1.2658
28.9400 19.2614 1.2667
28.9600 19.2747 1.2668
28.9800 19.2880 1.2679
29.0000 19.3014 1.2689
29.0200 19.3147 1.2702
29.0400 19.3280 1.2700
29.0600 19.3414 1.2727
29.0800 19.3548 1.2706
29.1000 19.3681 1.2739
29.1200 19.3814 1.2725
29.1400 19.3948 1.2758
29.1600 19.4081 1.2735
29.1800 19.4215 1.2776
29.2000 19.4348 1.2743
29.2200 19.4481 1.2789
29.2400 19.4614 1.2772
29.2600 19.4748 1.2790
29.2800 19.4881 1.2784
29.3000 19.5014 1.2803
29.3200 19.5147 1.2801
29.3400 19.5280 1.2814
29.3600 19.5414 1.2826
29.3800 19.5547 1.2814
29.4000 19.5681 1.2828
29.4200 19.5814 1.2817
29.4400 19.5948 1.2849
29.4600 19.6082 1.2824
29.4800 19.6215 1.2876
29.5000 19.6348 1.2841
29.5200 19.6481 1.2888
29.5400 19.6615 1.2860
29.5600 19.6748 1.2892
29.5800 19.6881 1.2889
29.6000 19.7014 1.2908
29.6200 19.7147 1.2910
29.6400 19.7280 1.2904
29.6600 19.7414 1.2933
29.6800 19.7547 1.2921
29.7000 19.7680 1.2948
29.7200 19.7814 1.2934
29.7400 19.7947 1.2962
29.7600 19.8080 1.2940
29.7800 19.8214 1.2989
29.8000 19.8348 1.2953
29.8200 19.8481 1.2990
29.8400 19.8614 1.2980
29.8600 19.8748 1.2996
29.8800 19.8881 1.2998
29.9000 19.9015 1.3013
29.9200 19.9148 1.3016
29.9400 19.9281 1.3021
29.9600 19.9414 1.3041
29.9800 19.9547 1.3035
30.0000 19.9680 1.3049
30.0200 19.9813 1.3058
30.0400 19.9947 1.3069
30.0600 20.0080 1.3062
30.0800 20.0214 1.3094
30.1000 20.0347 1.3069
30.1200 20.0481 1.3106
30.1400 20.0614 1.3097
30.1600 20.0748 1.3120
30.1800 20.0881 1.3096
30.2000 20.1014 1.3139
30.2200 20.1147 1.3123
30.2400 20.1281 1.3147
30.2600 20.1415 1.3143
30.2800 20.1548 1.3141
30.3000 20.1681 1.3125
30.3200 20.1814 1.3152
30.3400 20.1948 1.3151
30.3600 20.2081 1.3154
30.3800 20.2214 1.3186
30.4000 20.2347 1.3163
30.4200 20.2480 1.3203
30.4400 20.2613 1.3184
30.4600 20.2747 1.3227
30.4800 20.2880 1.3189
30.5000 20.3014 1.3250
30.5200 20.3148 1.3214
30.5400 20.3281 1.3249
30.5600 20.3415 1.3242
30.5800 20.3548 1.3267
30.6000 20.3681 1.3251
30.6200 20.3815 1.3282
30.6400 20.3948 1.3276
30.6600 20.4081 1.3277
30.6800 20.4214 1.3312
30.7000 20.4347 1.3285
30.7200 20.4481 1.3324
30.7400 20.4614 1.3300
30.7600 20.4747 1.3347
30.7800 20.4880 1.3307
30.8000 20.5014 1.3362
30.8200 20.5147 1.3321
30.8400 20.5280 1.3367
30.8600 20.5414 1.3354
30.8800 20.5548 1.3374
30.9000 20.5681 1.3362
30.9200 20.5815 1.3397
30.9400 20.5948 1.3387
30.9600 20.6081 1.3391
30.9800 20.6215 1.3414
31.0000 20.6348 1.3411
31.0200 20.6481 1.3421
31.0400 20.6614 1.3429
31.0600 20.6747 1.3448
31.0800 20.6881 1.3424
31.1000 20.7014 1.3471
31.1200 20.7147 1.3438
31.1400 20.7280 1.3481
31.1600 20.7414 1.3459
31.1800 20.7547 1.3495
31.2000 20.7680 1.3471
31.2200 20.7814 1.3512
31.2400 20.7948 1.3496
31.2600 20.8081 1.3510
31.2800 20.8215 1.3499
31.3000 20.8348 1.3507
31.3200 20.8481 1.3510
31.3400 20.8615 1.3526
31.3600 20.8748 1.3534
31.3800 20.8881 1.3528
31.4000 20.9014 1.3569
31.4200 20.9147 1.3539
31.4400 20.9281 1.3584
31.4600 20.9414 1.3558
31.4800 20.9547 1.3601
31.5000 20.9680 1.3542
31.5200 20.9813 1.3554
31.5400 20.9947 1.3521
31.5600 21.0080 1.3551
31.5800 21.0214 1.3563
31.6000 21.0348 1.3569
31.6200 21.0482 1.3588
31.6400 21.0615 1.3598
31.6600 21.0748 1.3621
31.6800 21.0881 1.3601
31.7000 21.1015 1.3647
31.7200 21.1148 1.3624
31.7400 21.1281 1.3662
31.7600 21.1414 1.3646
31.7800 21.1547 1.3687
31.8000 21.1681 1.3660
31.8200 21.1814 1.3697
31.8400 21.1947 1.3690
31.8600 21.2081 1.3700
31.8800 21.2214 1.3711
31.9000 21.2347 1.3717
31.9200 21.2480 1.3724
31.9400 21.2614 1.3739
31.9600 21.2747 1.3749
31.9800 21.2881 1.3741
32.0000 21.3014 1.3771
32.0200 21.3147 1.3764
32.0400 21.3280 1.3788
32.0600 21.3414 1.3773
32.0800 21.3548 1.3806
32.1000 21.3681 1.3786
32.1200 21.3814 1.3822
32.1400 21.3947 1.3816
32.1600 21.4081 1.3829
32.1800 21.4214 1.3835
32.2000 21.4347 1.3844
32.2200 21.4480 1.3843
32.2400 21.4614 1.3863
32.2600 21.4747 1.3863
32.2800 21.4880 1.3875
32.3000 21.5014 1.3890
32.3200 21.5147 1.3888
32.3400 21.5281 1.3903
32.3600 21.5414 1.3899
32.3800 21.5547 1.3928
32.4000 21.5681 1.3897
32.4200 21.5814 1.3948
32.4400 21.5948 1.3917
32.4600 21.6081 1.3945
32.4800 21.6214 1.3940
32.5000 21.6347 1.3969
32.5200 21.6481 1.3954
32.5400 21.6614 1.3978
32.5600 21.6747 1.3982
32.5800 21.6880 1.3984
32.6000 21.7013 1.4004
32.6200 21.7147 1.3999
32.6400 21.7280 1.4023
32.6600 21.7414 1.4006
32.6800 21.7547 1.4049
32.7000 21.7681 1.4011
32.7200 21.7815 1.4067
32.7400 21.7948 1.4040
32.7600 21.8082 1.4071
32.7800 21.8215 1.4063
32.8000 21.8349 1.4082
32.8200 21.8481 1.4089
32.8400 21.8614 1.4099
32.8600 21.8747 1.4108
32.8800 21.8880 1.4106
32.9000 21.9014 1.4129
32.9200 21.9147 1.4124
32.9400 21.9280 1.4149
32.9600 21.9414 1.4134
32.9800 21.9548 1.4169
33.0000 21.9681 1.4149
33.0200 21.9814 1.4179
33.0400 21.9948 1.4171
33.0600 22.0082 1.4197
33.0800 22.0215 1.4178
33.1000 22.0348 1.4218
33.1200 22.0481 1.4199
33.1400 22.0614 1.4236
33.1600 22.0748 1.4217
33.1800 22.0881 1.4241
33.2000 22.1014 1.4237
33.2200 22.1147 1.4259
33.2400 22.1281 1.4253
33.2600 22.1414 1.4266
33.2800 22.1547 1.4279
33.3000 22.1680 1.4268
33.3200 22.1813 1.4301
33.3400 22.1947 1.4280
33.3600 22.2080 1.4326
33.3800 22.2214 1.4283
33.4000 22.2347 1.4346
33.4200 22.2481 1.4262
33.4400 22.2614 1.4304
33.4600 22.2748 1.4275
33.4800 22.2881 1.4319
33.5000 22.3015 1.4302
33.5200 22.3148 1.4340
33.5400 22.3281 1.4336
33.5600 22.3414 1.4349
33.5800 22.3547 1.4368
33.6000 22.3681 1.4360
33.6200 22.3814 1.4385
33.6400 22.3947 1.4381
33.6600 22.4080 1.4412
33.6800 22.4214 1.4388
33.7000 22.4347 1.4439
33.7200 22.4480 1.4402
33.7400 22.4614 1.4446
33.7600 22.4747 1.4439
33.7800 22.4881 1.4458
33.8000 22.5015 1.4449
33.8200 22.5148 1.4473
33.8400 22.5281 1.4474
33.8600 22.5414 1.4471
33.8800 22.5548 1.4481
33.9000 22.5681 1.4487
33.9200 22.5814 1.4498
33.9400 22.5947 1.4511
33.9600 22.6081 1.4528
33.9800 22.6214 1.4515
34.0000 22.6347 1.4557
34.0200 22.6480 1.4532
34.0400 22.6614 1.4568
34.0600 22.6747 1.4552
34.0800 22.6881 1.4584
34.1000 22.7014 1.4568
34.1200 22.7147 1.4606
34.1400 22.7281 1.4592
34.1600 22.7415 1.4620
34.1800 22.7548 1.4612
34.2000 22.7681 1.4638
34.2200 22.7814 1.4631
34.2400 22.7948 1.4653
34.2600 22.8081 1.4664
34.2800 22.8215 1.4656
34.3000 22.8348 1.4696
34.3200 22.8481 1.4664
34.3400 22.8614 1.4712
34.3600 22.8747 1.4690
34.3800 22.8880 1.4732
34.4000 22.9014 1.4695
34.4200 22.9147 1.4749
34.4400 22.9280 1.4720
34.4600 22.9413 1.4756
34.4800 22.9547 1.4753
34.5000 22.9681 1.4770
34.5200 22.9815 1.4762
34.5400 22.9948 1.4795
34.5600 23.0081 1.4785
34.5800 23.0215 1.4801
34.6000 23.0348 1.4814
34.6200 23.0481 1.4814
34.6400 23.0614 1.4832
34.6600 23.0747 1.4842
34.6800 23.0881 1.4853
34.7000 23.1014 1.4852
34.7200 23.1147 1.4872
34.7400 23.1280 1.4873
34.7600 23.1413 1.4887
34.7800 23.1547 1.4894
34.8000 23.1680 1.4912
34.8200 23.1814 1.4905
34.8400 23.1947 1.4934
34.8600 23.2081 1.4922
34.8800 23.2215 1.4948
34.9000 23.2348 1.4942
34.9200 23.2481 1.4966
34.9400 23.2614 1.4959
34.9600 23.2748 1.4984
34.9800 23.2881 1.4990
35.0000 23.3014 1.4992
35.0200 23.3147 1.5021
35.0400 23.3280 1.5007
35.0600 23.3414 1.5033
35.0800 23.3547 1.5026
35.1000 23.3680 1.5064
35.1200 23.3814 1.5030
35.1400 23.3947 1.5091
35.1600 23.4081 1.5050
35.1800 23.4214 1.5067
35.2000 23.4347 1.4993
35.2200 23.4481 1.5018
35.2400 23.4615 1.4999
35.2600 23.4748 1.5051
35.2800 23.4881 1.5051
35.3000 23.5014 1.5062
35.3200 23.5148 1.5084
35.3400 23.5281 1.5092
35.3600 23.5414 1.5105
35.3800 23.5548 1.5117
35.4000 23.5681 1.5144
35.4200 23.5815 1.5127
35.4400 23.5948 1.5174
35.4600 23.6081 1.5148
35.4800 23.6214 1.5191
35.5000 23.6347 1.5173
35.5200 23.6481 1.5208
35.5400 23.6614 1.5188
35.5600 23.6747 1.5231
35.5800 23.6881 1.5217
35.6000 23.7014 1.5233
35.6200 23.7148 1.5247
35.6400 23.7281 1.5260
35.6600 23.7414 1.5262
35.6800 23.7548 1.5280
35.7000 23.7681 1.5290
35.7200 23.7814 1.5289
35.7400 23.7947 1.5321
35.7600 23.8081 1.5310
35.7800 23.8214 1.5332
35.8000 23.8347 1.5331
35.8200 23.8480 1.5348
35.8400 23.8613 1.5316
35.8600 23.8747 1.5358
35.8800 23.8880 1.5340
35.9000 23.9013 1.5374
35.9200 23.9147 1.5371
35.9400 23.9281 1.5388
35.9600 23.9414 1.5400
35.9800 23.9548 1.5401
36.0000 23.9681 1.5434
36.0200 23.9814 1.5415
36.0400 23.9948 1.5463
36.0600 24.0081 1.5438
36.0800 24.0214 1.5474
36.1000 24.0347 1.5460
36.1200 24.0481 1.5506
36.1400 24.0614 1.5476
36.1600 24.0747 1.5524
36.1800 24.0880 1.5503
36.2000 24.1014 1.5541
36.2200 24.1147 1.5534
36.2400 24.1281 1.5551
36.2600 24.1414 1.5560
36.2800 24.1547 1.5566
36.3000 24.1681 1.5586
36.3200 24.1814 1.5575
36.3400 24.1948 1.5615
36.3600 24.2081 1.5601
36.3800 24.2214 1.5626
36.4000 24.2348 1.5595
36.4200 24.2481 1.5631
36.4400 24.2614 1.5600
36.4600 24.2748 1.5657
36.4800 24.2881 1.5626
36.5000 24.3014 1.5671
36.5200 24.3147 1.5658
36.5400 24.3280 1.5690
36.5600 24.3413 1.5687
36.5800 24.3547 1.5703
36.6000 24.3680 1.5721
36.6200 24.3814 1.5714
36.6400 24.3947 1.5750
36.6600 24.4081 1.5733
36.6800 24.4215 1.5769
36.7000 24.4348 1.5752
36.7200 24.4481 1.5794
36.7400 24.4614 1.5770
36.7600 24.4748 1.5820
36.7800 24.4882 1.5795
36.8000 24.5014 1.5837
36.8200 24.5147 1.5826
36.8400 24.5280 1.5859
36.8600 24.5414 1.5847
36.8800 24.5547 1.5869
36.9000 24.5680 1.5883
36.9200 24.5814 1.5882
36.9400 24.5947 1.5908
36.9600 24.6080 1.5903
36.9800 24.6214 1.5930
37.0000 24.6347 1.5915
37.0200 24.6481 1.5959
37.0400 24.6615 1.5930
37.0600 24.6748 1.5978
37.0800 24.6881 1.5953
37.1000 24.7014 1.6005
37.1200 24.7148 1.5974
37.1400 24.7281 1.6027
37.1600 24.7414 1.5998
37.1800 24.7547 1.6037
37.2000 24.7680 1.6034
37.2200 24.7814 1.6046
37.2400 24.7947 1.6057
37.2600 24.8080 1.6066
37.2800 24.8213 1.6085
37.3000 24.8347 1.6079
37.3200 24.8480 1.6115
37.3400 24.8614 1.6093
37.3600 24.8747 1.6137
37.3800 24.8881 1.6120
37.4000 24.9014 1.6160
37.4200 24.9148 1.6135
37.4400 24.9281 1.6188
37.4600 24.9414 1.6161
37.4800 24.9548 1.6203
37.5000 24.9681 1.6193
37.5200 24.9815 1.6204
37.5400 24.9948 1.6190
37.5600 25.0081 1.6200
37.5800 25.0215 1.6214
37.6000 25.0348 1.6217
37.6200 25.0481 1.6257
37.6400 25.0614 1.6239
37.6600 25.0747 1.6279
37.6800 25.0880 1.6264
37.7000 25.1013 1.6301
37.7200 25.1147 1.6258
37.7400 25.1280 1.6254
37.7600 25.1414 1.6225
37.7800 25.1548 1.6259
37.8000 25.1681 1.6269
37.8200 25.1815 1.6293
37.8400 25.1948 1.6307
37.8600 25.2082 1.6326
37.8800 25.2215 1.6339
37.9000 25.2347 1.6350
37.9200 25.2481 1.6375
37.9400 25.2614 1.6374
37.9600 25.2747 1.6400
37.9800 25.2880 1.6404
38.0000 25.3013 1.6426
38.0200 25.3147 1.6415
38.0400 25.3280 1.6462
38.0600 25.3414 1.6439
38.0800 25.3547 1.6489
38.1000 25.3681 1.6465
38.1200 25.3815 1.6505
38.1400 25.3948 1.6483
38.1600 25.4081 1.6531
38.1800 25.4215 1.6519
38.2000 25.4348 1.6550
38.2200 25.4481 1.6548
38.2400 25.4614 1.6568
38.2600 25.4747 1.6573
38.2800 25.4880 1.6597
38.3000 25.5014 1.6605
38.3200 25.5147 1.6603
38.3400 25.5280 1.6639
38.3600 25.5413 1.6627
38.3800 25.5547 1.6661
38.4000 25.5681 1.6650
38.4200 25.5814 1.6685
38.4400 25.5947 1.6668
38.4600 25.6081 1.6715
38.4800 25.6215 1.6700
38.5000 25.6348 1.6727
38.5200 25.6481 1.6731
38.5400 25.6614 1.6746
38.5600 25.6748 1.6757
38.5800 25.6882 1.6771
38.6000 25.7015 1.6784
38.6200 25.7148 1.6785
38.6400 25.7281 1.6811
38.6600 25.7414 1.6812
38.6800 25.7547 1.6839
38.7000 25.7680 1.6832
38.7200 25.7813 1.6873
38.7400 25.7947 1.6848
38.7600 25.8080 1.6897
38.7800 25.8214 1.6876
38.8000 25.8347 1.6919
38.8200 25.8481 1.6909
38.8400 25.8615 1.6940
38.8600 25.8748 1.6926
38.8800 25.8881 1.6962
38.9000 25.9014 1.6966
38.9200 25.9148 1.6981
38.9400 25.9281 1.6990
38.9600 25.9414 1.7002
38.9800 25.9547 1.6999
39.0000 25.9681 1.6976
39.0200 25.9814 1.6991
39.0400 25.9948 1.6984
39.0600 26.0081 1.7036
39.0800 26.0214 1.7020
39.1000 26.0347 1.7067
39.1200 26.0481 1.7053
39.1400 26.0614 1.7099
39.1600 26.0747 1.7076
39.1800 26.0880 1.7122
39.2000 26.1014 1.7118
39.2200 26.1148 1.7133
39.2400 26.1281 1.7144
39.2600 26.1414 1.7168
39.2800 26.1547 1.7177
39.3000 26.1681 1.7185
39.3200 26.1815 1.7215
39.3400 26.1948 1.7201
39.3600 26.2081 1.7242
39.3800 26.2214 1.7213
39.4000 26.2348 1.7245
39.4200 26.2481 1.7246
39.4400 26.2614 1.7273
39.4600 26.2747 1.7275
39.4800 26.2880 1.7299
39.5000 26.3014 1.7312
39.5200 26.3147 1.7321
39.5400 26.3280 1.7341
39.5600 26.3414 1.7345
39.5800 26.3548 1.7360
39.6000 26.3681 1.7375
39.6200 26.3814 1.7396
39.6400 26.3947 1.7397
39.6600 26.4081 1.7429
39.6800 26.4214 1.7422
39.7000 26.4347 1.7453
39.7200 26.4481 1.7453
39.7400 26.4614 1.7484
39.7600 26.4748 1.7470
39.7800 26.4880 1.7511
39.8000 26.5013 1.7511
39.8200 26.5147 1.7533
39.8400 26.5280 1.7540
39.8600 26.5414 1.7555
39.8800 26.5547 1.7558
39.9000 26.5680 1.7586
39.9200 26.5814 1.7602
39.9400 26.5948 1.7595
39.9600 26.6082 1.7637
39.9800 26.6215 1.7627
40.0000 26.6348 1.7663
40.0200 26.6482 1.7643
40.0400 26.6615 1.7698
40.0600 26.6747 1.7679
40.0800 26.6880 1.7724
40.1000 26.7014 1.7712
40.1200 26.7147 1.7738
40.1400 26.7280 1.7747
40.1600 26.7413 1.7768
40.1800 26.7547 1.7778
40.2000 26.7681 1.7789
40.2200 26.7814 1.7820
40.2400 26.7947 1.7805
40.2600 26.8081 1.7848
40.2800 26.8215 1.7841
40.3000 26.8348 1.7878
40.3200 26.8481 1.7861
40.3400 26.8614 1.7914
40.3600 26.8747 1.7891
40.3800 26.8881 1.7939
40.4000 26.9014 1.7925
40.4200 26.9147 1.7961
40.4400 26.9280 1.7958
40.4600 26.9414 1.7993
40.4800 26.9548 1.7991
40.5000 26.9681 1.7979
40.5200 26.9814 1.7934
40.5400 26.9947 1.7893
40.5600 27.0080 1.7928
40.5800 27.0214 1.7929
40.6000 27.0347 1.7981
40.6200 27.0481 1.7981
40.6400 27.0614 1.8029
40.6600 27.0748 1.8014
40.6800 27.0881 1.8062
40.7000 27.1014 1.8055
40.7200 27.1148 1.8099
40.7400 27.1281 1.8099
40.7600 27.1415 1.8130
40.7800 27.1548 1.8135
40.8000 27.1681 1.8159
40.8200 27.1814 1.8179
40.8400 27.1948 1.8189
40.8600 27.2081 1.8209
40.8800 27.2213 1.8227
40.9000 27.2347 1.8248
40.9200 27.2480 1.8249
40.9400 27.2614 1.8286
40.9600 27.2747 1.8285
40.9800 27.2881 1.8316
41.0000 27.3014 1.8311
41.0200 27.3148 1.8353
41.0400 27.3281 1.8342
41.0600 27.3414 1.8385
41.0800 27.3548 1.8365
41.1000 27.3681 1.8376
41.1200 27.3815 1.8375
41.1400 27.3947 1.8398
41.1600 27.4081 1.8419
41.1800 27.4214 1.8443
41.2000 27.4348 1.8455
41.2200 27.4481 1.8466
41.2400 27.4614 1.8498
41.2600 27.4747 1.8498
41.2800 27.4880 1.8534
41.3000 27.5014 1.8530
41.3200 27.5147 1.8575
41.3400 27.5280 1.8554
41.3600 27.5414 1.8613
41.3800 27.5548 1.8580
41.4000 27.5681 1.8599
41.4200 27.5814 1.8603
41.4400 27.5948 1.8624
41.4600 27.6081 1.8648
41.4800 27.6215 1.8661
41.5000 27.6348 1.8696
41.5200 27.6481 1.8694
41.5400 27.6614 1.8732
41.5600 27.6748 1.8733
41.5800 27.6881 1.8767
41.6000 27.7014 1.8765
41.6200 27.7147 1.8806
41.6400 27.7280 1.8792
41.6600 27.7413 1.8852
41.6800 27.7547 1.8834
41.7000 27.7680 1.8877
41.7200 27.7814 1.8878
41.7400 27.7948 1.8906
41.7600 27.8081 1.8913
41.7800 27.8214 1.8952
41.8000 27.8348 1.8953
41.8200 27.8481 1.8980
41.8400 27.8615 1.8988
41.8600 27.8748 1.9013
41.8800 27.8881 1.9034
41.9000 27.9014 1.9053
41.9200 27.9148 1.9068
41.9400 27.9281 1.9070
41.9600 27.9414 1.9125
41.9800 27.9547 1.9108
42.0000 27.9680 1.9159
42.0200 27.9813 1.9145
42.0400 27.9947 1.9198
42.0600 28.0080 1.9177
42.0800 28.0214 1.9233
42.1000 28.0348 1.9225
42.1200 28.0481 1.9262
42.1400 28.0615 1.9268
42.1600 28.0748 1.9300
42.1800 28.0881 1.9309
42.2000 28.1015 1.9337
42.2200 28.1148 1.9363
42.2400 28.1280 1.9358
42.2600 28.1414 1.9394
42.2800 28.1547 1.9328
42.3000 28.1680 1.9328
42.3200 28.1814 1.9315
42.3400 28.1947 1.9374
42.3600 28.2080 1.9376
42.3800 28.2214 1.9430
42.4000 28.2348 1.9435
42.4200 28.2481 1.9472
42.4400 28.2615 1.9481
42.4600 28.2748 1.9515
42.4800 28.2881 1.9532
42.5000 28.3014 1.9562
42.5200 28.3147 1.9582
42.5400 28.3281 1.9598
42.5600 28.3415 1.9625
42.5800 28.3548 1.9646
42.6000 28.3681 1.9674
42.6200 28.3814 1.9689
42.6400 28.3948 1.9719
42.6600 28.4081 1.9719
42.6800 28.4214 1.9772
42.7000 28.4347 1.9754
42.7200 28.4480 1.9771
42.7400 28.4614 1.9777
42.7600 28.4747 1.9814
42.7800 28.4880 1.9823
42.8000 28.5014 1.9872
42.8200 28.5147 1.9878
42.8400 28.5281 1.9910
42.8600 28.5414 1.9925
42.8800 28.5548 1.9960
42.9000 28.5681 1.9973
42.9200 28.5815 1.9996
42.9400 28.5948 2.0024
42.9600 28.6081 1.9992
42.9800 28.6214 2.0029
43.0000 28.6348 2.0022
43.0200 28.6481 2.0076
43.0400 28.6614 2.0070
43.0600 28.6747 2.0142
43.0800 28.6880 2.0120
43.1000 28.7014 2.0184
43.1200 28.7147 2.0179
43.1400 28.7280 2.0224
43.1600 28.7414 2.0236
43.1800 28.7548 2.0272
43.2000 28.7681 2.0283
43.2200 28.7814 2.0318
43.2400 28.7947 2.0358
43.2600 28.8081 2.0347
43.2800 28.8214 2.0410
43.3000 28.8348 2.0400
43.3200 28.8481 2.0457
43.3400 28.8614 2.0451
43.3600 28.8748 2.0513
43.3800 28.8881 2.0501
43.4000 28.9014 2.0555
43.4200 28.9147 2.0564
43.4400 28.9280 2.0599
43.4600 28.9414 2.0616
43.4800 28.9547 2.0643
43.5000 28.9680 2.0625
43.5200 28.9814 2.0639
43.5400 28.9948 2.0674
43.5600 29.0081 2.0685
43.5800 29.0214 2.0739
43.6000 29.0348 2.0758
43.6200 29.0481 2.0795
43.6400 29.0615 2.0791
43.6600 29.0748 2.0788
43.6800 29.0881 2.0758
43.7000 29.1014 2.0798
43.7200 29.1148 2.0822
43.7400 29.1281 2.0870
43.7600 29.1414 2.0890
43.7800 29.1547 2.0947
43.8000 29.1680 2.0961
43.8200 29.1814 2.1012
43.8400 29.1947 2.1029
43.8600 29.2081 2.1064
43.8800 29.2214 2.1102
43.9000 29.2348 2.1119
43.9200 29.2482 2.1176
43.9400 29.2615 2.1173
43.9600 29.2748 2.1248
43.9800 29.2881 2.1236
44.0000 29.3015 2.1301
44.0200 29.3148 2.1311
44.0400 29.3281 2.1361
44.0600 29.3414 2.1371
44.0800 29.3547 2.1428
44.1000 29.3680 2.1432
44.1200 29.3814 2.1474
44.1400 29.3947 2.1498
44.1600 29.4080 2.1520
44.1800 29.4214 2.1570
44.2000 29.4347 2.1585
44.2200 29.4480 2.1650
44.2400 29.4614 2.1648
44.2600 29.4748 2.1727
44.2800 29.4881 2.1705
44.3000 29.5015 2.1786
44.3200 29.5148 2.1784
44.3400 29.5281 2.1826
44.3600 29.5415 2.1843
44.3800 29.5548 2.1889
44.4000 29.5681 2.1910
44.4200 29.5814 2.1942
44.4400 29.5947 2.1911
44.4600 29.6081 2.1855
44.4800 29.6214 2.1900
44.5000 29.6347 2.1936
44.5200 29.6480 2.2001
44.5400 29.6614 2.2029
44.5600 29.6747 2.2099
44.5800 29.6880 2.2116
44.6000 29.7014 2.2178
44.6200 29.7147 2.2204
44.6400 29.7281 2.2255
44.6600 29.7414 2.2283
44.6800 29.7547 2.2341
44.7000 29.7681 2.2358
44.7200 29.7815 2.2409
44.7400 29.7948 2.2438
44.7600 29.8081 2.2489
44.7800 29.8214 2.2512
44.8000 29.8348 2.2564
44.8200 29.8481 2.2597
44.8400 29.8614 2.2630
44.8600 29.8747 2.2692
44.8800 29.8880 2.2706
44.9000 29.9013 2.2763
44.9200 29.9147 2.2733
44.9400 29.9280 2.2779
44.9600 29.9414 2.2768
44.9800 29.9548 2.2847
45.0000 29.9682 2.2776
45.0200 29.9815 2.2832
45.0400 29.9948 2.2836
45.0480 30.0000 2.2818
45.0490 30.0006 2.2818
45.0500 30.0013 2.2817
45.0700 30.0118 2.2749
45.0900 30.0141 2.2603
45.1100 30.0059 2.2694
45.1300 29.9931 2.2642
45.1500 29.9803 2.2546
45.1700 29.9674 2.2426
45.1900 29.9539 2.2318
45.2100 29.9399 2.2225
45.2300 29.9258 2.2139
45.2500 29.9119 2.2049
45.2700 29.8984 2.1952
45.2900 29.8851 2.1865
45.3100 29.8719 2.1763
45.3300 29.8585 2.1710
45.3500 29.8452 2.1613
45.3700 29.8318 2.1556
45.3900 29.8185 2.1470
45.4100 29.8051 2.1409
45.4300 29.7918 2.1323
45.4500 29.7784 2.1264
45.4700 29.7651 2.1196
45.4900 29.7518 2.1118
45.5100 29.7384 2.1059
45.5300 29.7251 2.1002
45.5500 29.7117 2.0931
45.5700 29.6984 2.0880
45.5900 29.6850 2.0817
45.6100 29.6717 2.0753
45.6300 29.6583 2.0698
45.6500 29.6450 2.0645
45.6700 29.6317 2.0584
45.6900 29.6183 2.0532
45.7100 29.6050 2.0493
45.7300 29.5917 2.0422
45.7500 29.5784 2.0383
45.7700 29.5651 2.0319
45.7900 29.5518 2.0287
45.8100 29.5384 2.0210
45.8300 29.5251 2.0196
45.8500 29.5117 2.0108
45.8700 29.4984 2.0101
45.8900 29.4850 2.0026
45.9100 29.4717 2.0001
45.9300 29.4584 1.9938
45.9500 29.4451 1.9909
45.9700 29.4317 1.9850
45.9900 29.4184 1.9816
46.0100 29.4051 1.9783
46.0300 29.3917 1.9716
46.0500 29.3784 1.9697
46.0700 29.3650 1.9644
46.0900 29.3517 1.9615
46.1100 29.3384 1.9557
46.1300 29.3251 1.9544
46.1500 29.3118 1.9471
46.1700 29.2984 1.9460
46.1900 29.2851 1.9409
46.2100 29.2718 1.9368
46.2300 29.2584 1.9334
46.2500 29.2450 1.9302
46.2700 29.2317 1.9262
46.2900 29.2183 1.9220
46.3100 29.2050 1.9204
46.3300 29.1916 1.9147
46.3500 29.1783 1.9129
46.3700 29.1650 1.9077
46.3900 29.1517 1.9062
46.4100 29.1384 1.9009
46.4300 29.1251 1.9002
46.4500 29.1118 1.8938
46.4700 29.0985 1.8925
46.4900 29.0852 1.8876
46.5100 29.0718 1.8861
46.5300 29.0583 1.8809
46.5500 29.0450 1.8801
46.5700 29.0317 1.8740
46.5900 29.0183 1.8736
46.6100 29.0049 1.8683
46.6300 28.9916 1.8673
46.6500 28.9783 1.8622
46.6700 28.9650 1.8609
46.6900 28.9516 1.8573
46.7100 28.9383 1.8532
46.7300 28.9250 1.8526
46.7500 28.9117 1.8467
46.7700 28.8984 1.8462
46.7900 28.8850 1.8413
46.8100 28.8717 1.8416
46.8300 28.8584 1.8346
46.8500 28.8451 1.8355
46.8700 28.8318 1.8292
46.8900 28.8185 1.8292
46.9100 28.8051 1.8250
46.9300 28.7917 1.8234
46.9500 28.7783 1.8200
46.9700 28.7649 1.8171
46.9900 28.7516 1.8163
47.0100 28.7383 1.8100
47.0300 28.7250 1.8124
47.0500 28.7117 1.8048
47.0700 28.6983 1.8065
47.0900 28.6850 1.8010
47.1100 28.6717 1.8009
47.1300 28.6584 1.7953
47.1500 28.6451 1.7969
47.1700 28.6317 1.7898
47.1900 28.6184 1.7908
47.2100 28.6051 1.7855
47.2300 28.5918 1.7847
47.2500 28.5784 1.7817
47.2700 28.5651 1.7792
47.2900 28.5517 1.7778
47.3100 28.5384 1.7725
47.3300 28.5250 1.7732
47.3500 28.5117 1.7686
47.3700 28.4984 1.7680
47.3900 28.4850 1.7639
47.4100 28.4717 1.7641
47.4300 28.4583 1.7577
47.4500 28.4450 1.7598
47.4700 28.4317 1.7539
47.4900 28.4184 1.7542
47.5100 28.4050 1.7501
47.5300 28.3917 1.7498
47.5500 28.3784 1.7447
47.5700 28.3651 1.7461
47.5900 28.3517 1.7405
47.6100 28.3384 1.7405
47.6300 28.3250 1.7379
47.6500 28.3117 1.7342
47.6700 28.2984 1.7337
47.6900 28.2850 1.7303
47.7100 28.2717 1.7301
47.7300 28.2583 1.7253
47.7500 28.2450 1.7264
47.7700 28.2317 1.7204
47.7900 28.2183 1.7225
47.8100 28.2050 1.7166
47.8300 28.1917 1.7179
47.8500 28.1783 1.7126
47.8700 28.1650 1.7136
47.8900 28.1517 1.7097
47.9100 28.1384 1.7070
47.9300 28.1251 1.7069
47.9500 28.1117 1.7034
47.9700 28.0984 1.7018
47.9900 28.0850 1.6995
48.0100 28.0717 1.6988
48.0300 28.0584 1.6932
48.0500 28.0450 1.6962
48.0700 28.0317 1.6901
48.0900 28.0184 1.6908
48.1100 28.0050 1.6872
48.1300 27.9917 1.6865
48.1500 27.9783 1.6826
48.1700 27.9650 1.6838
48.1900 27.9517 1.6789
48.2100 27.9384 1.6787
48.2300 27.9250 1.6761
48.2500 27.9117 1.6743
48.2700 27.8984 1.6732
48.2900 27.8851 1.6694
48.3100 27.8717 1.6705
48.3300 27.8584 1.6656
48.3500 27.8450 1.6662
48.3700 27.8317 1.6621
48.3900 27.8184 1.6616
48.4100 27.8050 1.6585
48.4300 27.7916 1.6591
48.4500 27.7783 1.6547
48.4700 27.7650 1.6554
48.4900 27.7517 1.6516
48.5100 27.7383 1.6499
48.5300 27.7250 1.6490
48.5500 27.7117 1.6471
48.5700 27.6984 1.6445
48.5900 27.6851 1.6433
48.6100 27.6717 1.6417
48.6300 27.6584 1.6384
48.6500 27.6451 1.6391
48.6700 27.6318 1.6350
48.6900 27.6184 1.6344
48.7100 27.6050 1.6314
48.7300 27.5917 1.6319
48.7500 27.5784 1.6269
48.7700 27.5650 1.6282
48.7900 27.5516 1.6246
48.8100 27.5383 1.6238
48.8300 27.5250 1.6208
48.8500 27.5117 1.6207
48.8700 27.4983 1.6174
48.8900 27.4850 1.6168
48.9100 27.4717 1.6154
48.9300 27.4584 1.6124
48.9500 27.4450 1.6126
48.9700 27.4317 1.6094
48.9900 27.4184 1.6091
49.0100 27.4051 1.6052
49.0300 27.3918 1.6073
49.0500 27.3784 1.6015
49.0700 27.3650 1.6029
49.0900 27.3517 1.5991
49.1100 27.3384 1.5986
49.1300 27.3250 1.5961
49.1500 27.3117 1.5953
49.1700 27.2983 1.5926
49.1900 27.2850 1.5919
49.2100 27.2717 1.5904
49.2300 27.2583 1.5873
49.2500 27.2450 1.5878
49.2700 27.2317 1.5845
49.2900 27.2184 1.5843
49.3100 27.2051 1.5816
49.3300 27.1917 1.5820
49.3500 27.1784 1.5779
49.3700 27.1651 1.5781
49.3900 27.1517 1.5750
49.4100 27.1384 1.5753
49.4300 27.1250 1.5722
49.4500 27.1117 1.5720
49.4700 27.0984 1.5684
49.4900 27.0850 1.5689
49.5100 27.0717 1.5669
49.5300 27.0583 1.5646
49.5500 27.0450 1.5637
49.5700 27.0317 1.5619
49.5900 27.0183 1.5601
49.6100 27.0050 1.5582
49.6300 26.9917 1.5586
49.6500 26.9784 1.5547
49.6700 26.9650 1.5549
49.6900 26.9517 1.5525
49.7100 26.9384 1.5522
49.7300 26.9251 1.5485
49.7500 26.9118 1.5500
49.7700 26.8984 1.5449
49.7900 26.8851 1.5470
49.8100 26.8717 1.5429
49.8300 26.8584 1.5426
49.8500 26.8450 1.5404
49.8700 26.8317 1.5398
49.8900 26.8183 1.5381
49.9100 26.8050 1.5357
49.9300 26.7917 1.5365
49.9500 26.7783 1.5314
49.9700 26.7650 1.5341
49.9900 26.7517 1.5292
50.0100 26.7384 1.5299
50.0300 26.7250 1.5265
50.0500 26.7117 1.5281
50.0700 26.6984 1.5233
50.0900 26.6851 1.5250
50.1100 26.6718 1.5212
50.1300 26.6584 1.5208
50.1500 26.6450 1.5199
50.1700 26.6317 1.5174
50.1900 26.6184 1.5167
50.2100 26.6051 1.5140
50.2300 26.5917 1.5154
50.2500 26.5783 1.5106
50.2700 26.5650 1.5119
50.2900 26.5516 1.5087
50.3100 26.5383 1.5090
50.3300 26.5250 1.5056
50.3500 26.5117 1.5074
50.3700 26.4984 1.5021
50.3900 26.4850 1.5035
50.4100 26.4717 1.5009
50.4300 26.4584 1.5000
50.4500 26.4451 1.4975
50.4700 26.4318 1.4977
50.4900 26.4184 1.4956
50.5100 26.4051 1.4937
50.5300 26.3917 1.4941
50.5500 26.3784 1.4902
50.5700 26.3650 1.4905
50.5900 26.3517 1.4882
50.6100 26.3383 1.4881
50.6300 26.3250 1.4844
50.6500 26.3117 1.4867
50.6700 26.2983 1.4815
50.6900 26.2850 1.4836
50.7100 26.2717 1.4798
50.7300 26.2584 1.4806
50.7500 26.2450 1.4765
50.7700 26.2317 1.4786
50.7900 26.2184 1.4750
50.8100 26.2051 1.4741
50.8300 26.1917 1.4735
50.8500 26.1784 1.4713
50.8700 26.1650 1.4717
50.8900 26.1517 1.4681
50.9100 26.1384 1.4687
50.9300 26.1250 1.4643
50.9500 26.1117 1.4681
50.9700 26.0983 1.4621
50.9900 26.0850 1.4640
51.0100 26.0717 1.4604
51.0300 26.0584 1.4615
51.0500 26.0450 1.4574
51.0700 26.0317 1.4596
51.0900 26.0184 1.4552
51.1100 26.0050 1.4555
51.1300 25.9917 1.4546
51.1500 25.9784 1.4525
51.1700 25.9651 1.4521
51.1900 25.9517 1.4497
51.2100 25.9384 1.4508
51.2300 25.9250 1.4455
51.2500 25.9117 1.4492
51.2700 25.8984 1.4430
51.2900 25.8851 1.4452
51.3100 25.8717 1.4412
51.3300 25.8583 1.4426
51.3500 25.8450 1.4390
51.3700 25.8317 1.4399
51.3900 25.8183 1.4366
51.4100 25.8050 1.4373
51.4300 25.7917 1.4347
51.4500 25.7784 1.4342
51.4700 25.7650 1.4320
51.4900 25.7517 1.4321
51.5100 25.7384 1.4311
51.5300 25.7251 1.4272
51.5500 25.7118 1.4292
51.5700 25.6984 1.4252
51.5900 25.6851 1.4265
51.6100 25.6717 1.4233
51.6300 25.6584 1.4242
51.6500 25.6451 1.4196
51.6700 25.6317 1.4224
51.6900 25.6183 1.4178
51.7100 25.6050 1.4191
51.7300 25.5917 1.4158
51.7500 25.5783 1.4160
51.7700 25.5650 1.4133
51.7900 25.5516 1.4142
51.8100 25.5383 1.4124
51.8300 25.5250 1.4098
51.8500 25.5117 1.4116
51.8700 25.4983 1.4071
51.8900 25.4851 1.4087
51.9100 25.4718 1.4051
51.9300 25.4584 1.4064
51.9500 25.4451 1.4020
51.9700 25.4318 1.4045
51.9900 25.4184 1.3995
52.0100 25.4051 1.4013
52.0300 25.3917 1.3984
52.0500 25.3783 1.3988
52.0700 25.3650 1.3955
52.0900 25.3517 1.3954
52.1100 25.3383 1.3952
52.1300 25.3250 1.3917
52.1500 25.3116 1.3943
52.1700 25.2984 1.3890
52.1900 25.2850 1.3916
52.2100 25.2717 1.3873
52.2300 25.2584 1.3895
52.2500 25.2451 1.3847
52.2700 25.2318 1.3865
52.2900 25.2184 1.3832
52.3100 25.2050 1.3832
52.3300 25.1917 1.3817
52.3500 25.1784 1.3814
52.3700 25.1650 1.3785
52.3900 25.1517 1.3789
52.4100 25.1383 1.3777
52.4300 25.1250 1.3748
52.4500 25.1117 1.3766
52.4700 25.0984 1.3723
52.4900 25.0850 1.3739
52.5100 25.0716 1.3708
52.5300 25.0583 1.3723
52.5500 25.0450 1.3673
52.5700 25.0317 1.3706
52.5900 25.0184 1.3658
52.6100 25.0051 1.3672
52.6300 24.9918 1.3640
52.6500 24.9784 1.3652
52.6700 24.9650 1.3621
52.6900 24.9517 1.3628
52.7100 24.9384 1.3603
52.7300 24.9250 1.3589
52.7500 24.9117 1.3598
52.7700 24.8983 1.3562
52.7900 24.8850 1.3575
52.8100 24.8717 1.3535
52.8300 24.8583 1.3561
52.8500 24.8450 1.3510
52.8700 24.8317 1.3544
52.8900 24.8184 1.3485
52.9100 24.8051 1.3520
52.9300 24.7917 1.3470
52.9500 24.7784 1.3491
52.9700 24.7651 1.3454
52.9900 24.7518 1.3461
53.0100 24.7384 1.3446
53.0300 24.7250 1.3424
53.0500 24.7117 1.3443
53.0700 24.6984 1.3398
53.0900 24.6851 1.3415
53.1100 24.6717 1.3367
53.1300 24.6583 1.3404
53.1500 24.6450 1.3341
53.1700 24.6317 1.3387
53.1900 24.6183 1.3325
53.2100 24.6050 1.3354
53.2300 24.5916 1.3306
53.2500 24.5783 1.3336
53.2700 24.5650 1.3294
53.2900 24.5517 1.3309
53.3100 24.5384 1.3286
53.3300 24.5251 1.3266
53.3500 24.5117 1.3277
53.3700 24.4984 1.3246
53.3900 24.4851 1.3259
53.4100 24.4718 1.3210
53.4300 24.4585 1.3252
53.4500 24.4451 1.3180
53.4700 24.4317 1.3232
53.4900 24.4183 1.3170
53.5100 24.4050 1.3202
53.5300 24.3917 1.3147
53.5500 24.3783 1.3183
53.5700 24.3649 1.3133
53.5900 24.3516 1.3150
53.6100 24.3383 1.3124
53.6300 24.3250 1.3119
53.6500 24.3117 1.3105
53.6700 24.2984 1.3104
53.6900 24.2851 1.3085
53.7100 24.2718 1.3075
53.7300 24.2584 1.3080
53.7500 24.2451 1.3036
53.7700 24.2317 1.3072
53.7900 24.2184 1.3017
53.8100 24.2050 1.3045
53.8300 24.1917 1.2989
53.8500 24.1783 1.3033
53.8700 24.1650 1.2973
53.8900 24.1517 1.3004
53.9100 24.1383 1.2972
53.9300 24.1250 1.2969
53.9500 24.1116 1.2959
53.9700 24.0983 1.2944
53.9900 24.0850 1.2942
54.0100 24.0717 1.2915
54.0300 24.0584 1.2943
54.0500 24.0451 1.2880
54.0700 24.0318 1.2926
54.0900 24.0184 1.2862
54.1100 24.0051 1.2910
54.1300 23.9917 1.2839
54.1500 23.9784 1.2889
54.1700 23.9651 1.2818
54.1900 23.9517 1.2855
54.2100 23.9383 1.2823
54.2300 23.9250 1.2823
54.2500 23.9117 1.2810
54.2700 23.8983 1.2799
54.2900 23.8850 1.2792
54.3100 23.8717 1.2772
54.3300 23.8584 1.2794
54.3500 23.8451 1.2742
54.3700 23.8318 1.2768
54.3900 23.8184 1.2732
54.4100 23.8051 1.2750
54.4300 23.7918 1.2709
54.4500 23.7785 1.2739
54.4700 23.7651 1.2690
54.4900 23.7517 1.2712
54.5100 23.7384 1.2679
54.5300 23.7250 1.2683
54.5500 23.7117 1.2665
54.5700 23.6983 1.2666
54.5900 23.6850 1.2651
54.6100 23.6717 1.2629
54.6300 23.6584 1.2637
54.6500 23.6450 1.2606
54.6700 23.6317 1.2620
54.6900 23.6183 1.2594
54.7100 23.6050 1.2598
54.7300 23.5917 1.2562
54.7500 23.5783 1.2601
54.7700 23.5650 1.2530
54.7900 23.5517 1.2582
54.8100 23.5384 1.2525
54.8300 23.5251 1.2549
54.8500 23.5117 1.2511
54.8700 23.4984 1.2528
54.8900 23.4850 1.2494
54.9100 23.4717 1.2496
54.9300 23.4583 1.2491
54.9500 23.4450 1.2478
54.9700 23.4317 1.2466
54.9900 23.4183 1.2459
55.0100 23.4050 1.2456
55.0300 23.3916 1.2427
55.0500 23.3783 1.2454
55.0700 23.3650 1.2400
55.0900 23.3517 1.2428
55.1100 23.3383 1.2396
55.1300 23.3250 1.2412
55.1500 23.3117 1.2373
55.1700 23.2984 1.2396
55.1900 23.2850 1.2365
55.2100 23.2717 1.2357
55.2300 23.2584 1.2362
55.2500 23.2451 1.2331
55.2700 23.2317 1.2332
55.2900 23.2184 1.2326
55.3100 23.2050 1.2318
55.3300 23.1917 1.2287
55.3500 23.1784 1.2321
55.3700 23.1650 1.2260
55.3900 23.1517 1.2300
55.4100 23.1384 1.2260
55.4300 23.1251 1.2269
55.4500 23.1117 1.2252
55.4700 23.0984 1.2248
55.4900 23.0851 1.2237
55.5100 23.0718 1.2229
55.5300 23.0584 1.2221
55.5500 23.0450 1.2199
55.5700 23.0317 1.2208
55.5900 23.0184 1.2178
55.6100 23.0051 1.2198
55.6300 22.9917 1.2149
55.6500 22.9783 1.2182
55.6700 22.9650 1.2143
55.6900 22.9517 1.2154
55.7100 22.9384 1.2128
55.7300 22.9250 1.2139
55.7500 22.9116 1.2106
55.7700 22.8983 1.2128
55.7900 22.8850 1.2087
55.8100 22.8717 1.2091
55.8300 22.8584 1.2084
55.8500 22.8451 1.2070
55.8700 22.8318 1.2062
55.8900 22.8184 1.2059
55.9100 22.8051 1.2052
55.9300 22.7917 1.2027
55.9500 22.7784 1.2047
55.9700 22.7650 1.2010
55.9900 22.7517 1.2022
56.0100 22.7383 1.1993
56.0300 22.7250 1.2015
56.0500 22.7117 1.1966
56.0700 22.6984 1.1996
56.0900 22.6850 1.1957
56.1100 22.6717 1.1970
56.1300 22.6583 1.1943
56.1500 22.6450 1.1948
56.1700 22.6317 1.1931
56.1900 22.6183 1.1919
56.2100 22.6050 1.1930
56.2300 22.5917 1.1891
56.2500 22.5784 1.1925
56.2700 22.5651 1.1873
56.2900 22.5517 1.1903
56.3100 22.5384 1.1864
56.3300 22.5251 1.1883
56.3500 22.5117 1.1833
56.3700 22.4983 1.1873
56.3900 22.4850 1.1825
56.4100 22.4717 1.1845
56.4300 22.4584 1.1823
56.4500 22.4450 1.1813
56.4700 22.4317 1.1811
56.4900 22.4183 1.1794
56.5100 22.4051 1.1804
56.5300 22.3917 1.1756
56.5500 22.3784 1.1800
56.5700 22.3650 1.1744
56.5900 22.3517 1.1766
56.6100 22.3384 1.1731
56.6300 22.3251 1.1755
56.6500 22.3117 1.1710
56.6700 22.2983 1.1738
56.6900 22.2850 1.1700
56.7100 22.2717 1.1713
56.7300 22.2584 1.1689
56.7500 22.2450 1.1690
56.7700 22.2317 1.1680
56.7900 22.2184 1.1664
56.8100 22.2051 1.1673
56.8300 22.1917 1.1636
56.8500 22.1784 1.1666
56.8700 22.1650 1.1620
56.8900 22.1517 1.1642
56.9100 22.1384 1.1608
56.9300 22.1250 1.1633
56.9500 22.1117 1.1581
56.9700 22.0984 1.1616
56.9900 22.0851 1.1573
57.0100 22.0717 1.1596
57.0300 22.0584 1.1569
57.0500 22.0451 1.1565
57.0700 22.0317 1.1552
57.0900 22.0184 1.1548
57.1100 22.0050 1.1553
57.1300 21.9917 1.1513
57.1500 21.9784 1.1539
57.1700 21.9650 1.1500
57.1900 21.9516 1.1520
57.2100 21.9383 1.1484
57.2300 21.9250 1.1510
57.2500 21.9117 1.1462
57.2700 21.8984 1.1496
57.2900 21.8850 1.1455
57.3100 21.8717 1.1470
57.3300 21.8584 1.1439
57.3500 21.8451 1.1455
57.3700 21.8317 1.1426
57.3900 21.8184 1.1436
57.4100 21.8051 1.1422
57.4300 21.7917 1.1391
57.4500 21.7784 1.1419
57.4700 21.7650 1.1378
57.4900 21.7516 1.1408
57.5100 21.7383 1.1358
57.5300 21.7250 1.1388
57.5500 21.7116 1.1340
57.5700 21.6983 1.1373
57.5900 21.6850 1.1333
57.6100 21.6717 1.1349
57.6300 21.6583 1.1324
57.6500 21.6450 1.1334
57.6700 21.6317 1.1301
57.6900 21.6184 1.1302
57.7100 21.6051 1.1306
57.7300 21.5917 1.1281
57.7500 21.5784 1.1291
57.7700 21.5651 1.1269
57.7900 21.5517 1.1270
57.8100 21.5384 1.1249
57.8300 21.5250 1.1262
57.8500 21.5117 1.1232
57.8700 21.4983 1.1245
57.8900 21.4850 1.1221
57.9100 21.4717 1.1222
57.9300 21.4583 1.1200
57.9500 21.4450 1.1221
57.9700 21.4317 1.1179
57.9900 21.4184 1.1197
58.0100 21.4050 1.1179
58.0300 21.3917 1.1174
58.0500 21.3784 1.1156
58.0700 21.3651 1.1162
58.0900 21.3517 1.1147
58.1100 21.3384 1.1136
58.1300 21.3251 1.1147
58.1500 21.3118 1.1103
58.1700 21.2984 1.1136
58.1900 21.2850 1.1092
58.2100 21.2717 1.1119
58.2300 21.2584 1.1066
58.2500 21.2451 1.1113
58.2700 21.2317 1.1048
58.2900 21.2183 1.1095
58.3100 21.2050 1.1046
58.3300 21.1917 1.1070
58.3500 21.1784 1.1029
58.3700 21.1650 1.1054
58.3900 21.1517 1.1025
58.4100 21.1384 1.1022
58.4300 21.1251 1.1028
58.4500 21.1117 1.0991
58.4700 21.0984 1.1019
58.4900 21.0851 1.0978
58.5100 21.0718 1.0997
58.5300 21.0584 1.0959
58.5500 21.0450 1.0987
58.5700 21.0317 1.0946
58.5900 21.0184 1.0963
58.6100 21.0050 1.0939
58.6300 20.9917 1.0946
58.6500 20.9783 1.0922
58.6700 20.9650 1.0929
58.6900 20.9517 1.0918
58.7100 20.9383 1.0902
58.7300 20.9250 1.0914
58.7500 20.9117 1.0877
58.7700 20.8984 1.0901
58.7900 20.8851 1.0866
58.8100 20.8717 1.0882
58.8300 20.8584 1.0854
58.8500 20.8451 1.0870
58.8700 20.8317 1.0836
58.8900 20.8184 1.0847
58.9100 20.8050 1.0829
58.9300 20.7917 1.0833
58.9500 20.7784 1.0804
58.9700 20.7650 1.0823
58.9900 20.7516 1.0790
59.0100 20.7383 1.0802
59.0300 20.7250 1.0787
59.0500 20.7117 1.0769
59.0700 20.6983 1.0781
59.0900 20.6850 1.0755
59.1100 20.6717 1.0771
59.1300 20.6584 1.0728
59.1500 20.6451 1.0766
59.1700 20.6317 1.0711
59.1900 20.6184 1.0754
59.2100 20.6051 1.0700
59.2300 20.5918 1.0736
59.2500 20.5784 1.0678
59.2700 20.5650 1.0719
59.2900 20.5516 1.0677
59.3100 20.5383 1.0681
59.3300 20.5250 1.0683
59.3500 20.5116 1.0654
59.3700 20.4983 1.0678
59.3900 20.4850 1.0637
59.4100 20.4717 1.0665
59.4300 20.4584 1.0611
59.4500 20.4450 1.0657
59.4700 20.4317 1.0602
59.4900 20.4184 1.0634
59.5100 20.4051 1.0591
59.5300 20.3918 1.0618
59.5500 20.3784 1.0580
59.5700 20.3650 1.0602
59.5900 20.3517 1.0570
59.6100 20.3384 1.0568
59.6300 20.3250 1.0572
59.6500 20.3117 1.0549
59.6700 20.2984 1.0553
59.6900 20.2850 1.0530
59.7100 20.2717 1.0550
59.7300 20.2583 1.0509
59.7500 20.2450 1.0537
59.7700 20.2317 1.0497
59.7900 20.2184 1.0513
59.8100 20.2050 1.0494
59.8300 20.1917 1.0505
59.8500 20.1784 1.0468
59.8700 20.1651 1.0492
59.8900 20.1517 1.0452
59.9100 20.1383 1.0469
59.9300 20.1250 1.0446
59.9500 20.1117 1.0456
59.9700 20.0983 1.0424
59.9900 20.0850 1.0436
60.0100 20.0716 1.0425
60.0300 20.0583 1.0406
60.0500 20.0450 1.0420
60.0700 20.0317 1.0385
60.0900 20.0183 1.0417
60.1100 20.0050 1.0369
60.1300 19.9917 1.0401
60.1500 19.9784 1.0345
60.1700 19.9650 1.0394
60.1900 19.9517 1.0343
60.2100 19.9384 1.0367
60.2300 19.9251 1.0331
60.2500 19.9117 1.0348
60.2700 19.8984 1.0320
60.2900 19.8850 1.0327
60.3100 19.8717 1.0326
60.3300 19.8584 1.0295
60.3500 19.8450 1.0315
60.3700 19.8316 1.0278
60.3900 19.8183 1.0302
60.4100 19.8050 1.0262
60.4300 19.7917 1.0294
60.4500 19.7783 1.0248
60.4700 19.7650 1.0270
60.4900 19.7517 1.0249
60.5100 19.7384 1.0238
60.5300 19.7250 1.0245
60.5500 19.7117 1.0227
60.5700 19.6984 1.0227
60.5900 19.6851 1.0207
60.6100 19.6717 1.0221
60.6300 19.6584 1.0184
60.6500 19.6451 1.0216
60.6700 19.6318 1.0161
60.6900 19.6184 1.0193
60.7100 19.6050 1.0160
60.7300 19.5917 1.0179
60.7500 19.5784 1.0144
60.7700 19.5650 1.0158
60.7900 19.5516 1.0139
60.8100 19.5383 1.0140
60.8300 19.5250 1.0131
60.8500 19.5117 1.0124
60.8700 19.4984 1.0114
60.8900 19.4850 1.0110
60.9100 19.4717 1.0106
60.9300 19.4584 1.0086
60.9500 19.4451 1.0099
60.9700 19.4318 1.0061
60.9900 19.4184 1.0084
61.0100 19.4050 1.0046
61.0300 19.3917 1.0077
61.0500 19.3784 1.0028
61.0700 19.3650 1.0059
61.0900 19.3516 1.0028
61.1100 19.3383 1.0038
61.1300 19.3250 1.0013
61.1500 19.3117 1.0020
61.1700 19.2983 1.0004
61.1900 19.2850 1.0006
61.2100 19.2717 0.9997
61.2300 19.2584 0.9983
61.2500 19.2450 0.9993
61.2700 19.2317 0.9960
61.2900 19.2184 0.9983
61.3100 19.2051 0.9935
61.3300 19.1918 0.9979
61.3500 19.1784 0.9916
61.3700 19.1651 0.9963
61.3900 19.1517 0.9911
61.4100 19.1384 0.9936
61.4300 19.1250 0.9908
61.4500 19.1116 0.9911
61.4700 19.0983 0.9904
61.4900 19.0850 0.9887
61.5100 19.0716 0.9897
61.5300 19.0583 0.9871
61.5500 19.0450 0.9891
61.5700 19.0317 0.9857
61.5900 19.0184 0.9880
61.6100 19.0050 0.9833
61.6300 18.9917 0.9874
61.6500 18.9784 0.9819
61.6700 18.9651 0.9855
61.6900 18.9518 0.9812
61.7100 18.9384 0.9831
61.7300 18.9250 0.9806
61.7500 18.9117 0.9813
61.7700 18.8984 0.9792
61.7900 18.8850 0.9800
61.8100 18.8716 0.9786
61.8300 18.8583 0.9769
61.8500 18.8450 0.9774
61.8700 18.8317 0.9767
61.8900 18.8183 0.9762
61.9100 18.8050 0.9748
61.9300 18.7917 0.9753
61.9500 18.7784 0.9725
61.9700 18.7650 0.9742
61.9900 18.7517 0.9722
62.0100 18.7384 0.9724
62.0300 18.7251 0.9705
62.0500 18.7117 0.9710
62.0700 18.6984 0.9689
62.0900 18.6850 0.9700
62.1100 18.6717 0.9678
62.1300 18.6584 0.9673
62.1500 18.6450 0.9670
62.1700 18.6317 0.9667
62.1900 18.6183 0.9657
62.2100 18.6050 0.9637
62.2300 18.5917 0.9657
62.2500 18.5783 0.9616
62.2700 18.5650 0.9648
62.2900 18.5517 0.9605
62.3100 18.5384 0.9631
62.3300 18.5250 0.9589
62.3500 18.5117 0.9617
62.3700 18.4984 0.9588
62.3900 18.4851 0.9588
62.4100 18.4717 0.9583
62.4300 18.4584 0.9569
62.4500 18.4450 0.9578
62.4700 18.4317 0.9551
62.4900 18.4184 0.9568
62.5100 18.4050 0.9526
62.5300 18.3917 0.9560
62.5500 18.3783 0.9514
62.5700 18.3650 0.9534
62.5900 18.3517 0.9511
62.6100 18.3383 0.9521
62.6300 18.3250 0.9496
62.6500 18.3117 0.9510
62.6700 18.2984 0.9481
62.6900 18.2850 0.9489
62.7100 18.2717 0.9485
62.7300 18.2584 0.9467
62.7500 18.2451 0.9470
62.7700 18.2318 0.9449
62.7900 18.2184 0.9460
62.8100 18.2050 0.9433
62.8300 18.1917 0.9453
62.8500 18.1784 0.9415
62.8700 18.1650 0.9431
62.8900 18.1516 0.9409
62.9100 18.1383 0.9425
62.9300 18.1250 0.9383
62.9500 18.1117 0.9414
62.9700 18.0983 0.9381
62.9900 18.0850 0.9391
63.0100 18.0717 0.9375
63.0300 18.0584 0.9375
63.0500 18.0451 0.9363
63.0700 18.0317 0.9356
63.0900 18.0184 0.9363
63.1100 18.0051 0.9332
63.1300 17.9918 0.9357
63.1500 17.9784 0.9318
63.1700 17.9651 0.9338
63.1900 17.9517 0.9306
63.2100 17.9384 0.9327
63.2300 17.9250 0.9282
63.2500 17.9116 0.9323
63.2700 17.8983 0.9273
63.2900 17.8850 0.9300
63.3100 17.8717 0.9267
63.3300 17.8583 0.9282
63.3500 17.8450 0.9267
63.3700 17.8317 0.9256
63.3900 17.8184 0.9262
63.4100 17.8051 0.9231
63.4300 17.7917 0.9260
63.4500 17.7784 0.9214
63.4700 17.7651 0.9246
63.4900 17.7518 0.9208
63.5100 17.7384 0.9235
63.5300 17.7250 0.9192
63.5500 17.7117 0.9230
63.5700 17.6984 0.9172
63.5900 17.6851 0.9206
63.6100 17.6717 0.9166
63.6300 17.6583 0.9190
63.6500 17.6450 0.9162
63.6700 17.6317 0.9160
63.6900 17.6183 0.9162
63.7100 17.6050 0.9136
63.7300 17.5917 0.9160
63.7500 17.5784 0.9114
63.7700 17.5651 0.9141
63.7900 17.5517 0.9109
63.8100 17.5384 0.9125
63.8300 17.5251 0.9083
63.8500 17.5117 0.9117
63.8700 17.4984 0.9073
63.8900 17.4850 0.9100
63.9100 17.4717 0.9063
63.9300 17.4584 0.9080
63.9500 17.4450 0.9055
63.9700 17.4317 0.9051
63.9900 17.4183 0.9061
64.0100 17.4050 0.9022
64.0300 17.3917 0.9052
64.0500 17.3783 0.9014
64.0700 17.3650 0.9037
64.0900 17.3517 0.8999
64.1100 17.3384 0.9031
64.1300 17.3250 0.8982
64.1500 17.3117 0.9019
64.1700 17.2984 0.8974
64.1900 17.2851 0.9002
64.2100 17.2718 0.8963
64.2300 17.2584 0.8984
64.2500 17.2451 0.8956
64.2700 17.2317 0.8959
64.2900 17.2184 0.8953
64.3100 17.2051 0.8931
64.3300 17.1917 0.8952
64.3500 17.1783 0.8922
64.3700 17.1650 0.8936
64.3900 17.1517 0.8898
64.4100 17.1383 0.8938
64.4300 17.1250 0.8880
64.4500 17.1116 0.8922
64.4700 17.0983 0.8873
64.4900 17.0850 0.8904
64.5100 17.0717 0.8865
64.5300 17.0584 0.8891
64.5500 17.0451 0.8850
64.5700 17.0318 0.8871
64.5900 17.0184 0.8850
64.6100 17.0050 0.8841
64.6300 16.9917 0.8847
64.6500 16.9784 0.8827
64.6700 16.9651 0.8833
64.6900 16.9517 0.8801
64.7100 16.9383 0.8844
64.7300 16.9250 0.8778
64.7500 16.9117 0.8822
64.7700 16.8983 0.8770
64.7900 16.8850 0.8809
64.8100 16.8717 0.8764
64.8300 16.8584 0.8796
64.8500 16.8451 0.8755
64.8700 16.8317 0.8776
64.8900 16.8184 0.8755
64.9100 16.8051 0.8750
64.9300 16.7918 0.8746
64.9500 16.7784 0.8737
64.9700 16.7651 0.8739
64.9900 16.7517 0.8711
65.0100 16.7384 0.8740
65.0300 16.7251 0.8687
65.0500 16.7117 0.8725
65.0700 16.6983 0.8684
65.0900 16.6850 0.8706
65.1100 16.6717 0.8670
65.1300 16.6583 0.8698
65.1500 16.6450 0.8660
65.1700 16.6317 0.8674
65.1900 16.6184 0.8657
65.2100 16.6050 0.8657
65.2300 16.5917 0.8645
65.2500 16.5784 0.8648
65.2700 16.5651 0.8630
65.2900 16.5518 0.8619
65.3100 16.5384 0.8639
65.3300 16.5251 0.8602
65.3500 16.5117 0.8622
65.3700 16.4984 0.8582
65.3900 16.4851 0.8608
65.4100 16.4716 0.8576
65.4300 16.4583 0.8604
65.4500 16.4450 0.8556
65.4700 16.4317 0.8581
65.4900 16.4184 0.8549
65.5100 16.4050 0.8562
65.5300 16.3917 0.8546
65.5500 16.3784 0.8546
65.5700 16.3650 0.8533
65.5900 16.3517 0.8516
65.6100 16.3383 0.8539
65.6300 16.3250 0.8493
65.6500 16.3117 0.8527
65.6700 16.2984 0.8480
65.6900 16.2850 0.8520
65.7100 16.2717 0.8463
65.7300 16.2584 0.8500
65.7500 16.2451 0.8459
65.7700 16.2317 0.8480
65.7900 16.2183 0.8456
65.8100 16.2050 0.8460
65.8300 16.1917 0.8441
65.8500 16.1783 0.8450
65.8700 16.1649 0.8441
65.8900 16.1516 0.8421
65.9100 16.1383 0.8440
65.9300 16.1250 0.8399
65.9500 16.1117 0.8431
65.9700 16.0983 0.8387
65.9900 16.0851 0.8422
66.0100 16.0718 0.8376
66.0300 16.0584 0.8400
66.0500 16.0451 0.8372
66.0700 16.0317 0.8386
66.0900 16.0184 0.8362
66.1100 16.0051 0.8365
66.1300 15.9917 0.8350
66.1500 15.9784 0.8359
66.1700 15.9651 0.8336
66.1900 15.9517 0.8328
66.2100 15.9384 0.8338
66.2300 15.9250 0.8310
66.2500 15.9116 0.8328
66.2700 15.8983 0.8291
66.2900 15.8850 0.8318
66.3100 15.8717 0.8275
66.3300 15.8583 0.8311
66.3500 15.8451 0.8265
66.3700 15.8318 0.8292
66.3900 15.8184 0.8260
66.4100 15.8051 0.8276
66.4300 15.7917 0.8245
66.4500 15.7784 0.8264
66.4700 15.7651 0.8237
66.4900 15.7517 0.8233
66.5100 15.7383 0.8241
66.5300 15.7250 0.8221
66.5500 15.7117 0.8228
66.5700 15.6983 0.8205
66.5900 15.6850 0.8220
66.6100 15.6716 0.8182
66.6300 15.6583 0.8217
66.6500 15.6450 0.8162
66.6700 15.6317 0.8201
66.6900 15.6184 0.8166
66.7100 15.6051 0.8183
66.7300 15.5918 0.8146
66.7500 15.5784 0.8165
66.7700 15.5650 0.8147
66.7900 15.5517 0.8142
66.8100 15.5384 0.8145
66.8300 15.5251 0.8117
66.8500 15.5117 0.8128
66.8700 15.4983 0.8109
66.8900 15.4850 0.8123
66.9100 15.4717 0.8080
66.9300 15.4583 0.8123
66.9500 15.4450 0.8064
66.9700 15.4316 0.8107
66.9900 15.4183 0.8058
67.0100 15.4050 0.8090
67.0300 15.3917 0.8051
67.0500 15.3784 0.8071
67.0700 15.3651 0.8053
67.0900 15.3518 0.8044
67.1100 15.3385 0.8043
67.1300 15.3251 0.8027
67.1500 15.3117 0.8032
67.1700 15.2984 0.8012
67.1900 15.2850 0.8026
67.2100 15.2717 0.7989
67.2300 15.2583 0.8021
67.2500 15.2450 0.7980
67.2700 15.2317 0.8000
67.2900 15.2183 0.7969
67.3100 15.2050 0.7991
67.3300 15.1917 0.7957
67.3500 15.1784 0.7970
67.3700 15.1651 0.7960
67.3900 15.1517 0.7947
67.4100 15.1384 0.7949
67.4300 15.1251 0.7936
67.4500 15.1118 0.7934
67.4700 15.0984 0.7920
67.4900 15.0851 0.7926
67.5100 15.0717 0.7902
67.5300 15.0584 0.7916
67.5500 15.0451 0.7886
67.5700 15.0317 0.7906
67.5900 15.0183 0.7873
67.6100 15.0050 0.7896
67.6300 14.9917 0.7855
67.6500 14.9783 0.7877
67.6700 14.9650 0.7862
67.6900 14.9516 0.7851
67.7100 14.9383 0.7857
67.7300 14.9250 0.7836
67.7500 14.9117 0.7845
67.7700 14.8984 0.7816
67.7900 14.8851 0.7840
67.8100 14.8718 0.7792
67.8300 14.8584 0.7829
67.8500 14.8451 0.7793
67.8700 14.8317 0.7811
67.8900 14.8184 0.7773
67.9100 14.8051 0.7801
67.9300 14.7917 0.7755
67.9500 14.7783 0.7789
67.9700 14.7650 0.7762
67.9900 14.7517 0.7755
68.0100 14.7383 0.7757
68.0300 14.7250 0.7739
68.0500 14.7116 0.7754
68.0700 14.6983 0.7721
68.0900 14.6850 0.7745
68.1100 14.6717 0.7704
68.1300 14.6584 0.7730
68.1500 14.6450 0.7695
68.1700 14.6318 0.7710
68.1900 14.6184 0.7680
68.2100 14.6051 0.7703
68.2300 14.5917 0.7670
68.2500 14.5784 0.7680
68.2700 14.5651 0.7667
68.2900 14.5517 0.7661
68.3100 14.5383 0.7663
68.3300 14.5250 0.7644
68.3500 14.5117 0.7643
68.3700 14.4983 0.7630
68.3900 14.4850 0.7643
68.4100 14.4716 0.7611
68.4300 14.4583 0.7628
68.4500 14.4451 0.7605
68.4700 14.4317 0.7612
68.4900 14.4184 0.7589
68.5100 14.4050 0.7609
68.5300 14.3918 0.7569
68.5500 14.3784 0.7595
68.5700 14.3651 0.7562
68.5900 14.3517 0.7573
68.6100 14.3384 0.7558
68.6300 14.3251 0.7553
68.6500 14.3117 0.7545
68.6700 14.2983 0.7534
68.6900 14.2850 0.7548
68.7100 14.2716 0.7512
68.7300 14.2583 0.7535
68.7500 14.2450 0.7505
68.7700 14.2317 0.7527
68.7900 14.2184 0.7485
68.8100 14.2051 0.7515
68.8300 14.1917 0.7473
68.8500 14.1784 0.7501
68.8700 14.1651 0.7474
68.8900 14.1518 0.7476
68.9100 14.1384 0.7463
68.9300 14.1251 0.7455
68.9500 14.1117 0.7458
68.9700 14.0984 0.7428
68.9900 14.0850 0.7462
69.0100 14.0717 0.7404
69.0300 14.0583 0.7447
69.0500 14.0450 0.7399
69.0700 14.0317 0.7436
69.0900 14.0184 0.7391
69.1100 14.0050 0.7420
69.1300 13.9917 0.7380
69.1500 13.9783 0.7395
69.1700 13.9650 0.7379
69.1900 13.9517 0.7370
69.2100 13.9383 0.7376
69.2300 13.9250 0.7358
69.2500 13.9117 0.7362
69.2700 13.8984 0.7331
69.2900 13.8851 0.7368
69.3100 13.8717 0.7319
69.3300 13.8584 0.7355
69.3500 13.8451 0.7299
69.3700 13.8317 0.7335
69.3900 13.8183 0.7290
69.4100 13.8050 0.7328
69.4300 13.7917 0.7286
69.4500 13.7784 0.7297
69.4700 13.7650 0.7285
69.4900 13.7516 0.7281
69.5100 13.7383 0.7271
69.5300 13.7250 0.7270
69.5500 13.7117 0.7270
69.5700 13.6983 0.7242
69.5900 13.6850 0.7265
69.6100 13.6717 0.7225
69.6300 13.6584 0.7252
69.6500 13.6451 0.7213
69.6700 13.6317 0.7240
69.6900 13.6184 0.7193
69.7100 13.6051 0.7232
69.7300 13.5917 0.7186
69.7500 13.5784 0.7207
69.7700 13.5650 0.7178
69.7900 13.5517 0.7191
69.8100 13.5383 0.7161
69.8300 13.5250 0.7176
69.8500 13.5116 0.7165
69.8700 13.4983 0.7147
69.8900 13.4850 0.7167
69.9100 13.4717 0.7123
69.9300 13.4584 0.7153
69.9500 13.4450 0.7116
69.9700 13.4318 0.7141
69.9900 13.4185 0.7091
70.0100 13.4051 0.7137
70.0300 13.3917 0.7083
70.0500 13.3784 0.7108
70.0700 13.3651 0.7082
70.0900 13.3517 0.7088
70.1100 13.3384 0.7069
70.1300 13.3250 0.7072
70.1500 13.3117 0.7068
70.1700 13.2984 0.7051
70.1900 13.2850 0.7064
70.2100 13.2717 0.7036
70.2300 13.2583 0.7055
70.2500 13.2450 0.7023
70.2700 13.2318 0.7046
70.2900 13.2184 0.6994
70.3100 13.2051 0.7046
70.3300 13.1918 0.6984
70.3500 13.1784 0.7021
70.3700 13.1651 0.6985
70.3900 13.1517 0.6999
70.4100 13.1384 0.6975
70.4300 13.1250 0.6979
70.4500 13.1117 0.6965
70.4700 13.0983 0.6960
70.4900 13.0849 0.6966
70.5100 13.0717 0.6944
70.5300 13.0584 0.6950
70.5500 13.0450 0.6931
70.5700 13.0317 0.6946
70.5900 13.0183 0.6902
70.6100 13.0050 0.6945
70.6300 12.9917 0.6894
70.6500 12.9784 0.6915
70.6700 12.9650 0.6893
70.6900 12.9517 0.6902
70.7100 12.9384 0.6877
70.7300 12.9251 0.6893
70.7500 12.9117 0.6867
70.7700 12.8984 0.6868
70.7900 12.8851 0.6862
70.8100 12.8717 0.6848
70.8300 12.8583 0.6850
70.8500 12.8450 0.6835
70.8700 12.8317 0.6847
70.8900 12.8184 0.6809
70.9100 12.8050 0.6840
70.9300 12.7916 0.6804
70.9500 12.7783 0.6820
70.9700 12.7650 0.6787
70.9900 12.7517 0.6812
71.0100 12.7384 0.6768
71.0300 12.7250 0.6795
71.0500 12.7117 0.6769
71.0700 12.6984 0.6765
71.0900 12.6851 0.6770
71.1100 12.6717 0.6748
71.1300 12.6583 0.6758
71.1500 12.6450 0.6727
71.1700 12.6317 0.6757
71.1900 12.6184 0.6695
71.2100 12.6050 0.6759
71.2300 12.5917 0.6683
71.2500 12.5784 0.6736
71.2700 12.5650 0.6673
71.2900 12.5517 0.6724
71.3100 12.5383 0.6665
71.3300 12.5251 0.6701
71.3500 12.5117 0.6664
71.3700 12.4984 0.6670
71.3900 12.4850 0.6664
71.4100 12.4717 0.6661
71.4300 12.4584 0.6647
71.4500 12.4451 0.6644
71.4700 12.4317 0.6648
71.4900 12.4184 0.6613
71.5100 12.4051 0.6644
71.5300 12.3917 0.6600
71.5500 12.3784 0.6625
71.5700 12.3650 0.6586
71.5900 12.3517 0.6622
71.6100 12.3383 0.6566
71.6300 12.3250 0.6603
71.6500 12.3116 0.6569
71.6700 12.2983 0.6582
71.6900 12.2850 0.6564
71.7100 12.2717 0.6568
71.7300 12.2584 0.6544
71.7500 12.2450 0.6551
71.7700 12.2317 0.6550
71.7900 12.2184 0.6521
71.8100 12.2051 0.6544
71.8300 12.1917 0.6510
71.8500 12.1784 0.6525
71.8700 12.1651 0.6490
71.8900 12.1517 0.6521
71.9100 12.1384 0.6461
71.9300 12.1250 0.6512
71.9500 12.1116 0.6467
71.9700 12.0983 0.6481
71.9900 12.0850 0.6456
72.0100 12.0716 0.6468
72.0300 12.0583 0.6444
72.0500 12.0450 0.6448
72.0700 12.0317 0.6453
72.0900 12.0184 0.6419
72.1100 12.0050 0.6447
72.1300 11.9917 0.6393
72.1500 11.9784 0.6445
72.1700 11.9651 0.6380
72.1900 11.9517 0.6439
72.2100 11.9384 0.6357
72.2300 11.9251 0.6419
72.2500 11.9117 0.6354
72.2700 11.8984 0.6397
72.2900 11.8850 0.6351
72.3100 11.8717 0.6379
72.3300 11.8584 0.6345
72.3500 11.8450 0.6344
72.3700 11.8316 0.6357
72.3900 11.8183 0.6322
72.4100 11.8050 0.6346
72.4300 11.7917 0.6308
72.4500 11.7784 0.6328
72.4700 11.7650 0.6296
72.4900 11.7517 0.6321
72.5100 11.7384 0.6274
72.5300 11.7251 0.6309
72.5500 11.7117 0.6273
72.5700 11.6984 0.6281
72.5900 11.6851 0.6262
72.6100 11.6718 0.6268
72.6300 11.6584 0.6251
72.6500 11.6450 0.6245
72.6700 11.6317 0.6254
72.6900 11.6184 0.6224
72.7100 11.6051 0.6239
72.7300 11.5917 0.6217
72.7500 11.5783 0.6220
72.7700 11.5650 0.6209
72.7900 11.5517 0.6214
72.8100 11.5384 0.6180
72.8300 11.5250 0.6208
72.8500 11.5117 0.6169
72.8700 11.4984 0.6194
72.8900 11.4851 0.6147
72.9100 11.4717 0.6183
72.9300 11.4584 0.6141
72.9500 11.4451 0.6156
72.9700 11.4317 0.6145
72.9900 11.4184 0.6125
73.0100 11.4050 0.6139
73.0300 11.3917 0.6117
73.0500 11.3784 0.6125
73.0700 11.3650 0.6091
73.0900 11.3517 0.6130
73.1100 11.3383 0.6065
73.1300 11.3250 0.6117
73.1500 11.3117 0.6060
73.1700 11.2983 0.6101
73.1900 11.2850 0.6046
73.2100 11.2717 0.6086
73.2300 11.2584 0.6041
73.2500 11.2451 0.6057
73.2700 11.2317 0.6048
73.2900 11.2184 0.6027
73.3100 11.2051 0.6040
73.3300 11.1917 0.6011
73.3500 11.1784 0.6029
73.3700 11.1650 0.5992
73.3900 11.1517 0.6028
73.4100 11.1384 0.5975
73.4300 11.1250 0.6008
73.4500 11.1117 0.5965
73.4700 11.0983 0.5995
73.4900 11.0850 0.5956
73.5100 11.0717 0.5977
73.5300 11.0583 0.5950
73.5500 11.0450 0.5950
73.5700 11.0317 0.5955
73.5900 11.0184 0.5923
73.6100 11.0051 0.5945
73.6300 10.9917 0.5921
73.6500 10.9784 0.5928
73.6700 10.9651 0.5896
73.6900 10.9518 0.5924
73.7100 10.9384 0.5879
73.7300 10.9250 0.5903
73.7500 10.9117 0.5877
73.7700 10.8983 0.5886
73.7900 10.8850 0.5855
73.8100 10.8716 0.5882
73.8300 10.8583 0.5839
73.8500 10.8450 0.5856
73.8700 10.8317 0.5836
73.8900 10.8184 0.5846
73.9100 10.8051 0.5823
73.9300 10.7917 0.5837
73.9500 10.7784 0.5812
73.9700 10.7651 0.5804
73.9900 10.7518 0.5816
74.0100 10.7384 0.5780
74.0300 10.7251 0.5804
74.0500 10.7117 0.5769
74.0700 10.6984 0.5785
74.0900 10.6850 0.5742
74.1100 10.6716 0.5790
74.1300 10.6583 0.5732
74.1500 10.6450 0.5758
74.1700 10.6317 0.5734
74.1900 10.6183 0.5743
74.2100 10.6050 0.5719
74.2300 10.5917 0.5722
74.2500 10.5784 0.5725
74.2700 10.5650 0.5686
74.2900 10.5517 0.5718
74.3100 10.5384 0.5667
74.3300 10.5251 0.5706
74.3500 10.5117 0.5657
74.3700 10.4984 0.5694
74.3900 10.4850 0.5640
74.4100 10.4717 0.5675
74.4300 10.4584 0.5638
74.4500 10.4450 0.5649
74.4700 10.4317 0.5637
74.4900 10.4184 0.5633
74.5100 10.4050 0.5622
74.5300 10.3917 0.5621
74.5500 10.3783 0.5620
74.5700 10.3650 0.5594
74.5900 10.3517 0.5618
74.6100 10.3384 0.5579
74.6300 10.3250 0.5602
74.6500 10.3117 0.5573
74.6700 10.2984 0.5584
74.6900 10.2851 0.5551
74.7100 10.2718 0.5569
74.7300 10.2584 0.5544
74.7500 10.2450 0.5549
74.7700 10.2317 0.5535
74.7900 10.2184 0.5538
74.8100 10.2050 0.5507
74.8300 10.1917 0.5534
74.8500 10.1783 0.5503
74.8700 10.1650 0.5501
74.8900 10.1517 0.5504
74.9100 10.1383 0.5481
74.9300 10.1250 0.5493
74.9500 10.1117 0.5465
74.9700 10.0983 0.5485
74.9900 10.0850 0.5443
75.0100 10.0717 0.5474
75.0300 10.0584 0.5425
75.0500 10.0451 0.5453
75.0700 10.0317 0.5420
75.0900 10.0184 0.5453
75.1100 10.0051 0.5399
75.1300 9.9918 0.5428
75.1500 9.9784 0.5398
75.1700 9.9650 0.5396
75.1900 9.9517 0.5400
75.2100 9.9383 0.5373
75.2300 9.9250 0.5389
75.2500 9.9117 0.5354
75.2700 9.8983 0.5393
75.2900 9.8849 0.5333
75.3100 9.8717 0.5384
75.3300 9.8584 0.5321
75.3500 9.8450 0.5356
75.3700 9.8317 0.5325
75.3900 9.8184 0.5332
75.4100 9.8051 0.5306
75.4300 9.7918 0.5320
75.4500 9.7784 0.5306
75.4700 9.7651 0.5286
75.4900 9.7518 0.5305
75.5100 9.7384 0.5272
75.5300 9.7250 0.5289
75.5500 9.7116 0.5258
75.5700 9.6983 0.5281
75.5900 9.6850 0.5229
75.6100 9.6717 0.5267
75.6300 9.6583 0.5230
75.6500 9.6450 0.5239
75.6700 9.6317 0.5222
75.6900 9.6184 0.5227
75.7100 9.6050 0.5194
75.7300 9.5917 0.5221
75.7500 9.5784 0.5194
75.7700 9.5651 0.5191
75.7900 9.5518 0.5188
75.8100 9.5384 0.5178
75.8300 9.5251 0.5175
75.8500 9.5117 0.5156
75.8700 9.4984 0.5172
75.8900 9.4850 0.5127
75.9100 9.4716 0.5165
75.9300 9.4583 0.5122
75.9500 9.4450 0.5144
75.9700 9.4317 0.5112
75.9900 9.4183 0.5135
76.0100 9.4050 0.5094
76.0300 9.3917 0.5120
76.0500 9.3784 0.5095
76.0700 9.3651 0.5100
76.0900 9.3517 0.5104
76.1100 9.3384 0.5091
76.1300 9.3251 0.5089
76.1500 9.3118 0.5053
76.1700 9.2984 0.5094
76.1900 9.2850 0.5017
76.2100 9.2717 0.5080
76.2300 9.2584 0.5005
76.2500 9.2450 0.5058
76.2700 9.2317 0.4996
76.2900 9.2183 0.5040
76.3100 9.2050 0.4985
76.3300 9.1917 0.5011
76.3500 9.1783 0.4993
76.3700 9.1650 0.4976
76.3900 9.1517 0.4987
76.4100 9.1384 0.4957
76.4300 9.1250 0.4979
76.4500 9.1117 0.4943
76.4700 9.0984 0.4979
76.4900 9.0851 0.4911
76.5100 9.0717 0.4960
76.5300 9.0584 0.4910
76.5500 9.0450 0.4938
76.5700 9.0317 0.4904
76.5900 9.0184 0.4919
76.6100 9.0050 0.4888
76.6300 8.9917 0.4891
76.6500 8.9783 0.4889
76.6700 8.9650 0.4869
76.6900 8.9517 0.4879
76.7100 8.9383 0.4857
76.7300 8.9250 0.4868
76.7500 8.9117 0.4838
76.7700 8.8984 0.4856
76.7900 8.8850 0.4821
76.8100 8.8717 0.4839
76.8300 8.8584 0.4803
76.8500 8.8451 0.4820
76.8700 8.8317 0.4788
76.8900 8.8184 0.4810
76.9100 8.8050 0.4773
76.9300 8.7917 0.4786
76.9500 8.7784 0.4774
76.9700 8.7650 0.4763
76.9900 8.7517 0.4763
77.0100 8.7383 0.4754
77.0300 8.7250 0.4749
77.0500 8.7117 0.4727
77.0700 8.6983 0.4747
77.0900 8.6850 0.4709
77.1100 8.6717 0.4734
77.1300 8.6584 0.4695
77.1500 8.6450 0.4715
77.1700 8.6317 0.4678
77.1900 8.6184 0.4708
77.2100 8.6051 0.4664
77.2300 8.5918 0.4685
77.2500 8.5784 0.4664
77.2700 8.5650 0.4655
77.2900 8.5517 0.4658
77.3100 8.5384 0.4644
77.3300 8.5250 0.4644
77.3500 8.5116 0.4618
77.3700 8.4983 0.4640
77.3900 8.4850 0.4596
77.4100 8.4717 0.4622
77.4300 8.4583 0.4583
77.4500 8.4450 0.4604
77.4700 8.4317 0.4561
77.4900 8.4184 0.4601
77.5100 8.4051 0.4554
77.5300 8.3917 0.4571
77.5500 8.3784 0.4551
77.5700 8.3651 0.4539
77.5900 8.3518 0.4545
77.6100 8.3384 0.4522
77.6300 8.3250 0.4536
77.6500 8.3117 0.4499
77.6700 8.2984 0.4522
77.6900 8.2850 0.4485
77.7100 8.2716 0.4504
77.7300 8.2583 0.4484
77.7500 8.2450 0.4481
77.7700 8.2317 0.4466
77.7900 8.2183 0.4477
77.8100 8.2050 0.4454
77.8300 8.1917 0.4450
77.8500 8.1784 0.4444
77.8700 8.1650 0.4435
77.8900 8.1517 0.4428
77.9100 8.1384 0.4422
77.9300 8.1251 0.4416
77.9500 8.1118 0.4400
77.9700 8.0984 0.4410
77.9900 8.0850 0.4379
78.0100 8.0717 0.4388
78.0300 8.0584 0.4375
78.0500 8.0450 0.4371
78.0700 8.0317 0.4351
78.0900 8.0183 0.4374
78.1100 8.0050 0.4330
78.1300 7.9917 0.4351
78.1500 7.9783 0.4324
78.1700 7.9650 0.4331
78.1900 7.9517 0.4309
78.2100 7.9384 0.4312
78.2300 7.9251 0.4305
78.2500 7.9117 0.4280
78.2700 7.8984 0.4299
78.2900 7.8851 0.4264
78.3100 7.8717 0.4286
78.3300 7.8584 0.4253
78.3500 7.8450 0.4274
78.3700 7.8317 0.4228
78.3900 7.8184 0.4263
78.4100 7.8051 0.4214
78.4300 7.7917 0.4233
78.4500 7.7783 0.4217
78.4700 7.7650 0.4205
78.4900 7.7517 0.4201
78.5100 7.7384 0.4197
78.5300 7.7250 0.4201
78.5500 7.7117 0.4167
78.5700 7.6984 0.4189
78.5900 7.6850 0.4150
78.6100 7.6717 0.4172
78.6300 7.6584 0.4142
78.6500 7.6451 0.4154
78.6700 7.6318 0.4120
78.6900 7.6184 0.4142
78.7100 7.6051 0.4115
78.7300 7.5917 0.4114
78.7500 7.5784 0.4109
78.7700 7.5650 0.4099
78.7900 7.5517 0.4089
78.8100 7.5383 0.4088
78.8300 7.5250 0.4080
78.8500 7.5117 0.4057
78.8700 7.4983 0.4069
78.8900 7.4849 0.4044
78.9100 7.4716 0.4056
78.9300 7.4583 0.4031
78.9500 7.4450 0.4040
78.9700 7.4317 0.4007
78.9900 7.4183 0.4038
79.0100 7.4051 0.3996
79.0300 7.3918 0.4008
79.0500 7.3784 0.3995
79.0700 7.3650 0.3988
79.0900 7.3517 0.3972
79.1100 7.3384 0.3974
79.1300 7.3251 0.3960
79.1500 7.3117 0.3948
79.1700 7.2983 0.3958
79.1900 7.2850 0.3933
79.2100 7.2716 0.3936
79.2300 7.2583 0.3919
79.2500 7.2449 0.3935
79.2700 7.2316 0.3883
79.2900 7.2183 0.3930
79.3100 7.2050 0.3875
79.3300 7.1917 0.3905
79.3500 7.1784 0.3866
79.3700 7.1651 0.3881
79.3900 7.1518 0.3852
79.4100 7.1384 0.3865
79.4300 7.1250 0.3851
79.4500 7.1117 0.3836
79.4700 7.0984 0.3840
79.4900 7.0851 0.3812
79.5100 7.0717 0.3832
79.5300 7.0583 0.3794
79.5500 7.0450 0.3825
79.5700 7.0317 0.3768
79.5900 7.0183 0.3810
79.6100 7.0050 0.3769
79.6300 6.9917 0.3786
79.6500 6.9784 0.3766
79.6700 6.9650 0.3759
79.6900 6.9517 0.3751
79.7100 6.9384 0.3748
79.7300 6.9251 0.3741
79.7500 6.9118 0.3718
79.7700 6.8984 0.3733
79.7900 6.8851 0.3700
79.8100 6.8718 0.3714
79.8300 6.8584 0.3680
79.8500 6.8451 0.3709
79.8700 6.8317 0.3653
79.8900 6.8183 0.3695
79.9100 6.8050 0.3655
79.9300 6.7917 0.3664
79.9500 6.7784 0.3652
79.9700 6.7650 0.3650
79.9900 6.7516 0.3636
80.0100 6.7383 0.3630
80.0300 6.7250 0.3621
80.0500 6.7117 0.3602
80.0700 6.6983 0.3617
80.0900 6.6850 0.3589
80.1100 6.6717 0.3596
80.1300 6.6584 0.3574
80.1500 6.6450 0.3595
80.1700 6.6317 0.3555
80.1900 6.6184 0.3586
80.2100 6.6051 0.3535
80.2300 6.5917 0.3549
80.2500 6.5783 0.3530
80.2700 6.5650 0.3535
80.2900 6.5517 0.3517
80.3100 6.5383 0.3510
80.3300 6.5250 0.3517
80.3500 6.5116 0.3485
80.3700 6.4983 0.3511
80.3900 6.4850 0.3468
80.4100 6.4717 0.3490
80.4300 6.4583 0.3454
80.4500 6.4450 0.3481
80.4700 6.4318 0.3423
80.4900 6.4184 0.3465
80.5100 6.4051 0.3425
80.5300 6.3917 0.3436
80.5500 6.3784 0.3417
80.5700 6.3651 0.3414
80.5900 6.3517 0.3406
80.6100 6.3384 0.3394
80.6300 6.3250 0.3404
80.6500 6.3117 0.3356
80.6700 6.2984 0.3390
80.6900 6.2850 0.3341
80.7100 6.2716 0.3376
80.7300 6.2583 0.3321
80.7500 6.2450 0.3367
80.7700 6.2317 0.3302
80.7900 6.2183 0.3354
80.8100 6.2050 0.3306
80.8300 6.1918 0.3331
80.8500 6.1785 0.3292
80.8700 6.1651 0.3308
80.8900 6.1517 0.3284
80.9100 6.1384 0.3275
80.9300 6.1251 0.3283
80.9500 6.1117 0.3243
80.9700 6.0984 0.3277
80.9900 6.0850 0.3240
81.0100 6.0717 0.3258
81.0300 6.0583 0.3213
81.0500 6.0450 0.3254
81.0700 6.0316 0.3203
81.0900 6.0183 0.3220
81.1100 6.0050 0.3198
81.1300 5.9917 0.3199
81.1500 5.9784 0.3188
81.1700 5.9651 0.3185
81.1900 5.9518 0.3180
81.2100 5.9384 0.3166
81.2300 5.9251 0.3173
81.2500 5.9117 0.3136
81.2700 5.8984 0.3153
81.2900 5.8851 0.3122
81.3100 5.8717 0.3134
81.3300 5.8583 0.3103
81.3500 5.8449 0.3122
81.3700 5.8316 0.3091
81.3900 5.8183 0.3101
81.4100 5.8050 0.3089
81.4300 5.7916 0.3085
81.4500 5.7783 0.3079
81.4700 5.7650 0.3065
81.4900 5.7517 0.3060
81.5100 5.7384 0.3037
81.5300 5.7251 0.3058
81.5500 5.7118 0.3010
81.5700 5.6984 0.3033
81.5900 5.6851 0.3003
81.6100 5.6717 0.3026
81.6300 5.6583 0.2977
81.6500 5.6450 0.3017
81.6700 5.6317 0.2970
81.6900 5.6183 0.2990
81.7100 5.6050 0.2967
81.7300 5.5917 0.2960
81.7500 5.5783 0.2950
81.7700 5.5650 0.2950
81.7900 5.5516 0.2934
81.8100 5.5383 0.2923
81.8300 5.5250 0.2930
81.8500 5.5117 0.2905
81.8700 5.4984 0.2922
81.8900 5.4851 0.2894
81.9100 5.4718 0.2910
81.9300 5.4585 0.2864
81.9500 5.4451 0.2896
81.9700 5.4317 0.2850
81.9900 5.4184 0.2865
82.0100 5.4050 0.2847
82.0300 5.3917 0.2840
82.0500 5.3783 0.2836
82.0700 5.3650 0.2824
82.0900 5.3517 0.2829
82.1100 5.3383 0.2796
82.1300 5.3250 0.2824
82.1500 5.3116 0.2774
82.1700 5.2983 0.2804
82.1900 5.2850 0.2753
82.2100 5.2717 0.2795
82.2300 5.2584 0.2733
82.2500 5.2451 0.2780
82.2700 5.2318 0.2720
82.2900 5.2184 0.2754
82.3100 5.2051 0.2729
82.3300 5.1917 0.2734
82.3500 5.1784 0.2718
82.3700 5.1651 0.2714
82.3900 5.1517 0.2709
82.4100 5.1383 0.2690
82.4300 5.1250 0.2699
82.4500 5.1117 0.2669
82.4700 5.0983 0.2679
82.4900 5.0850 0.2650
82.5100 5.0716 0.2675
82.5300 5.0583 0.2625
82.5500 5.0450 0.2671
82.5700 5.0317 0.2613
82.5900 5.0184 0.2646
82.6100 5.0051 0.2619
82.6300 4.9918 0.2620
82.6500 4.9785 0.2592
82.6700 4.9651 0.2601
82.6900 4.9517 0.2581
82.7100 4.9384 0.2567
82.7300 4.9251 0.2578
82.7500 4.9117 0.2557
82.7700 4.8983 0.2570
82.7900 4.8849 0.2551
82.8100 4.8716 0.2561
82.8300 4.8583 0.2518
82.8500 4.8450 0.2552
82.8700 4.8316 0.2497
82.8900 4.8183 0.2522
82.9100 4.8050 0.2486
82.9300 4.7917 0.2498
82.9500 4.7784 0.2470
82.9700 4.7650 0.2486
82.9900 4.7517 0.2470
83.0100 4.7384 0.2460
83.0300 4.7251 0.2466
83.0500 4.7118 0.2437
83.0700 4.6984 0.2453
83.0900 4.6851 0.2415
83.1100 4.6717 0.2436
83.1300 4.6583 0.2383
83.1500 4.6449 0.2430
83.1700 4.6316 0.2369
83.1900 4.6183 0.2415
83.2100 4.6050 0.2364
83.2300 4.5916 0.2399
83.2500 4.5783 0.2345
83.2700 4.5651 0.2374
83.2900 4.5517 0.2344
83.3100 4.5384 0.2341
83.3300 4.5251 0.2338
83.3500 4.5118 0.2318
83.3700 4.4985 0.2316
83.3900 4.4851 0.2301
83.4100 4.4717 0.2309
83.4300 4.4584 0.2275
83.4500 4.4451 0.2303
83.4700 4.4317 0.2269
83.4900 4.4183 0.2276
83.5100 4.4050 0.2254
83.5300 4.3917 0.2253
83.5500 4.3784 0.2228
83.5700 4.3650 0.2239
83.5900 4.3516 0.2223
83.6100 4.3383 0.2215
83.6300 4.3250 0.2211
83.6500 4.3117 0.2200
83.6700 4.2984 0.2197
83.6900 4.2850 0.2192
83.7100 4.2717 0.2187
83.7300 4.2584 0.2158
83.7500 4.2451 0.2167
83.7700 4.2317 0.2140
83.7900 4.2184 0.2145
83.8100 4.2050 0.2122
83.8300 4.1917 0.2132
83.8500 4.1783 0.2096
83.8700 4.1650 0.2121
83.8900 4.1517 0.2086
83.9100 4.1384 0.2106
83.9300 4.1250 0.2085
83.9500 4.1116 0.2084
83.9700 4.0983 0.2066
83.9900 4.0850 0.2053
84.0100 4.0717 0.2063
84.0300 4.0583 0.2024
84.0500 4.0450 0.2051
84.0700 4.0317 0.2003
84.0900 4.0184 0.2028
84.1100 4.0051 0.1985
84.1300 3.9917 0.2026
84.1500 3.9784 0.1968
84.1700 3.9651 0.2010
84.1900 3.9517 0.1962
84.2100 3.9384 0.1987
84.2300 3.9250 0.1956
84.2500 3.9117 0.1956
84.2700 3.8984 0.1942
84.2900 3.8850 0.1924
84.3100 3.8716 0.1940
84.3300 3.8583 0.1895
84.3500 3.8450 0.1926
84.3700 3.8317 0.1882
84.3900 3.8184 0.1910
84.4100 3.8050 0.1878
84.4300 3.7917 0.1898
84.4500 3.7784 0.1847
84.4700 3.7651 0.1876
84.4900 3.7517 0.1839
84.5100 3.7384 0.1848
84.5300 3.7251 0.1824
84.5500 3.7117 0.1823
84.5700 3.6983 0.1815
84.5900 3.6850 0.1802
84.6100 3.6716 0.1817
84.6300 3.6583 0.1778
84.6500 3.6450 0.1803
84.6700 3.6316 0.1771
84.6900 3.6183 0.1779
84.7100 3.6050 0.1746
84.7300 3.5917 0.1762
84.7500 3.5784 0.1724
84.7700 3.5651 0.1754
84.7900 3.5518 0.1712
84.8100 3.5385 0.1731
84.8300 3.5251 0.1699
84.8500 3.5117 0.1715
84.8700 3.4984 0.1691
84.8900 3.4850 0.1687
84.9100 3.4717 0.1686
84.9300 3.4583 0.1651
84.9500 3.4450 0.1679
84.9700 3.4317 0.1627
84.9900 3.4184 0.1656
85.0100 3.4050 0.1602
85.0300 3.3917 0.1641
85.0500 3.3784 0.1586
85.0700 3.3650 0.1632
85.0900 3.3517 0.1588
85.1100 3.3384 0.1612
85.1300 3.3251 0.1575
85.1500 3.3118 0.1591
85.1700 3.2985 0.1554
85.1900 3.2851 0.1555
85.2100 3.2717 0.1561
85.2300 3.2583 0.1514
85.2500 3.2450 0.1547
85.2700 3.2317 0.1502
85.2900 3.2184 0.1539
85.3100 3.2050 0.1493
85.3300 3.1917 0.1525
85.3500 3.1784 0.1463
85.3700 3.1650 0.1491
85.3900 3.1517 0.1458
85.4100 3.1383 0.1466
85.4300 3.1250 0.1442
85.4500 3.1117 0.1447
85.4700 3.0984 0.1437
85.4900 3.0850 0.1431
85.5100 3.0717 0.1441
85.5300 3.0584 0.1402
85.5500 3.0451 0.1424
85.5700 3.0317 0.1381
85.5900 3.0183 0.1397
85.6100 3.0050 0.1359
85.6300 2.9917 0.1385
85.6500 2.9784 0.1339
85.6700 2.9650 0.1361
85.6900 2.9517 0.1345
85.7100 2.9384 0.1345
85.7300 2.9250 0.1329
85.7500 2.9117 0.1328
85.7700 2.8983 0.1314
85.7900 2.8850 0.1299
85.8100 2.8717 0.1300
85.8300 2.8584 0.1273
85.8500 2.8450 0.1279
85.8700 2.8317 0.1262
85.8900 2.8184 0.1265
85.9100 2.8051 0.1243
85.9300 2.7918 0.1252
85.9500 2.7784 0.1230
85.9700 2.7651 0.1225
85.9900 2.7517 0.1219
86.0100 2.7384 0.1208
86.0300 2.7250 0.1199
86.0500 2.7116 0.1187
86.0700 2.6983 0.1181
86.0900 2.6850 0.1163
86.1100 2.6716 0.1174
86.1300 2.6583 0.1143
86.1500 2.6450 0.1162
86.1700 2.6317 0.1126
86.1900 2.6184 0.1151
86.2100 2.6050 0.1097
86.2300 2.5917 0.1143
86.2500 2.5784 0.1082
86.2700 2.5651 0.1108
86.2900 2.5517 0.1069
86.3100 2.5384 0.1081
86.3300 2.5250 0.1065
86.3500 2.5117 0.1050
86.3700 2.4984 0.1060
86.3900 2.4850 0.1024
86.4100 2.4717 0.1058
86.4300 2.4583 0.1002
86.4500 2.4450 0.1036
86.4700 2.4316 0.0990
86.4900 2.4183 0.1018
86.5100 2.4050 0.0963
86.5300 2.3917 0.0999
86.5500 2.3784 0.0954
86.5700 2.3650 0.0977
86.5900 2.3517 0.0937
86.6100 2.3384 0.0952
86.6300 2.3251 0.0946
86.6500 2.3118 0.0925
86.6700 2.2984 0.0937
86.6900 2.2850 0.0890
86.7100 2.2717 0.0919
86.7300 2.2584 0.0868
86.7500 2.2450 0.0904
86.7700 2.2317 0.0858
86.7900 2.2184 0.0891
86.8100 2.2050 0.0833
86.8300 2.1917 0.0877
86.8500 2.1783 0.0824
86.8700 2.1650 0.0855
86.8900 2.1517 0.0808
86.9100 2.1383 0.0829
86.9300 2.1250 0.0798
86.9500 2.1117 0.0799
86.9700 2.0984 0.0795
86.9900 2.0851 0.0759
87.0100 2.0717 0.0791
87.0300 2.0584 0.0756
87.0500 2.0450 0.0763
87.0700 2.0317 0.0734
87.0900 2.0184 0.0746
87.1100 2.0050 0.0705
87.1300 1.9917 0.0737
87.1500 1.9784 0.0683
87.1700 1.9651 0.0721
87.1900 1.9517 0.0669
87.2100 1.9384 0.0708
87.2300 1.9250 0.0653
87.2500 1.9117 0.0691
87.2700 1.8984 0.0648
87.2900 1.8850 0.0662
87.3100 1.8717 0.0642
87.3300 1.8584 0.0639
87.3500 1.8451 0.0624
87.3700 1.8317 0.0606
87.3900 1.8184 0.0620
87.4100 1.8051 0.0578
87.4300 1.7918 0.0606
87.4500 1.7784 0.0555
87.4700 1.7650 0.0589
87.4900 1.7517 0.0542
87.5100 1.7384 0.0576
87.5300 1.7250 0.0528
87.5500 1.7117 0.0552
87.5700 1.6983 0.0528
87.5900 1.6850 0.0515
87.6100 1.6717 0.0517
87.6300 1.6584 0.0496
87.6500 1.6450 0.0499
87.6700 1.6317 0.0465
87.6900 1.6184 0.0478
87.7100 1.6051 0.0442
87.7300 1.5917 0.0465
87.7500 1.5784 0.0434
87.7700 1.5650 0.0433
87.7900 1.5517 0.0410
87.8100 1.5384 0.0420
87.8300 1.5250 0.0399
87.8500 1.5117 0.0403
87.8700 1.4984 0.0387
87.8900 1.4850 0.0372
87.9100 1.4717 0.0362
87.9300 1.4583 0.0365
87.9500 1.4450 0.0347
87.9700 1.4317 0.0350
87.9900 1.4183 0.0338
88.0100 1.4050 0.0320
88.0300 1.3917 0.0336
88.0500 1.3784 0.0315
88.0700 1.3651 0.0310
88.0900 1.3518 0.0288
88.1100 1.3384 0.0297
88.1300 1.3251 0.0267
88.1500 1.3117 0.0282
88.1700 1.2984 0.0249
88.1900 1.2850 0.0257
88.2100 1.2717 0.0228
88.2300 1.2583 0.0242
88.2500 1.2450 0.0210
88.2700 1.2317 0.0210
88.2900 1.2183 0.0197
88.3100 1.2050 0.0184
88.3300 1.1917 0.0191
88.3500 1.1784 0.0164
88.3700 1.1650 0.0174
88.3900 1.1517 0.0131
88.4100 1.1384 0.0158
88.4300 1.1251 0.0101
88.4500 1.1118 0.0136
88.4700 1.0984 0.0092
88.4900 1.0850 0.0112
88.5100 1.0717 0.0069
88.5300 1.0584 0.0083
88.5500 1.0450 0.0061
88.5700 1.0316 0.0056
88.5900 1.0183 0.0063
88.6100 1.0050 0.0012
88.6300 0.9917 0.0046
88.6500 0.9783 -0.0008
88.6700 0.9650 0.0034
88.6900 0.9517 -0.0024
88.7100 0.9384 0.0023
88.7300 0.9250 -0.0025
88.7500 0.9117 0.0001
88.7700 0.8984 -0.0032
88.7900 0.8851 -0.0016
88.8100 0.8718 -0.0034
88.8300 0.8584 -0.0033
88.8500 0.8450 -0.0042
88.8700 0.8317 -0.0053
88.8900 0.8184 -0.0046
88.9100 0.8050 -0.0078
88.9300 0.7916 -0.0060
88.9500 0.7783 -0.0092
88.9700 0.7650 -0.0081
88.9900 0.7517 -0.0123
89.0100 0.7383 -0.0095
89.0300 0.7250 -0.0144
89.0500 0.7117 -0.0125
89.0700 0.6984 -0.0162
89.0900 0.6850 -0.0150
89.1100 0.6717 -0.0186
89.1300 0.6584 -0.0169
89.1500 0.6451 -0.0211
89.1700 0.6318 -0.0196
89.1900 0.6184 -0.0215
89.2100 0.6050 -0.0228
89.2300 0.5917 -0.0222
89.2500 0.5784 -0.0256
89.2700 0.5650 -0.0238
89.2900 0.5517 -0.0279
89.3100 0.5383 -0.0247
89.3300 0.5250 -0.0293
89.3500 0.5117 -0.0266
89.3700 0.4983 -0.0306
89.3900 0.4850 -0.0290
89.4100 0.4717 -0.0318
89.4300 0.4583 -0.0301
89.4500 0.4450 -0.0323
89.4700 0.4317 -0.0326
89.4900 0.4184 -0.0320
89.5100 0.4051 -0.0354
89.5300 0.3917 -0.0322
89.5500 0.3784 -0.0361
89.5700 0.3651 -0.0308
89.5900 0.3518 -0.0378
89.6100 0.3384 -0.0305
89.6300 0.3250 -0.0372
89.6500 0.3117 -0.0313
89.6700 0.2983 -0.0352
89.6900 0.2850 -0.0329
89.7100 0.2717 -0.0343
89.7300 0.2583 -0.0336
89.7500 0.2449 -0.0335
89.7700 0.2316 -0.0352
89.7900 0.2183 -0.0324
89.8100 0.2050 -0.0349
89.8300 0.1917 -0.0328
89.8500 0.1784 -0.0346
89.8700 0.1651 -0.0327
89.8900 0.1518 -0.0352
89.9100 0.1384 -0.0326
89.9300 0.1250 -0.0345
89.9500 0.1117 -0.0338
89.9700 0.0984 -0.0343
89.9900 0.0850 -0.0344
90.0100 0.0716 -0.0335
90.0300 0.0583 -0.0335
90.0500 0.0450 -0.0336
90.0700 0.0317 -0.0342
90.0900 0.0183 -0.0340
90.1100 0.0050 -0.0324
90.1180 -0.0002 -0.0281
