Raw Data
Time Displacement Force
(s) (mm) (N)
0.0000 0.0000 -0.0037
0.0200 0.0001 -0.0008
0.0400 0.0018 0.0096
0.0600 0.0088 0.0095
0.0800 0.0202 0.0022
0.1000 0.0325 0.0066
0.1200 0.0450 0.0072
0.1400 0.0584 0.0154
0.1600 0.0727 0.0112
0.1800 0.0870 0.0174
0.2000 0.1010 0.0154
0.2200 0.1146 0.0215
0.2400 0.1280 0.0218
0.2600 0.1413 0.0266
0.2800 0.1546 0.0272
0.3000 0.1679 0.0299
0.3200 0.1813 0.0330
0.3400 0.1947 0.0336
0.3600 0.2080 0.0376
0.3800 0.2213 0.0394
0.4000 0.2346 0.0433
0.4200 0.2480 0.0426
0.4400 0.2613 0.0478
0.4600 0.2746 0.0463
0.4800 0.2880 0.0521
0.5000 0.3013 0.0510
0.5200 0.3147 0.0560
0.5400 0.3281 0.0555
0.5600 0.3414 0.0604
0.5800 0.3547 0.0608
0.6000 0.3681 0.0634
0.6200 0.3814 0.0654
0.6400 0.3947 0.0672
0.6600 0.4080 0.0692
0.6800 0.4213 0.0720
0.7000 0.4346 0.0728
0.7200 0.4480 0.0752
0.7400 0.4613 0.0780
0.7600 0.4746 0.0799
0.7800 0.4880 0.0816
0.8000 0.5013 0.0839
0.8200 0.5147 0.0861
0.8400 0.5280 0.0867
0.8600 0.5414 0.0906
0.8800 0.5548 0.0907
0.9000 0.5681 0.0941
0.9200 0.5814 0.0945
0.9400 0.5947 0.0989
0.9600 0.6081 0.0976
0.9800 0.6214 0.1028
1.0000 0.6347 0.1013
1.0200 0.6480 0.1057
1.0400 0.6613 0.1060
1.0600 0.6746 0.1086
1.0800 0.6880 0.1096
1.1000 0.7013 0.1127
1.1200 0.7146 0.1146
1.1400 0.7280 0.1145
1.1600 0.7413 0.1193
1.1800 0.7547 0.1174
1.2000 0.7680 0.1229
1.2200 0.7813 0.1215
1.2400 0.7947 0.1265
1.2600 0.8080 0.1249
1.2800 0.8214 0.1302
1.3000 0.8347 0.1294
1.3200 0.8481 0.1331
1.3400 0.8614 0.1337
1.3600 0.8747 0.1362
1.3800 0.8880 0.1367
1.4000 0.9014 0.1399
1.4200 0.9147 0.1415
1.4400 0.9281 0.1426
1.4600 0.9413 0.1447
1.4800 0.9546 0.1477
1.5000 0.9679 0.1476
1.5200 0.9813 0.1510
1.5400 0.9946 0.1514
1.5600 1.0079 0.1537
1.5800 1.0213 0.1545
1.6000 1.0347 0.1576
1.6200 1.0481 0.1581
1.6400 1.0614 0.1610
1.6600 1.0747 0.1629
1.6800 1.0881 0.1623
1.7000 1.1015 0.1667
1.7200 1.1148 0.1665
1.7400 1.1280 0.1701
1.7600 1.1413 0.1702
1.7800 1.1547 0.1734
1.8000 1.1680 0.1736
1.8200 1.1813 0.1765
1.8400 1.1946 0.1781
1.8600 1.2079 0.1780
1.8800 1.2213 0.1819
1.9000 1.2346 0.1817
1.9200 1.2480 0.1851
1.9400 1.2614 0.1854
1.9600 1.2747 0.1898
1.9800 1.2881 0.1874
2.0000 1.3014 0.1928
2.0200 1.3147 0.1922
2.0400 1.3281 0.1955
2.0600 1.3414 0.1951
2.0800 1.3547 0.1987
2.1000 1.3680 0.1987
2.1200 1.3813 0.2012
2.1400 1.3947 0.2036
2.1600 1.4080 0.2026
2.1800 1.4213 0.2077
2.2000 1.4346 0.2066
2.2200 1.4480 0.2090
2.2400 1.4613 0.2101
2.2600 1.4747 0.2130
2.2800 1.4880 0.2130
2.3000 1.5013 0.2162
2.3200 1.5147 0.2162
2.3400 1.5281 0.2192
2.3600 1.5414 0.2192
2.3800 1.5547 0.2229
2.4000 1.5681 0.2214
2.4200 1.5814 0.2255
2.4400 1.5947 0.2250
2.4600 1.6080 0.2278
2.4800 1.6213 0.2288
2.5000 1.6346 0.2323
2.5200 1.6479 0.2305
2.5400 1.6612 0.2348
2.5600 1.6746 0.2347
2.5800 1.6879 0.2368
2.6000 1.7013 0.2380
2.6200 1.7147 0.2393
2.6400 1.7280 0.2416
2.6600 1.7414 0.2415
2.6800 1.7548 0.2458
2.7000 1.7681 0.2433
2.7200 1.7814 0.2481
2.7400 1.7947 0.2479
2.7600 1.8081 0.2505
2.7800 1.8214 0.2509
2.8000 1.8347 0.2538
2.8200 1.8480 0.2538
2.8400 1.8613 0.2557
2.8600 1.8747 0.2579
2.8800 1.8880 0.2573
2.9000 1.9013 0.2612
2.9200 1.9146 0.2601
2.9400 1.9280 0.2642
2.9600 1.9413 0.2626
2.9800 1.9547 0.2683
3.0000 1.9680 0.2653
3.0200 1.9813 0.2703
3.0400 1.9947 0.2690
3.0600 2.0081 0.2726
3.0800 2.0214 0.2721
3.1000 2.0347 0.2769
3.1200 2.0480 0.2745
3.1400 2.0614 0.2785
3.1600 2.0747 0.2781
3.1800 2.0880 0.2809
3.2000 2.1013 0.2812
3.2200 2.1147 0.2844
3.2400 2.1281 0.2828
3.2600 2.1414 0.2867
3.2800 2.1547 0.2869
3.3000 2.1680 0.2890
3.3200 2.1813 0.2899
3.3400 2.1947 0.2920
3.3600 2.2080 0.2925
3.3800 2.2213 0.2932
3.4000 2.2347 0.2971
3.4200 2.2480 0.2950
3.4400 2.2614 0.2995
3.4600 2.2747 0.2975
3.4800 2.2880 0.3024
3.5000 2.3014 0.2997
3.5200 2.3147 0.3055
3.5400 2.3280 0.3029
3.5600 2.3413 0.3078
3.5800 2.3547 0.3070
3.6000 2.3680 0.3083
3.6200 2.3813 0.3106
3.6400 2.3946 0.3111
3.6600 2.4079 0.3140
3.6800 2.4213 0.3123
3.7000 2.4346 0.3176
3.7200 2.4479 0.3146
3.7400 2.4613 0.3194
3.7600 2.4747 0.3176
3.7800 2.4881 0.3207
3.8000 2.5014 0.3210
3.8200 2.5148 0.3238
3.8400 2.5281 0.3234
3.8600 2.5414 0.3259
3.8800 2.5547 0.3277
3.9000 2.5680 0.3277
3.9200 2.5813 0.3300
3.9400 2.5946 0.3301
3.9600 2.6080 0.3329
3.9800 2.6213 0.3318
4.0000 2.6346 0.3365
4.0200 2.6480 0.3347
4.0400 2.6613 0.3380
4.0600 2.6747 0.3383
4.0800 2.6880 0.3400
4.1000 2.7013 0.3403
4.1200 2.7147 0.3431
4.1400 2.7281 0.3411
4.1600 2.7414 0.3455
4.1800 2.7547 0.3446
4.2000 2.7680 0.3489
4.2200 2.7814 0.3461
4.2400 2.7947 0.3517
4.2600 2.8080 0.3495
4.2800 2.8213 0.3531
4.3000 2.8347 0.3538
4.3200 2.8480 0.3549
4.3400 2.8613 0.3564
4.3600 2.8746 0.3578
4.3800 2.8880 0.3591
4.4000 2.9013 0.3588
4.4200 2.9147 0.3622
4.4400 2.9280 0.3598
4.4600 2.9414 0.3642
4.4800 2.9547 0.3624
4.5000 2.9681 0.3672
4.5200 2.9814 0.3653
4.5400 2.9947 0.3695
4.5600 3.0080 0.3686
4.5800 3.0214 0.3701
4.6000 3.0347 0.3726
4.6200 3.0480 0.3718
4.6400 3.0613 0.3752
4.6600 3.0747 0.3751
4.6800 3.0880 0.3782
4.7000 3.1013 0.3768
4.7200 3.1146 0.3816
4.7400 3.1280 0.3802
4.7600 3.1413 0.3825
4.7800 3.1547 0.3831
4.8000 3.1680 0.3859
4.8200 3.1814 0.3854
4.8400 3.1947 0.3882
4.8600 3.2081 0.3882
4.8800 3.2214 0.3894
4.9000 3.2347 0.3914
4.9200 3.2480 0.3919
4.9400 3.2613 0.3924
4.9600 3.2747 0.3943
4.9800 3.2880 0.3954
5.0000 3.3013 0.3964
5.0200 3.3147 0.3980
5.0400 3.3280 0.3987
5.0600 3.3414 0.3992
5.0800 3.3547 0.3997
5.1000 3.3680 0.4018
5.1200 3.3813 0.4005
5.1400 3.3947 0.4053
5.1600 3.4080 0.4032
5.1800 3.4213 0.4083
5.2000 3.4347 0.4057
5.2200 3.4481 0.4111
5.2400 3.4614 0.4069
5.2600 3.4747 0.4142
5.2800 3.4880 0.4103
5.3000 3.5014 0.4149
5.3200 3.5148 0.4134
5.3400 3.5281 0.4173
5.3600 3.5414 0.4161
5.3800 3.5547 0.4190
5.4000 3.5680 0.4192
5.4200 3.5813 0.4197
5.4400 3.5946 0.4232
5.4600 3.6080 0.4217
5.4800 3.6213 0.4252
5.5000 3.6346 0.4240
5.5200 3.6479 0.4285
5.5400 3.6613 0.4259
5.5600 3.6747 0.4303
5.5800 3.6881 0.4284
5.6000 3.7014 0.4312
5.6200 3.7147 0.4308
5.6400 3.7281 0.4340
5.6600 3.7414 0.4336
5.6800 3.7548 0.4366
5.7000 3.7681 0.4360
5.7200 3.7813 0.4379
5.7400 3.7947 0.4393
5.7600 3.8080 0.4398
5.7800 3.8213 0.4409
5.8000 3.8346 0.4420
5.8200 3.8479 0.4437
5.8400 3.8613 0.4410
5.8600 3.8746 0.4458
5.8800 3.8880 0.4439
5.9000 3.9013 0.4479
5.9200 3.9147 0.4461
5.9400 3.9281 0.4504
5.9600 3.9414 0.4479
5.9800 3.9547 0.4534
6.0000 3.9681 0.4513
6.0200 3.9814 0.4546
6.0400 3.9948 0.4542
6.0600 4.0080 0.4570
6.0800 4.0213 0.4563
6.1000 4.0346 0.4589
6.1200 4.0480 0.4602
6.1400 4.0613 0.4591
6.1600 4.0746 0.4635
6.1800 4.0880 0.4606
6.2000 4.1013 0.4651
6.2200 4.1147 0.4629
6.2400 4.1280 0.4683
6.2600 4.1414 0.4645
6.2800 4.1547 0.4705
6.3000 4.1681 0.4676
6.3200 4.1814 0.4712
6.3400 4.1947 0.4705
6.3600 4.2080 0.4734
6.3800 4.2214 0.4723
6.4000 4.2347 0.4748
6.4200 4.2480 0.4763
6.4400 4.2614 0.4759
6.4600 4.2747 0.4790
6.4800 4.2881 0.4783
6.5000 4.3014 0.4801
6.5200 4.3147 0.4814
6.5400 4.3280 0.4827
6.5600 4.3413 0.4829
6.5800 4.3547 0.4842
6.6000 4.3680 0.4855
6.6200 4.3813 0.4857
6.6400 4.3947 0.4875
6.6600 4.4080 0.4869
6.6800 4.4214 0.4879
6.7000 4.4347 0.4891
6.7200 4.4480 0.4907
6.7400 4.4614 0.4908
6.7600 4.4747 0.4935
6.7800 4.4881 0.4930
6.8000 4.5014 0.4958
6.8200 4.5147 0.4954
6.8400 4.5281 0.4989
6.8600 4.5414 0.4965
6.8800 4.5547 0.5011
6.9000 4.5680 0.4994
6.9200 4.5813 0.5025
6.9400 4.5946 0.5008
6.9600 4.6080 0.5054
6.9800 4.6213 0.5023
7.0000 4.6347 0.5074
7.0200 4.6481 0.5045
7.0400 4.6614 0.5075
7.0600 4.6747 0.5064
7.0800 4.6881 0.5087
7.1000 4.7014 0.5096
7.1200 4.7148 0.5099
7.1400 4.7281 0.5127
7.1600 4.7414 0.5121
7.1800 4.7547 0.5149
7.2000 4.7680 0.5144
7.2200 4.7814 0.5171
7.2400 4.7947 0.5156
7.2600 4.8080 0.5201
7.2800 4.8213 0.5177
7.3000 4.8347 0.5217
7.3200 4.8480 0.5206
7.3400 4.8613 0.5233
7.3600 4.8746 0.5227
7.3800 4.8880 0.5258
7.4000 4.9014 0.5246
7.4200 4.9147 0.5273
7.4400 4.9280 0.5274
7.4600 4.9414 0.5291
7.4800 4.9548 0.5290
7.5000 4.9681 0.5317
7.5200 4.9814 0.5311
7.5400 4.9947 0.5327
7.5600 5.0080 0.5326
7.5800 5.0214 0.5322
7.6000 5.0346 0.5349
7.6200 5.0480 0.5341
7.6400 5.0613 0.5383
7.6600 5.0747 0.5354
7.6800 5.0880 0.5405
7.7000 5.1013 0.5378
7.7200 5.1147 0.5418
7.7400 5.1281 0.5396
7.7600 5.1414 0.5430
7.7800 5.1548 0.5415
7.8000 5.1680 0.5451
7.8200 5.1814 0.5434
7.8400 5.1947 0.5445
7.8600 5.2081 0.5462
7.8800 5.2214 0.5465
7.9000 5.2346 0.5488
7.9200 5.2480 0.5485
7.9400 5.2613 0.5510
7.9600 5.2746 0.5496
7.9800 5.2880 0.5542
8.0000 5.3013 0.5515
8.0200 5.3147 0.5557
8.0400 5.3280 0.5535
8.0600 5.3413 0.5573
8.0800 5.3547 0.5557
8.1000 5.3681 0.5597
8.1200 5.3814 0.5573
8.1400 5.3947 0.5607
8.1600 5.4080 0.5599
8.1800 5.4214 0.5600
8.2000 5.4347 0.5579
8.2200 5.4481 0.5604
8.2400 5.4613 0.5609
8.2600 5.4746 0.5613
8.2800 5.4880 0.5637
8.3000 5.5013 0.5634
8.3200 5.5146 0.5665
8.3400 5.5279 0.5664
8.3600 5.5413 0.5684
8.3800 5.5546 0.5673
8.4000 5.5680 0.5703
8.4200 5.5813 0.5693
8.4400 5.5947 0.5702
8.4600 5.6080 0.5699
8.4800 5.6214 0.5707
8.5000 5.6347 0.5714
8.5200 5.6480 0.5741
8.5400 5.6613 0.5748
8.5600 5.6747 0.5754
8.5800 5.6881 0.5768
8.6000 5.7014 0.5762
8.6200 5.7147 0.5788
8.6400 5.7281 0.5779
8.6600 5.7414 0.5810
8.6800 5.7547 0.5797
8.7000 5.7680 0.5836
8.7200 5.7813 0.5823
8.7400 5.7946 0.5847
8.7600 5.8080 0.5845
8.7800 5.8213 0.5868
8.8000 5.8346 0.5858
8.8200 5.8480 0.5895
8.8400 5.8614 0.5869
8.8600 5.8748 0.5899
8.8800 5.8881 0.5880
8.9000 5.9014 0.5908
8.9200 5.9148 0.5910
8.9400 5.9281 0.5923
8.9600 5.9414 0.5947
8.9800 5.9547 0.5932
9.0000 5.9680 0.5977
9.0200 5.9814 0.5953
9.0400 5.9947 0.5983
9.0600 6.0079 0.5966
9.0800 6.0213 0.5998
9.1000 6.0346 0.5976
9.1200 6.0480 0.6023
9.1400 6.0613 0.5996
9.1600 6.0747 0.6037
9.1800 6.0880 0.6018
9.2000 6.1014 0.6050
9.2200 6.1147 0.6049
9.2400 6.1281 0.6066
9.2600 6.1414 0.6072
9.2800 6.1548 0.6071
9.3000 6.1681 0.6097
9.3200 6.1814 0.6093
9.3400 6.1947 0.6105
9.3600 6.2080 0.6115
9.3800 6.2213 0.6131
9.4000 6.2346 0.6120
9.4200 6.2479 0.6161
9.4400 6.2613 0.6140
9.4600 6.2746 0.6171
9.4800 6.2880 0.6160
9.5000 6.3013 0.6190
9.5200 6.3146 0.6180
9.5400 6.3280 0.6203
9.5600 6.3414 0.6208
9.5800 6.3548 0.6205
9.6000 6.3681 0.6223
9.6200 6.3814 0.6230
9.6400 6.3948 0.6244
9.6600 6.4081 0.6241
9.6800 6.4214 0.6269
9.7000 6.4347 0.6249
9.7200 6.4480 0.6301
9.7400 6.4613 0.6270
9.7600 6.4746 0.6309
9.7800 6.4879 0.6281
9.8000 6.5012 0.6315
9.8200 6.5146 0.6281
9.8400 6.5280 0.6320
9.8600 6.5413 0.6313
9.8800 6.5547 0.6327
9.9000 6.5681 0.6334
9.9200 6.5814 0.6348
9.9400 6.5948 0.6359
9.9600 6.6081 0.6364
9.9800 6.6214 0.6387
10.0000 6.6348 0.6371
10.0200 6.6481 0.6406
10.0400 6.6614 0.6390
10.0600 6.6747 0.6418
10.0800 6.6880 0.6413
10.1000 6.7014 0.6438
10.1200 6.7147 0.6424
10.1400 6.7280 0.6458
10.1600 6.7413 0.6454
10.1800 6.7547 0.6465
10.2000 6.7680 0.6468
10.2200 6.7813 0.6481
10.2400 6.7947 0.6484
10.2600 6.8080 0.6488
10.2800 6.8214 0.6505
10.3000 6.8347 0.6497
10.3200 6.8480 0.6523
10.3400 6.8613 0.6523
10.3600 6.8747 0.6546
10.3800 6.8881 0.6540
10.4000 6.9014 0.6573
10.4200 6.9147 0.6548
10.4400 6.9280 0.6592
10.4600 6.9413 0.6568
10.4800 6.9547 0.6605
10.5000 6.9680 0.6586
10.5200 6.9813 0.6622
10.5400 6.9946 0.6600
10.5600 7.0080 0.6637
10.5800 7.0213 0.6618
10.6000 7.0346 0.6630
10.6200 7.0480 0.6627
10.6400 7.0614 0.6638
10.6600 7.0747 0.6644
10.6800 7.0880 0.6657
10.7000 7.1013 0.6681
10.7200 7.1147 0.6671
10.7400 7.1281 0.6691
10.7600 7.1414 0.6663
10.7800 7.1547 0.6712
10.8000 7.1680 0.6681
10.8200 7.1814 0.6735
10.8400 7.1947 0.6696
10.8600 7.2080 0.6743
10.8800 7.2213 0.6728
10.9000 7.2346 0.6750
10.9200 7.2480 0.6755
10.9400 7.2613 0.6768
10.9600 7.2746 0.6775
10.9800 7.2880 0.6778
11.0000 7.3014 0.6801
11.0200 7.3148 0.6788
11.0400 7.3281 0.6820
11.0600 7.3414 0.6810
11.0800 7.3548 0.6833
11.1000 7.3681 0.6822
11.1200 7.3814 0.6857
11.1400 7.3947 0.6844
11.1600 7.4080 0.6860
11.1800 7.4213 0.6867
11.2000 7.4346 0.6867
11.2200 7.4479 0.6885
11.2400 7.4613 0.6893
11.2600 7.4746 0.6899
11.2800 7.4880 0.6905
11.3000 7.5014 0.6916
11.3200 7.5147 0.6929
11.3400 7.5281 0.6933
11.3600 7.5414 0.6943
11.3800 7.5548 0.6951
11.4000 7.5681 0.6951
11.4200 7.5814 0.6973
11.4400 7.5947 0.6962
11.4600 7.6081 0.6982
11.4800 7.6214 0.6980
11.5000 7.6347 0.7003
11.5200 7.6480 0.6989
11.5400 7.6614 0.7026
11.5600 7.6747 0.6998
11.5800 7.6880 0.7044
11.6000 7.7013 0.7025
11.6200 7.7146 0.7055
11.6400 7.7280 0.7036
11.6600 7.7413 0.7063
11.6800 7.7547 0.7060
11.7000 7.7680 0.7070
11.7200 7.7814 0.7078
11.7400 7.7947 0.7057
11.7600 7.8080 0.7088
11.7800 7.8214 0.7088
11.8000 7.8347 0.7108
11.8200 7.8481 0.7104
11.8400 7.8614 0.7122
11.8600 7.8747 0.7119
11.8800 7.8880 0.7138
11.9000 7.9013 0.7142
11.9200 7.9147 0.7155
11.9400 7.9280 0.7161
11.9600 7.9413 0.7173
11.9800 7.9546 0.7175
12.0000 7.9680 0.7183
12.0200 7.9814 0.7199
12.0400 7.9947 0.7197
12.0600 8.0080 0.7212
12.0800 8.0214 0.7214
12.1000 8.0347 0.7225
12.1200 8.0480 0.7222
12.1400 8.0613 0.7239
12.1600 8.0747 0.7234
12.1800 8.0880 0.7235
12.2000 8.1014 0.7241
12.2200 8.1147 0.7258
12.2400 8.1280 0.7252
12.2600 8.1414 0.7284
12.2800 8.1547 0.7269
12.3000 8.1680 0.7302
12.3200 8.1813 0.7295
12.3400 8.1946 0.7320
12.3600 8.2080 0.7306
12.3800 8.2213 0.7334
12.4000 8.2347 0.7333
12.4200 8.2480 0.7336
12.4400 8.2614 0.7346
12.4600 8.2747 0.7351
12.4800 8.2880 0.7366
12.5000 8.3014 0.7368
12.5200 8.3147 0.7393
12.5400 8.3281 0.7371
12.5600 8.3414 0.7417
12.5800 8.3547 0.7382
12.6000 8.3680 0.7431
12.6200 8.3814 0.7408
12.6400 8.3947 0.7443
12.6600 8.4080 0.7421
12.6800 8.4213 0.7453
12.7000 8.4346 0.7442
12.7200 8.4480 0.7456
12.7400 8.4613 0.7464
12.7600 8.4746 0.7459
12.7800 8.4880 0.7469
12.8000 8.5014 0.7464
12.8200 8.5147 0.7480
12.8400 8.5280 0.7476
12.8600 8.5413 0.7508
12.8800 8.5547 0.7501
12.9000 8.5681 0.7515
12.9200 8.5814 0.7517
12.9400 8.5947 0.7540
12.9600 8.6080 0.7530
12.9800 8.6214 0.7554
13.0000 8.6347 0.7551
13.0200 8.6480 0.7565
13.0400 8.6613 0.7568
13.0600 8.6746 0.7588
13.0800 8.6879 0.7579
13.1000 8.7013 0.7602
13.1200 8.7146 0.7600
13.1400 8.7280 0.7610
13.1600 8.7414 0.7616
13.1800 8.7548 0.7620
13.2000 8.7681 0.7630
13.2200 8.7814 0.7627
13.2400 8.7947 0.7660
13.2600 8.8080 0.7640
13.2800 8.8214 0.7678
13.3000 8.8347 0.7652
13.3200 8.8480 0.7692
13.3400 8.8613 0.7676
13.3600 8.8747 0.7694
13.3800 8.8880 0.7683
13.4000 8.9013 0.7700
13.4200 8.9146 0.7703
13.4400 8.9280 0.7704
13.4600 8.9414 0.7723
13.4800 8.9547 0.7721
13.5000 8.9680 0.7730
13.5200 8.9814 0.7719
13.5400 8.9947 0.7750
13.5600 9.0080 0.7734
13.5800 9.0213 0.7775
13.6000 9.0347 0.7755
13.6200 9.0480 0.7784
13.6400 9.0614 0.7779
13.6600 9.0747 0.7803
13.6800 9.0880 0.7796
13.7000 9.1014 0.7815
13.7200 9.1147 0.7811
13.7400 9.1280 0.7822
13.7600 9.1413 0.7821
13.7800 9.1546 0.7842
13.8000 9.1680 0.7833
13.8200 9.1813 0.7838
13.8400 9.1946 0.7836
13.8600 9.2080 0.7846
13.8800 9.2213 0.7861
13.9000 9.2347 0.7863
13.9200 9.2480 0.7879
13.9400 9.2614 0.7881
13.9600 9.2747 0.7902
13.9800 9.2881 0.7893
14.0000 9.3014 0.7913
14.0200 9.3147 0.7911
14.0400 9.3280 0.7937
14.0600 9.3414 0.7915
14.0800 9.3547 0.7959
14.1000 9.3680 0.7925
14.1200 9.3813 0.7966
14.1400 9.3946 0.7957
14.1600 9.4079 0.7968
14.1800 9.4213 0.7977
14.2000 9.4346 0.7979
14.2200 9.4480 0.8004
14.2400 9.4614 0.7985
14.2600 9.4747 0.8024
14.2800 9.4881 0.7993
14.3000 9.5014 0.8033
14.3200 9.5147 0.8011
14.3400 9.5281 0.8052
14.3600 9.5414 0.8026
14.3800 9.5547 0.8065
14.4000 9.5680 0.8045
14.4200 9.5814 0.8073
14.4400 9.5947 0.8065
14.4600 9.6080 0.8070
14.4800 9.6213 0.8080
14.5000 9.6346 0.8088
14.5200 9.6480 0.8102
14.5400 9.6613 0.8087
14.5600 9.6746 0.8124
14.5800 9.6879 0.8108
14.6000 9.7013 0.8130
14.6200 9.7147 0.8130
14.6400 9.7280 0.8147
14.6600 9.7414 0.8127
14.6800 9.7547 0.8172
14.7000 9.7681 0.8140
14.7200 9.7814 0.8177
14.7400 9.7947 0.8147
14.7600 9.8080 0.8186
14.7800 9.8214 0.8165
14.8000 9.8347 0.8199
14.8200 9.8480 0.8185
14.8400 9.8613 0.8203
14.8600 9.8746 0.8195
14.8800 9.8879 0.8204
14.9000 9.9013 0.8216
14.9200 9.9146 0.8224
14.9400 9.9280 0.8238
14.9600 9.9414 0.8230
14.9800 9.9548 0.8257
15.0000 9.9681 0.8241
15.0200 9.9814 0.8276
15.0400 9.9947 0.8254
15.0600 10.0081 0.8296
15.0800 10.0214 0.8257
15.1000 10.0347 0.8323
15.1200 10.0480 0.8274
15.1400 10.0613 0.8327
15.1600 10.0746 0.8305
15.1800 10.0880 0.8324
15.2000 10.1013 0.8320
15.2200 10.1146 0.8333
15.2400 10.1280 0.8341
15.2600 10.1413 0.8338
15.2800 10.1547 0.8370
15.3000 10.1680 0.8353
15.3200 10.1814 0.8380
15.3400 10.1948 0.8365
15.3600 10.2081 0.8398
15.3800 10.2214 0.8377
15.4000 10.2347 0.8424
15.4200 10.2481 0.8389
15.4400 10.2614 0.8419
15.4600 10.2747 0.8417
15.4800 10.2880 0.8433
15.5000 10.3013 0.8438
15.5200 10.3147 0.8443
15.5400 10.3280 0.8452
15.5600 10.3413 0.8434
15.5800 10.3546 0.8459
15.6000 10.3680 0.8442
15.6200 10.3813 0.8461
15.6400 10.3947 0.8464
15.6600 10.4080 0.8479
15.6800 10.4213 0.8469
15.7000 10.4347 0.8515
15.7200 10.4481 0.8482
15.7400 10.4614 0.8522
15.7600 10.4747 0.8492
15.7800 10.4880 0.8530
15.8000 10.5014 0.8499
15.8200 10.5147 0.8546
15.8400 10.5281 0.8520
15.8600 10.5414 0.8552
15.8800 10.5547 0.8544
15.9000 10.5681 0.8560
15.9200 10.5813 0.8565
15.9400 10.5946 0.8576
15.9600 10.6079 0.8582
15.9800 10.6213 0.8562
16.0000 10.6346 0.8606
16.0200 10.6480 0.8577
16.0400 10.6613 0.8610
16.0600 10.6747 0.8586
16.0800 10.6881 0.8620
16.1000 10.7014 0.8599
16.1200 10.7147 0.8647
16.1400 10.7281 0.8619
16.1600 10.7415 0.8650
16.1800 10.7548 0.8646
16.2000 10.7680 0.8660
16.2200 10.7813 0.8658
16.2400 10.7947 0.8678
16.2600 10.8080 0.8675
16.2800 10.8213 0.8686
16.3000 10.8346 0.8696
16.3200 10.8479 0.8700
16.3400 10.8613 0.8706
16.3600 10.8746 0.8708
16.3800 10.8880 0.8725
16.4000 10.9013 0.8707
16.4200 10.9147 0.8726
16.4400 10.9281 0.8730
16.4600 10.9414 0.8736
16.4800 10.9547 0.8748
16.5000 10.9681 0.8753
16.5200 10.9814 0.8756
16.5400 10.9947 0.8781
16.5600 11.0080 0.8769
16.5800 11.0213 0.8795
16.6000 11.0347 0.8782
16.6200 11.0480 0.8805
16.6400 11.0613 0.8798
16.6600 11.0746 0.8816
16.6800 11.0880 0.8826
16.7000 11.1013 0.8808
16.7200 11.1147 0.8845
16.7400 11.1280 0.8827
16.7600 11.1413 0.8852
16.7800 11.1547 0.8837
16.8000 11.1681 0.8877
16.8200 11.1814 0.8843
16.8400 11.1947 0.8891
16.8600 11.2081 0.8862
16.8800 11.2214 0.8895
16.9000 11.2347 0.8878
16.9200 11.2480 0.8901
16.9400 11.2614 0.8891
16.9600 11.2747 0.8904
16.9800 11.2880 0.8910
17.0000 11.3013 0.8904
17.0200 11.3146 0.8934
17.0400 11.3279 0.8924
17.0600 11.3413 0.8942
17.0800 11.3547 0.8940
17.1000 11.3680 0.8960
17.1200 11.3814 0.8949
17.1400 11.3948 0.8970
17.1600 11.4081 0.8970
17.1800 11.4214 0.8976
17.2000 11.4347 0.8988
17.2200 11.4481 0.8999
17.2400 11.4614 0.8987
17.2600 11.4747 0.9011
17.2800 11.4880 0.9014
17.3000 11.5013 0.9016
17.3200 11.5147 0.9027
17.3400 11.5280 0.9031
17.3600 11.5413 0.9034
17.3800 11.5547 0.9028
17.4000 11.5680 0.9043
17.4200 11.5813 0.9040
17.4400 11.5947 0.9062
17.4600 11.6080 0.9051
17.4800 11.6213 0.9077
17.5000 11.6347 0.9070
17.5200 11.6481 0.9094
17.5400 11.6614 0.9076
17.5600 11.6746 0.9110
17.5800 11.6880 0.9095
17.6000 11.7014 0.9111
17.6200 11.7148 0.9108
17.6400 11.7280 0.9126
17.6600 11.7413 0.9132
17.6800 11.7547 0.9133
17.7000 11.7680 0.9148
17.7200 11.7813 0.9133
17.7400 11.7946 0.9168
17.7600 11.8079 0.9125
17.7800 11.8213 0.9149
17.8000 11.8346 0.9122
17.8200 11.8480 0.9175
17.8400 11.8613 0.9139
17.8600 11.8747 0.9194
17.8800 11.8881 0.9169
17.9000 11.9014 0.9200
17.9200 11.9147 0.9184
17.9400 11.9280 0.9217
17.9600 11.9414 0.9209
17.9800 11.9547 0.9226
18.0000 11.9680 0.9240
18.0200 11.9813 0.9227
18.0400 11.9947 0.9250
18.0600 12.0080 0.9250
18.0800 12.0214 0.9265
18.1000 12.0346 0.9268
18.1200 12.0479 0.9278
18.1400 12.0613 0.9263
18.1600 12.0746 0.9274
18.1800 12.0879 0.9273
18.2000 12.1013 0.9289
18.2200 12.1147 0.9290
18.2400 12.1281 0.9305
18.2600 12.1415 0.9301
18.2800 12.1548 0.9311
18.3000 12.1681 0.9334
18.3200 12.1815 0.9323
18.3400 12.1948 0.9341
18.3600 12.2080 0.9345
18.3800 12.2213 0.9354
18.4000 12.2347 0.9354
18.4200 12.2480 0.9359
18.4400 12.2613 0.9363
18.4600 12.2746 0.9379
18.4800 12.2880 0.9374
18.5000 12.3013 0.9393
18.5200 12.3147 0.9376
18.5400 12.3280 0.9430
18.5600 12.3414 0.9390
18.5800 12.3547 0.9426
18.6000 12.3681 0.9409
18.6200 12.3814 0.9429
18.6400 12.3947 0.9422
18.6600 12.4080 0.9456
18.6800 12.4214 0.9439
18.7000 12.4347 0.9459
18.7200 12.4480 0.9457
18.7400 12.4613 0.9469
18.7600 12.4747 0.9467
18.7800 12.4880 0.9486
18.8000 12.5013 0.9492
18.8200 12.5146 0.9481
18.8400 12.5279 0.9514
18.8600 12.5413 0.9493
18.8800 12.5547 0.9519
18.9000 12.5680 0.9513
18.9200 12.5813 0.9530
18.9400 12.5947 0.9520
18.9600 12.6081 0.9539
18.9800 12.6214 0.9542
19.0000 12.6347 0.9556
19.0200 12.6480 0.9556
19.0400 12.6614 0.9573
19.0600 12.6747 0.9556
19.0800 12.6880 0.9588
19.1000 12.7013 0.9576
19.1200 12.7147 0.9588
19.1400 12.7280 0.9590
19.1600 12.7413 0.9601
19.1800 12.7546 0.9595
19.2000 12.7680 0.9614
19.2200 12.7813 0.9613
19.2400 12.7947 0.9611
19.2600 12.8080 0.9632
19.2800 12.8213 0.9625
19.3000 12.8347 0.9642
19.3200 12.8481 0.9641
19.3400 12.8614 0.9662
19.3600 12.8747 0.9643
19.3800 12.8880 0.9683
19.4000 12.9014 0.9662
19.4200 12.9147 0.9689
19.4400 12.9280 0.9690
19.4600 12.9413 0.9701
19.4800 12.9547 0.9703
19.5000 12.9680 0.9701
19.5200 12.9814 0.9728
19.5400 12.9947 0.9695
19.5600 13.0080 0.9735
19.5800 13.0213 0.9704
19.6000 13.0347 0.9749
19.6200 13.0480 0.9718
19.6400 13.0613 0.9770
19.6600 13.0747 0.9732
19.6800 13.0881 0.9781
19.7000 13.1014 0.9755
19.7200 13.1147 0.9785
19.7400 13.1280 0.9782
19.7600 13.1414 0.9790
19.7800 13.1548 0.9792
19.8000 13.1681 0.9807
19.8200 13.1814 0.9814
19.8400 13.1947 0.9807
19.8600 13.2080 0.9838
19.8800 13.2214 0.9822
19.9000 13.2347 0.9841
19.9200 13.2480 0.9839
19.9400 13.2613 0.9850
19.9600 13.2746 0.9843
19.9800 13.2879 0.9866
20.0000 13.3013 0.9854
20.0200 13.3147 0.9878
20.0400 13.3281 0.9873
20.0600 13.3414 0.9893
20.0800 13.3547 0.9874
20.1000 13.3681 0.9915
20.1200 13.3814 0.9890
20.1400 13.3948 0.9893
20.1600 13.4081 0.9895
20.1800 13.4214 0.9889
20.2000 13.4347 0.9905
20.2200 13.4480 0.9907
20.2400 13.4614 0.9932
20.2600 13.4746 0.9906
20.2800 13.4879 0.9963
20.3000 13.5013 0.9929
20.3200 13.5146 0.9970
20.3400 13.5280 0.9937
20.3600 13.5413 0.9987
20.3800 13.5546 0.9950
20.4000 13.5680 1.0002
20.4200 13.5814 0.9970
20.4400 13.5947 0.9989
20.4600 13.6081 0.9998
20.4800 13.6214 0.9998
20.5000 13.6348 1.0011
20.5200 13.6481 1.0011
20.5400 13.6613 1.0039
20.5600 13.6746 1.0012
20.5800 13.6880 1.0048
20.6000 13.7013 1.0035
20.6200 13.7146 1.0062
20.6400 13.7280 1.0046
20.6600 13.7413 1.0077
20.6800 13.7547 1.0047
20.7000 13.7680 1.0098
20.7200 13.7814 1.0063
20.7400 13.7947 1.0103
20.7600 13.8081 1.0084
20.7800 13.8214 1.0116
20.8000 13.8347 1.0083
20.8200 13.8480 1.0134
20.8400 13.8613 1.0110
20.8600 13.8747 1.0131
20.8800 13.8880 1.0123
20.9000 13.9014 1.0151
20.9200 13.9147 1.0137
20.9400 13.9280 1.0156
20.9600 13.9414 1.0164
20.9800 13.9547 1.0154
21.0000 13.9680 1.0187
21.0200 13.9813 1.0169
21.0400 13.9947 1.0190
21.0600 14.0080 1.0184
21.0800 14.0213 1.0207
21.1000 14.0346 1.0194
21.1200 14.0480 1.0216
21.1400 14.0614 1.0213
21.1600 14.0747 1.0217
21.1800 14.0880 1.0208
21.2000 14.1014 1.0234
21.2200 14.1148 1.0222
21.2400 14.1281 1.0240
21.2600 14.1414 1.0259
21.2800 14.1547 1.0243
21.3000 14.1680 1.0279
21.3200 14.1814 1.0256
21.3400 14.1947 1.0290
21.3600 14.2079 1.0277
21.3800 14.2213 1.0314
21.4000 14.2346 1.0284
21.4200 14.2480 1.0315
21.4400 14.2613 1.0301
21.4600 14.2747 1.0324
21.4800 14.2880 1.0313
21.5000 14.3014 1.0332
21.5200 14.3147 1.0332
21.5400 14.3280 1.0341
21.5600 14.3414 1.0359
21.5800 14.3548 1.0342
21.6000 14.3681 1.0371
21.6200 14.3814 1.0356
21.6400 14.3947 1.0379
21.6600 14.4080 1.0364
21.6800 14.4214 1.0395
21.7000 14.4347 1.0371
21.7200 14.4480 1.0403
21.7400 14.4613 1.0393
21.7600 14.4746 1.0414
21.7800 14.4880 1.0405
21.8000 14.5013 1.0437
21.8200 14.5146 1.0415
21.8400 14.5280 1.0448
21.8600 14.5414 1.0438
21.8800 14.5547 1.0452
21.9000 14.5681 1.0449
21.9200 14.5814 1.0466
21.9400 14.5948 1.0464
21.9600 14.6081 1.0467
21.9800 14.6214 1.0494
22.0000 14.6347 1.0469
22.0200 14.6480 1.0511
22.0400 14.6614 1.0483
22.0600 14.6747 1.0523
22.0800 14.6880 1.0488
22.1000 14.7013 1.0529
22.1200 14.7146 1.0481
22.1400 14.7280 1.0523
22.1600 14.7413 1.0520
22.1800 14.7547 1.0538
22.2000 14.7681 1.0534
22.2200 14.7814 1.0544
22.2400 14.7948 1.0557
22.2600 14.8081 1.0549
22.2800 14.8214 1.0586
22.3000 14.8348 1.0544
22.3200 14.8481 1.0609
22.3400 14.8614 1.0565
22.3600 14.8747 1.0619
22.3800 14.8880 1.0576
22.4000 14.9013 1.0637
22.4200 14.9147 1.0583
22.4400 14.9280 1.0640
22.4600 14.9413 1.0611
22.4800 14.9546 1.0644
22.5000 14.9680 1.0624
22.5200 14.9813 1.0664
22.5400 14.9947 1.0642
22.5600 15.0081 1.0662
22.5800 15.0214 1.0665
22.6000 15.0347 1.0664
22.6200 15.0480 1.0683
22.6400 15.0614 1.0677
22.6600 15.0748 1.0700
22.6800 15.0881 1.0681
22.7000 15.1014 1.0722
22.7200 15.1146 1.0696
22.7400 15.1280 1.0739
22.7600 15.1413 1.0709
22.7800 15.1547 1.0754
22.8000 15.1680 1.0712
22.8200 15.1813 1.0771
22.8400 15.1946 1.0721
22.8600 15.2080 1.0782
22.8800 15.2213 1.0747
22.9000 15.2346 1.0784
22.9200 15.2480 1.0771
22.9400 15.2614 1.0791
22.9600 15.2747 1.0789
22.9800 15.2880 1.0787
23.0000 15.3013 1.0819
23.0200 15.3147 1.0799
23.0400 15.3281 1.0816
23.0600 15.3414 1.0810
23.0800 15.3547 1.0832
23.1000 15.3680 1.0810
23.1200 15.3814 1.0848
23.1400 15.3947 1.0811
23.1600 15.4080 1.0850
23.1800 15.4212 1.0830
23.2000 15.4346 1.0853
23.2200 15.4479 1.0847
23.2400 15.4613 1.0864
23.2600 15.4746 1.0877
23.2800 15.4880 1.0862
23.3000 15.5014 1.0898
23.3200 15.5148 1.0880
23.3400 15.5281 1.0904
23.3600 15.5414 1.0899
23.3800 15.5548 1.0927
23.4000 15.5681 1.0895
23.4200 15.5814 1.0947
23.4400 15.5947 1.0908
23.4600 15.6080 1.0953
23.4800 15.6213 1.0934
23.5000 15.6346 1.0962
23.5200 15.6479 1.0942
23.5400 15.6613 1.0979
23.5600 15.6746 1.0962
23.5800 15.6880 1.0983
23.6000 15.7013 1.0985
23.6200 15.7147 1.0999
23.6400 15.7280 1.0989
23.6600 15.7414 1.1003
23.6800 15.7548 1.1009
23.7000 15.7681 1.1009
23.7200 15.7814 1.1030
23.7400 15.7948 1.1026
23.7600 15.8081 1.1036
23.7800 15.8214 1.1045
23.8000 15.8347 1.1059
23.8200 15.8480 1.1042
23.8400 15.8614 1.1081
23.8600 15.8747 1.1056
23.8800 15.8880 1.1080
23.9000 15.9013 1.1073
23.9200 15.9146 1.1093
23.9400 15.9280 1.1079
23.9600 15.9413 1.1105
23.9800 15.9546 1.1096
24.0000 15.9680 1.1117
24.0200 15.9814 1.1126
24.0400 15.9948 1.1121
24.0600 16.0081 1.1137
24.0800 16.0214 1.1138
24.1000 16.0347 1.1165
24.1200 16.0481 1.1135
24.1400 16.0614 1.1174
24.1600 16.0747 1.1157
24.1800 16.0880 1.1176
24.2000 16.1013 1.1175
24.2200 16.1147 1.1193
24.2400 16.1279 1.1185
24.2600 16.1412 1.1209
24.2800 16.1546 1.1194
24.3000 16.1680 1.1207
24.3200 16.1813 1.1214
24.3400 16.1947 1.1216
24.3600 16.2080 1.1218
24.3800 16.2214 1.1232
24.4000 16.2348 1.1244
24.4200 16.2481 1.1238
24.4400 16.2614 1.1266
24.4600 16.2747 1.1249
24.4800 16.2881 1.1275
24.5000 16.3014 1.1264
24.5200 16.3147 1.1302
24.5400 16.3280 1.1272
24.5600 16.3414 1.1316
24.5800 16.3547 1.1289
24.6000 16.3680 1.1323
24.6200 16.3813 1.1308
24.6400 16.3947 1.1335
24.6600 16.4080 1.1304
24.6800 16.4213 1.1351
24.7000 16.4346 1.1335
24.7200 16.4480 1.1351
24.7400 16.4614 1.1355
24.7600 16.4748 1.1343
24.7800 16.4880 1.1334
24.8000 16.5013 1.1326
24.8200 16.5147 1.1354
24.8400 16.5281 1.1339
24.8600 16.5414 1.1371
24.8800 16.5547 1.1369
24.9000 16.5680 1.1374
24.9200 16.5814 1.1388
24.9400 16.5947 1.1402
24.9600 16.6080 1.1392
24.9800 16.6213 1.1417
25.0000 16.6347 1.1412
25.0200 16.6480 1.1420
25.0400 16.6614 1.1436
25.0600 16.6747 1.1437
25.0800 16.6880 1.1446
25.1000 16.7014 1.1448
25.1200 16.7147 1.1469
25.1400 16.7280 1.1447
25.1600 16.7414 1.1479
25.1800 16.7547 1.1464
25.2000 16.7680 1.1485
25.2200 16.7814 1.1484
25.2400 16.7947 1.1509
25.2600 16.8080 1.1492
25.2800 16.8214 1.1520
25.3000 16.8347 1.1512
25.3200 16.8480 1.1537
25.3400 16.8613 1.1526
25.3600 16.8746 1.1557
25.3800 16.8880 1.1534
25.4000 16.9013 1.1562
25.4200 16.9146 1.1570
25.4400 16.9280 1.1554
25.4600 16.9414 1.1578
25.4800 16.9548 1.1573
25.5000 16.9681 1.1582
25.5200 16.9814 1.1587
25.5400 16.9947 1.1604
25.5600 17.0081 1.1591
25.5800 17.0214 1.1621
25.6000 17.0346 1.1614
25.6200 17.0480 1.1633
25.6400 17.0613 1.1622
25.6600 17.0747 1.1647
25.6800 17.0880 1.1639
25.7000 17.1013 1.1660
25.7200 17.1146 1.1671
25.7400 17.1280 1.1657
25.7600 17.1414 1.1682
25.7800 17.1547 1.1683
25.8000 17.1680 1.1697
25.8200 17.1814 1.1696
25.8400 17.1948 1.1704
25.8600 17.2081 1.1703
25.8800 17.2214 1.1721
25.9000 17.2347 1.1722
25.9200 17.2481 1.1731
25.9400 17.2614 1.1722
25.9600 17.2747 1.1763
25.9800 17.2880 1.1728
26.0000 17.3013 1.1766
26.0200 17.3147 1.1760
26.0400 17.3280 1.1770
26.0600 17.3413 1.1769
26.0800 17.3546 1.1792
26.1000 17.3680 1.1776
26.1200 17.3813 1.1797
26.1400 17.3947 1.1808
26.1600 17.4080 1.1807
26.1800 17.4214 1.1807
26.2000 17.4347 1.1803
26.2200 17.4481 1.1813
26.2400 17.4614 1.1811
26.2600 17.4747 1.1843
26.2800 17.4881 1.1816
26.3000 17.5014 1.1856
26.3200 17.5147 1.1847
26.3400 17.5280 1.1864
26.3600 17.5414 1.1850
26.3800 17.5547 1.1881
26.4000 17.5680 1.1855
26.4200 17.5813 1.1889
26.4400 17.5946 1.1883
26.4600 17.6080 1.1899
26.4800 17.6214 1.1890
26.5000 17.6347 1.1921
26.5200 17.6480 1.1905
26.5400 17.6614 1.1919
26.5600 17.6747 1.1936
26.5800 17.6881 1.1922
26.6000 17.7014 1.1950
26.6200 17.7147 1.1941
26.6400 17.7280 1.1964
26.6600 17.7414 1.1949
26.6800 17.7547 1.1995
26.7000 17.7680 1.1961
26.7200 17.7813 1.2004
26.7400 17.7947 1.1977
26.7600 17.8080 1.2010
26.7800 17.8213 1.2000
26.8000 17.8347 1.2028
26.8200 17.8480 1.2012
26.8400 17.8613 1.2024
26.8600 17.8747 1.2037
26.8800 17.8880 1.2031
26.9000 17.9014 1.2057
26.9200 17.9147 1.2050
26.9400 17.9280 1.2070
26.9600 17.9414 1.2049
26.9800 17.9547 1.2094
27.0000 17.9681 1.2059
27.0200 17.9814 1.2102
27.0400 17.9947 1.2092
27.0600 18.0080 1.2109
27.0800 18.0213 1.2099
27.1000 18.0347 1.2135
27.1200 18.0480 1.2116
27.1400 18.0613 1.2148
27.1600 18.0746 1.2136
27.1800 18.0879 1.2154
27.2000 18.1013 1.2140
27.2200 18.1146 1.2144
27.2400 18.1280 1.2128
27.2600 18.1414 1.2132
27.2800 18.1548 1.2151
27.3000 18.1681 1.2150
27.3200 18.1814 1.2174
27.3400 18.1947 1.2178
27.3600 18.2081 1.2190
27.3800 18.2214 1.2178
27.4000 18.2347 1.2226
27.4200 18.2480 1.2196
27.4400 18.2614 1.2237
27.4600 18.2747 1.2216
27.4800 18.2880 1.2252
27.5000 18.3013 1.2218
27.5200 18.3146 1.2270
27.5400 18.3280 1.2251
27.5600 18.3413 1.2266
27.5800 18.3546 1.2275
27.6000 18.3680 1.2263
27.6200 18.3814 1.2270
27.6400 18.3947 1.2246
27.6600 18.4081 1.2272
27.6800 18.4214 1.2255
27.7000 18.4347 1.2295
27.7200 18.4481 1.2280
27.7400 18.4614 1.2305
27.7600 18.4747 1.2301
27.7800 18.4880 1.2337
27.8000 18.5013 1.2308
27.8200 18.5147 1.2353
27.8400 18.5280 1.2333
27.8600 18.5413 1.2353
27.8800 18.5546 1.2364
27.9000 18.5680 1.2371
27.9200 18.5814 1.2366
27.9400 18.5947 1.2384
27.9600 18.6080 1.2386
27.9800 18.6214 1.2391
28.0000 18.6347 1.2407
28.0200 18.6481 1.2410
28.0400 18.6613 1.2409
28.0600 18.6747 1.2422
28.0800 18.6880 1.2440
28.1000 18.7014 1.2421
28.1200 18.7147 1.2467
28.1400 18.7280 1.2437
28.1600 18.7414 1.2468
28.1800 18.7547 1.2457
28.2000 18.7680 1.2486
28.2200 18.7813 1.2474
28.2400 18.7946 1.2501
28.2600 18.8080 1.2496
28.2800 18.8213 1.2503
28.3000 18.8346 1.2516
28.3200 18.8480 1.2518
28.3400 18.8613 1.2526
28.3600 18.8747 1.2529
28.3800 18.8881 1.2555
28.4000 18.9014 1.2523
28.4200 18.9147 1.2573
28.4400 18.9281 1.2545
28.4600 18.9414 1.2576
28.4800 18.9547 1.2561
28.5000 18.9680 1.2592
28.5200 18.9813 1.2562
28.5400 18.9947 1.2603
28.5600 19.0080 1.2589
28.5800 19.0213 1.2601
28.6000 19.0346 1.2609
28.6200 19.0480 1.2607
28.6400 19.0613 1.2626
28.6600 19.0746 1.2633
28.6800 19.0880 1.2645
28.7000 19.1013 1.2636
28.7200 19.1147 1.2665
28.7400 19.1281 1.2659
28.7600 19.1414 1.2674
28.7800 19.1547 1.2674
28.8000 19.1681 1.2699
28.8200 19.1814 1.2680
28.8400 19.1947 1.2718
28.8600 19.2080 1.2702
28.8800 19.2213 1.2726
28.9000 19.2347 1.2712
28.9200 19.2480 1.2742
28.9400 19.2613 1.2723
28.9600 19.2746 1.2764
28.9800 19.2880 1.2741
29.0000 19.3013 1.2761
29.0200 19.3147 1.2763
29.0400 19.3280 1.2778
29.0600 19.3413 1.2780
29.0800 19.3547 1.2785
29.1000 19.3681 1.2808
29.1200 19.3814 1.2784
29.1400 19.3947 1.2835
29.1600 19.4081 1.2801
29.1800 19.4215 1.2836
29.2000 19.4348 1.2820
29.2200 19.4480 1.2858
29.2400 19.4614 1.2833
29.2600 19.4747 1.2866
29.2800 19.4880 1.2856
29.3000 19.5013 1.2863
29.3200 19.5146 1.2865
29.3400 19.5279 1.2881
29.3600 19.5413 1.2881
29.3800 19.5547 1.2885
29.4000 19.5680 1.2916
29.4200 19.5814 1.2887
29.4400 19.5948 1.2934
29.4600 19.6081 1.2909
29.4800 19.6214 1.2941
29.5000 19.6347 1.2929
29.5200 19.6480 1.2963
29.5400 19.6614 1.2937
29.5600 19.6747 1.2975
29.5800 19.6880 1.2963
29.6000 19.7013 1.2984
29.6200 19.7146 1.2977
29.6400 19.7280 1.3001
29.6600 19.7413 1.2986
29.6800 19.7546 1.2996
29.7000 19.7680 1.2982
29.7200 19.7813 1.2988
29.7400 19.7947 1.2991
29.7600 19.8080 1.3015
29.7800 19.8213 1.3007
29.8000 19.8347 1.3031
29.8200 19.8481 1.3029
29.8400 19.8614 1.3047
29.8600 19.8747 1.3055
29.8800 19.8881 1.3063
29.9000 19.9014 1.3073
29.9200 19.9147 1.3068
29.9400 19.9280 1.3097
29.9600 19.9413 1.3057
29.9800 19.9546 1.3092
30.0000 19.9680 1.3075
30.0200 19.9813 1.3106
30.0400 19.9946 1.3100
30.0600 20.0079 1.3127
30.0800 20.0213 1.3127
30.1000 20.0347 1.3133
30.1200 20.0480 1.3156
30.1400 20.0613 1.3145
30.1600 20.0747 1.3176
30.1800 20.0880 1.3158
30.2000 20.1014 1.3190
30.2200 20.1147 1.3169
30.2400 20.1280 1.3210
30.2600 20.1414 1.3179
30.2800 20.1547 1.3221
30.3000 20.1680 1.3205
30.3200 20.1814 1.3229
30.3400 20.1947 1.3224
30.3600 20.2081 1.3242
30.3800 20.2214 1.3244
30.4000 20.2346 1.3250
30.4200 20.2479 1.3267
30.4400 20.2613 1.3270
30.4600 20.2746 1.3269
30.4800 20.2879 1.3302
30.5000 20.3013 1.3282
30.5200 20.3147 1.3308
30.5400 20.3281 1.3293
30.5600 20.3414 1.3301
30.5800 20.3547 1.3302
30.6000 20.3681 1.3314
30.6200 20.3814 1.3318
30.6400 20.3948 1.3324
30.6600 20.4080 1.3350
30.6800 20.4213 1.3339
30.7000 20.4347 1.3367
30.7200 20.4480 1.3351
30.7400 20.4613 1.3387
30.7600 20.4746 1.3365
30.7800 20.4879 1.3411
30.8000 20.5013 1.3385
30.8200 20.5147 1.3412
30.8400 20.5280 1.3409
30.8600 20.5413 1.3424
30.8800 20.5547 1.3430
30.9000 20.5681 1.3428
30.9200 20.5814 1.3456
30.9400 20.5947 1.3439
30.9600 20.6081 1.3475
30.9800 20.6214 1.3456
31.0000 20.6348 1.3487
31.0200 20.6480 1.3477
31.0400 20.6613 1.3499
31.0600 20.6747 1.3489
31.0800 20.6880 1.3514
31.1000 20.7013 1.3508
31.1200 20.7146 1.3529
31.1400 20.7279 1.3533
31.1600 20.7413 1.3532
31.1800 20.7547 1.3538
31.2000 20.7680 1.3552
31.2200 20.7813 1.3562
31.2400 20.7947 1.3561
31.2600 20.8081 1.3579
31.2800 20.8214 1.3578
31.3000 20.8347 1.3584
31.3200 20.8481 1.3601
31.3400 20.8614 1.3608
31.3600 20.8748 1.3608
31.3800 20.8881 1.3625
31.4000 20.9013 1.3620
31.4200 20.9147 1.3647
31.4400 20.9280 1.3638
31.4600 20.9413 1.3664
31.4800 20.9546 1.3641
31.5000 20.9679 1.3694
31.5200 20.9813 1.3659
31.5400 20.9946 1.3698
31.5600 21.0080 1.3686
31.5800 21.0213 1.3700
31.6000 21.0347 1.3685
31.6200 21.0481 1.3704
31.6400 21.0614 1.3710
31.6600 21.0747 1.3714
31.6800 21.0881 1.3743
31.7000 21.1014 1.3727
31.7200 21.1148 1.3756
31.7400 21.1281 1.3749
31.7600 21.1414 1.3781
31.7800 21.1547 1.3758
31.8000 21.1680 1.3768
31.8200 21.1813 1.3747
31.8400 21.1946 1.3753
31.8600 21.2080 1.3768
31.8800 21.2213 1.3767
31.9000 21.2347 1.3794
31.9200 21.2480 1.3792
31.9400 21.2613 1.3827
31.9600 21.2747 1.3803
31.9800 21.2881 1.3845
32.0000 21.3014 1.3830
32.0200 21.3147 1.3849
32.0400 21.3280 1.3860
32.0600 21.3414 1.3874
32.0800 21.3548 1.3864
32.1000 21.3681 1.3900
32.1200 21.3813 1.3892
32.1400 21.3947 1.3912
32.1600 21.4080 1.3904
32.1800 21.4214 1.3933
32.2000 21.4347 1.3916
32.2200 21.4480 1.3959
32.2400 21.4613 1.3938
32.2600 21.4747 1.3957
32.2800 21.4880 1.3955
32.3000 21.5013 1.3981
32.3200 21.5147 1.3975
32.3400 21.5280 1.3996
32.3600 21.5414 1.3998
32.3800 21.5547 1.3997
32.4000 21.5680 1.4017
32.4200 21.5814 1.4014
32.4400 21.5947 1.4038
32.4600 21.6080 1.4025
32.4800 21.6213 1.4061
32.5000 21.6347 1.4032
32.5200 21.6480 1.4083
32.5400 21.6614 1.4059
32.5600 21.6746 1.4090
32.5800 21.6879 1.4080
32.6000 21.7013 1.4112
32.6200 21.7146 1.4094
32.6400 21.7280 1.4127
32.6600 21.7413 1.4123
32.6800 21.7547 1.4124
32.7000 21.7681 1.4137
32.7200 21.7814 1.4124
32.7400 21.7948 1.4150
32.7600 21.8081 1.4140
32.7800 21.8215 1.4175
32.8000 21.8348 1.4152
32.8200 21.8481 1.4194
32.8400 21.8613 1.4193
32.8600 21.8746 1.4200
32.8800 21.8880 1.4209
32.9000 21.9013 1.4223
32.9200 21.9146 1.4222
32.9400 21.9280 1.4246
32.9600 21.9413 1.4252
32.9800 21.9547 1.4253
33.0000 21.9680 1.4264
33.0200 21.9814 1.4269
33.0400 21.9947 1.4286
33.0600 22.0081 1.4290
33.0800 22.0214 1.4310
33.1000 22.0347 1.4292
33.1200 22.0480 1.4336
33.1400 22.0614 1.4317
33.1600 22.0747 1.4353
33.1800 22.0880 1.4330
33.2000 22.1013 1.4381
33.2200 22.1147 1.4338
33.2400 22.1280 1.4401
33.2600 22.1414 1.4361
33.2800 22.1547 1.4415
33.3000 22.1680 1.4382
33.3200 22.1813 1.4424
33.3400 22.1947 1.4394
33.3600 22.2080 1.4434
33.3800 22.2213 1.4426
33.4000 22.2347 1.4431
33.4200 22.2481 1.4453
33.4400 22.2614 1.4450
33.4600 22.2747 1.4475
33.4800 22.2880 1.4473
33.5000 22.3014 1.4496
33.5200 22.3147 1.4480
33.5400 22.3280 1.4522
33.5600 22.3413 1.4504
33.5800 22.3547 1.4534
33.6000 22.3680 1.4524
33.6200 22.3813 1.4526
33.6400 22.3946 1.4498
33.6600 22.4079 1.4513
33.6800 22.4213 1.4523
33.7000 22.4347 1.4531
33.7200 22.4480 1.4555
33.7400 22.4613 1.4559
33.7600 22.4747 1.4579
33.7800 22.4881 1.4584
33.8000 22.5014 1.4596
33.8200 22.5147 1.4602
33.8400 22.5280 1.4625
33.8600 22.5414 1.4620
33.8800 22.5547 1.4639
33.9000 22.5680 1.4645
33.9200 22.5813 1.4669
33.9400 22.5947 1.4656
33.9600 22.6080 1.4690
33.9800 22.6214 1.4672
34.0000 22.6347 1.4710
34.0200 22.6480 1.4692
34.0400 22.6613 1.4725
34.0600 22.6747 1.4717
34.0800 22.6880 1.4734
34.1000 22.7013 1.4726
34.1200 22.7147 1.4710
34.1400 22.7281 1.4725
34.1600 22.7414 1.4723
34.1800 22.7547 1.4749
34.2000 22.7680 1.4751
34.2200 22.7814 1.4781
34.2400 22.7948 1.4760
34.2600 22.8081 1.4809
34.2800 22.8214 1.4790
34.3000 22.8347 1.4825
34.3200 22.8480 1.4808
34.3400 22.8614 1.4845
34.3600 22.8747 1.4836
34.3800 22.8880 1.4859
34.4000 22.9013 1.4867
34.4200 22.9146 1.4878
34.4400 22.9279 1.4881
34.4600 22.9413 1.4907
34.4800 22.9547 1.4904
34.5000 22.9681 1.4923
34.5200 22.9814 1.4923
34.5400 22.9947 1.4941
34.5600 23.0080 1.4941
34.5800 23.0214 1.4961
34.6000 23.0348 1.4956
34.6200 23.0481 1.4972
34.6400 23.0614 1.4983
34.6600 23.0747 1.4988
34.6800 23.0880 1.4999
34.7000 23.1013 1.5012
34.7200 23.1146 1.5019
34.7400 23.1279 1.5026
34.7600 23.1413 1.5055
34.7800 23.1546 1.5044
34.8000 23.1680 1.5074
34.8200 23.1813 1.5066
34.8400 23.1947 1.5094
34.8600 23.2080 1.5091
34.8800 23.2214 1.5107
34.9000 23.2347 1.5118
34.9200 23.2480 1.5120
34.9400 23.2614 1.5145
34.9600 23.2747 1.5138
34.9800 23.2881 1.5157
35.0000 23.3013 1.5157
35.0200 23.3146 1.5180
35.0400 23.3280 1.5167
35.0600 23.3413 1.5205
35.0800 23.3546 1.5190
35.1000 23.3680 1.5228
35.1200 23.3813 1.5208
35.1400 23.3947 1.5240
35.1600 23.4080 1.5225
35.1800 23.4214 1.5233
35.2000 23.4347 1.5228
35.2200 23.4481 1.5229
35.2400 23.4614 1.5257
35.2600 23.4747 1.5258
35.2800 23.4880 1.5276
35.3000 23.5014 1.5291
35.3200 23.5147 1.5296
35.3400 23.5281 1.5307
35.3600 23.5414 1.5327
35.3800 23.5547 1.5332
35.4000 23.5681 1.5350
35.4200 23.5814 1.5351
35.4400 23.5947 1.5378
35.4600 23.6080 1.5372
35.4800 23.6213 1.5398
35.5000 23.6347 1.5391
35.5200 23.6480 1.5416
35.5400 23.6613 1.5411
35.5600 23.6746 1.5444
35.5800 23.6880 1.5424
35.6000 23.7014 1.5469
35.6200 23.7147 1.5452
35.6400 23.7280 1.5483
35.6600 23.7414 1.5480
35.6800 23.7548 1.5498
35.7000 23.7681 1.5511
35.7200 23.7814 1.5510
35.7400 23.7947 1.5546
35.7600 23.8080 1.5516
35.7800 23.8214 1.5540
35.8000 23.8347 1.5503
35.8200 23.8480 1.5542
35.8400 23.8613 1.5530
35.8600 23.8746 1.5570
35.8800 23.8880 1.5553
35.9000 23.9013 1.5585
35.9200 23.9146 1.5584
35.9400 23.9280 1.5577
35.9600 23.9414 1.5605
35.9800 23.9547 1.5607
36.0000 23.9680 1.5634
36.0200 23.9814 1.5627
36.0400 23.9947 1.5664
36.0600 24.0081 1.5641
36.0800 24.0214 1.5697
36.1000 24.0347 1.5675
36.1200 24.0480 1.5709
36.1400 24.0614 1.5697
36.1600 24.0747 1.5734
36.1800 24.0880 1.5724
36.2000 24.1013 1.5759
36.2200 24.1147 1.5754
36.2400 24.1280 1.5770
36.2600 24.1413 1.5783
36.2800 24.1546 1.5797
36.3000 24.1680 1.5802
36.3200 24.1814 1.5815
36.3400 24.1947 1.5828
36.3600 24.2080 1.5833
36.3800 24.2214 1.5856
36.4000 24.2348 1.5853
36.4200 24.2481 1.5872
36.4400 24.2614 1.5865
36.4600 24.2747 1.5906
36.4800 24.2880 1.5886
36.5000 24.3014 1.5927
36.5200 24.3147 1.5917
36.5400 24.3280 1.5941
36.5600 24.3413 1.5943
36.5800 24.3546 1.5964
36.6000 24.3680 1.5959
36.6200 24.3813 1.5994
36.6400 24.3947 1.5984
36.6600 24.4080 1.6007
36.6800 24.4214 1.6008
36.7000 24.4348 1.6035
36.7200 24.4481 1.6029
36.7400 24.4614 1.6055
36.7600 24.4748 1.6065
36.7800 24.4881 1.6067
36.8000 24.5014 1.6084
36.8200 24.5147 1.6100
36.8400 24.5280 1.6105
36.8600 24.5413 1.6116
36.8800 24.5546 1.6130
36.9000 24.5680 1.6134
36.9200 24.5813 1.6158
36.9400 24.5946 1.6158
36.9600 24.6080 1.6184
36.9800 24.6213 1.6179
37.0000 24.6347 1.6214
37.0200 24.6481 1.6204
37.0400 24.6614 1.6225
37.0600 24.6748 1.6225
37.0800 24.6881 1.6198
37.1000 24.7014 1.6193
37.1200 24.7148 1.6205
37.1400 24.7281 1.6215
37.1600 24.7414 1.6248
37.1800 24.7547 1.6258
37.2000 24.7680 1.6270
37.2200 24.7813 1.6284
37.2400 24.7947 1.6296
37.2600 24.8080 1.6293
37.2800 24.8213 1.6282
37.3000 24.8346 1.6317
37.3200 24.8480 1.6303
37.3400 24.8613 1.6344
37.3600 24.8746 1.6342
37.3800 24.8880 1.6371
37.4000 24.9014 1.6364
37.4200 24.9147 1.6399
37.4400 24.9280 1.6391
37.4600 24.9414 1.6431
37.4800 24.9547 1.6427
37.5000 24.9681 1.6445
37.5200 24.9814 1.6452
37.5400 24.9947 1.6464
37.5600 25.0080 1.6481
37.5800 25.0214 1.6477
37.6000 25.0347 1.6519
37.6200 25.0480 1.6503
37.6400 25.0613 1.6541
37.6600 25.0746 1.6537
37.6800 25.0880 1.6565
37.7000 25.1013 1.6565
37.7200 25.1146 1.6593
37.7400 25.1280 1.6581
37.7600 25.1414 1.6609
37.7800 25.1548 1.6612
37.8000 25.1681 1.6637
37.8200 25.1814 1.6639
37.8400 25.1948 1.6664
37.8600 25.2081 1.6661
37.8800 25.2214 1.6685
37.9000 25.2347 1.6706
37.9200 25.2480 1.6709
37.9400 25.2613 1.6729
37.9600 25.2747 1.6728
37.9800 25.2880 1.6754
38.0000 25.3013 1.6753
38.0200 25.3146 1.6774
38.0400 25.3280 1.6744
38.0600 25.3413 1.6771
38.0800 25.3547 1.6764
38.1000 25.3680 1.6801
38.1200 25.3814 1.6789
38.1400 25.3948 1.6830
38.1600 25.4081 1.6822
38.1800 25.4214 1.6852
38.2000 25.4347 1.6860
38.2200 25.4481 1.6869
38.2400 25.4614 1.6893
38.2600 25.4747 1.6898
38.2800 25.4880 1.6927
38.3000 25.5013 1.6917
38.3200 25.5147 1.6958
38.3400 25.5280 1.6944
38.3600 25.5413 1.6981
38.3800 25.5546 1.6973
38.4000 25.5680 1.7010
38.4200 25.5813 1.6988
38.4400 25.5947 1.7030
38.4600 25.6080 1.7012
38.4800 25.6214 1.7038
38.5000 25.6348 1.7031
38.5200 25.6481 1.7058
38.5400 25.6614 1.7059
38.5600 25.6747 1.7078
38.5800 25.6881 1.7093
38.6000 25.7014 1.7089
38.6200 25.7147 1.7120
38.6400 25.7280 1.7111
38.6600 25.7413 1.7142
38.6800 25.7547 1.7136
38.7000 25.7679 1.7175
38.7200 25.7812 1.7162
38.7400 25.7946 1.7219
38.7600 25.8080 1.7184
38.7800 25.8213 1.7242
38.8000 25.8347 1.7218
38.8200 25.8480 1.7273
38.8400 25.8614 1.7245
38.8600 25.8748 1.7295
38.8800 25.8881 1.7286
38.9000 25.9014 1.7317
38.9200 25.9147 1.7319
38.9400 25.9281 1.7345
38.9600 25.9414 1.7351
38.9800 25.9547 1.7374
39.0000 25.9680 1.7384
39.0200 25.9813 1.7393
39.0400 25.9947 1.7409
39.0600 26.0080 1.7424
39.0800 26.0213 1.7444
39.1000 26.0346 1.7449
39.1200 26.0480 1.7486
39.1400 26.0613 1.7464
39.1600 26.0746 1.7511
39.1800 26.0880 1.7482
39.2000 26.1014 1.7487
39.2200 26.1148 1.7472
39.2400 26.1281 1.7500
39.2600 26.1413 1.7505
39.2800 26.1547 1.7542
39.3000 26.1681 1.7551
39.3200 26.1814 1.7560
39.3400 26.1947 1.7590
39.3600 26.2080 1.7593
39.3800 26.2214 1.7624
39.4000 26.2347 1.7616
39.4200 26.2480 1.7661
39.4400 26.2613 1.7635
39.4600 26.2746 1.7651
39.4800 26.2880 1.7621
39.5000 26.3013 1.7647
39.5200 26.3147 1.7662
39.5400 26.3280 1.7692
39.5600 26.3413 1.7696
39.5800 26.3547 1.7718
39.6000 26.3680 1.7741
39.6200 26.3814 1.7750
39.6400 26.3947 1.7777
39.6600 26.4081 1.7791
39.6800 26.4214 1.7799
39.7000 26.4347 1.7816
39.7200 26.4480 1.7836
39.7400 26.4614 1.7835
39.7600 26.4747 1.7864
39.7800 26.4880 1.7870
39.8000 26.5013 1.7895
39.8200 26.5146 1.7905
39.8400 26.5280 1.7935
39.8600 26.5413 1.7934
39.8800 26.5546 1.7962
39.9000 26.5680 1.7973
39.9200 26.5814 1.7984
39.9400 26.5948 1.7997
39.9600 26.6081 1.8028
39.9800 26.6214 1.8028
40.0000 26.6348 1.8051
40.0200 26.6481 1.8069
40.0400 26.6614 1.8066
40.0600 26.6747 1.8102
40.0800 26.6880 1.8106
40.1000 26.7013 1.8117
40.1200 26.7147 1.8089
40.1400 26.7280 1.8129
40.1600 26.7413 1.8120
40.1800 26.7546 1.8164
40.2000 26.7680 1.8163
40.2200 26.7814 1.8190
40.2400 26.7947 1.8200
40.2600 26.8080 1.8227
40.2800 26.8214 1.8235
40.3000 26.8348 1.8253
40.3200 26.8481 1.8276
40.3400 26.8614 1.8275
40.3600 26.8747 1.8318
40.3800 26.8880 1.8311
40.4000 26.9014 1.8351
40.4200 26.9147 1.8342
40.4400 26.9280 1.8393
40.4600 26.9413 1.8381
40.4800 26.9547 1.8416
40.5000 26.9680 1.8420
40.5200 26.9813 1.8443
40.5400 26.9946 1.8446
40.5600 27.0080 1.8484
40.5800 27.0213 1.8478
40.6000 27.0347 1.8509
40.6200 27.0480 1.8522
40.6400 27.0614 1.8539
40.6600 27.0747 1.8557
40.6800 27.0881 1.8580
40.7000 27.1014 1.8582
40.7200 27.1147 1.8611
40.7400 27.1281 1.8596
40.7600 27.1414 1.8584
40.7800 27.1547 1.8597
40.8000 27.1680 1.8620
40.8200 27.1813 1.8638
40.8400 27.1947 1.8662
40.8600 27.2080 1.8691
40.8800 27.2213 1.8699
40.9000 27.2346 1.8702
40.9200 27.2480 1.8697
40.9400 27.2613 1.8726
40.9600 27.2747 1.8730
40.9800 27.2880 1.8775
41.0000 27.3014 1.8771
41.0200 27.3148 1.8812
41.0400 27.3281 1.8820
41.0600 27.3414 1.8837
41.0800 27.3547 1.8858
41.1000 27.3681 1.8892
41.1200 27.3814 1.8902
41.1400 27.3947 1.8914
41.1600 27.4080 1.8952
41.1800 27.4213 1.8946
41.2000 27.4347 1.8991
41.2200 27.4480 1.8986
41.2400 27.4613 1.9035
41.2600 27.4746 1.9010
41.2800 27.4880 1.9082
41.3000 27.5014 1.9050
41.3200 27.5147 1.9111
41.3400 27.5280 1.9106
41.3600 27.5414 1.9132
41.3800 27.5547 1.9115
41.4000 27.5681 1.9140
41.4200 27.5814 1.9131
41.4400 27.5947 1.9156
41.4600 27.6081 1.9173
41.4800 27.6214 1.9199
41.5000 27.6348 1.9215
41.5200 27.6480 1.9250
41.5400 27.6614 1.9258
41.5600 27.6747 1.9279
41.5800 27.6880 1.9316
41.6000 27.7013 1.9316
41.6200 27.7146 1.9352
41.6400 27.7279 1.9367
41.6600 27.7413 1.9393
41.6800 27.7546 1.9394
41.7000 27.7680 1.9428
41.7200 27.7814 1.9402
41.7400 27.7948 1.9430
41.7600 27.8081 1.9435
41.7800 27.8214 1.9476
41.8000 27.8347 1.9484
41.8200 27.8481 1.9525
41.8400 27.8614 1.9533
41.8600 27.8747 1.9558
41.8800 27.8880 1.9595
41.9000 27.9013 1.9599
41.9200 27.9147 1.9630
41.9400 27.9280 1.9646
41.9600 27.9413 1.9682
41.9800 27.9546 1.9674
42.0000 27.9679 1.9706
42.0200 27.9813 1.9698
42.0400 27.9946 1.9720
42.0600 28.0080 1.9740
42.0800 28.0213 1.9774
42.1000 28.0347 1.9786
42.1200 28.0481 1.9827
42.1400 28.0614 1.9831
42.1600 28.0747 1.9873
42.1800 28.0881 1.9887
42.2000 28.1014 1.9917
42.2200 28.1147 1.9930
42.2400 28.1280 1.9961
42.2600 28.1413 1.9981
42.2800 28.1547 1.9998
42.3000 28.1680 2.0031
42.3200 28.1813 2.0047
42.3400 28.1946 2.0073
42.3600 28.2080 2.0090
42.3800 28.2214 2.0124
42.4000 28.2347 2.0127
42.4200 28.2481 2.0176
42.4400 28.2614 2.0172
42.4600 28.2748 2.0214
42.4800 28.2881 2.0217
42.5000 28.3014 2.0259
42.5200 28.3147 2.0212
42.5400 28.3280 2.0215
42.5600 28.3414 2.0187
42.5800 28.3547 2.0227
42.6000 28.3680 2.0254
42.6200 28.3814 2.0290
42.6400 28.3947 2.0313
42.6600 28.4081 2.0347
42.6800 28.4213 2.0385
42.7000 28.4346 2.0390
42.7200 28.4480 2.0448
42.7400 28.4613 2.0447
42.7600 28.4746 2.0488
42.7800 28.4880 2.0499
42.8000 28.5013 2.0551
42.8200 28.5147 2.0551
42.8400 28.5281 2.0603
42.8600 28.5414 2.0617
42.8800 28.5547 2.0638
42.9000 28.5681 2.0681
42.9200 28.5814 2.0697
42.9400 28.5947 2.0726
42.9600 28.6080 2.0750
42.9800 28.6213 2.0773
43.0000 28.6347 2.0766
43.0200 28.6480 2.0804
43.0400 28.6613 2.0823
43.0600 28.6746 2.0861
43.0800 28.6879 2.0877
43.1000 28.7013 2.0924
43.1200 28.7146 2.0922
43.1400 28.7280 2.0991
43.1600 28.7413 2.0988
43.1800 28.7547 2.1036
43.2000 28.7680 2.1047
43.2200 28.7814 2.1099
43.2400 28.7947 2.1089
43.2600 28.8081 2.1143
43.2800 28.8214 2.1144
43.3000 28.8347 2.1152
43.3200 28.8480 2.1157
43.3400 28.8614 2.1189
43.3600 28.8747 2.1218
43.3800 28.8880 2.1250
43.4000 28.9013 2.1291
43.4200 28.9146 2.1280
43.4400 28.9280 2.1323
43.4600 28.9413 2.1309
43.4800 28.9546 2.1363
43.5000 28.9680 2.1378
43.5200 28.9813 2.1443
43.5400 28.9947 2.1439
43.5600 29.0081 2.1505
43.5800 29.0214 2.1523
43.6000 29.0347 2.1566
43.6200 29.0481 2.1599
43.6400 29.0614 2.1636
43.6600 29.0748 2.1661
43.6800 29.0881 2.1698
43.7000 29.1014 2.1746
43.7200 29.1147 2.1749
43.7400 29.1281 2.1820
43.7600 29.1413 2.1820
43.7800 29.1546 2.1878
43.8000 29.1680 2.1878
43.8200 29.1813 2.1945
43.8400 29.1947 2.1924
43.8600 29.2080 2.1976
43.8800 29.2213 2.1975
43.9000 29.2347 2.2026
43.9200 29.2481 2.2042
43.9400 29.2614 2.2095
43.9600 29.2747 2.2112
43.9800 29.2881 2.2171
44.0000 29.3014 2.2197
44.0200 29.3147 2.2238
44.0400 29.3280 2.2280
44.0600 29.3413 2.2315
44.0800 29.3546 2.2346
44.1000 29.3680 2.2375
44.1200 29.3813 2.2425
44.1400 29.3946 2.2364
44.1600 29.4080 2.2419
44.1800 29.4213 2.2415
44.2000 29.4347 2.2497
44.2200 29.4480 2.2490
44.2400 29.4613 2.2569
44.2600 29.4747 2.2533
44.2800 29.4881 2.2642
44.3000 29.5014 2.2634
44.3200 29.5147 2.2720
44.3400 29.5281 2.2732
44.3600 29.5414 2.2798
44.3800 29.5547 2.2827
44.4000 29.5680 2.2867
44.4200 29.5813 2.2922
44.4400 29.5946 2.2943
44.4600 29.6080 2.3003
44.4800 29.6213 2.3030
44.5000 29.6346 2.3083
44.5200 29.6479 2.3101
44.5400 29.6613 2.3145
44.5600 29.6747 2.3116
44.5800 29.6880 2.3175
44.6000 29.7013 2.3190
44.6200 29.7147 2.3243
44.6400 29.7281 2.3280
44.6600 29.7414 2.3337
44.6800 29.7547 2.3376
44.7000 29.7680 2.3419
44.7200 29.7814 2.3472
44.7400 29.7947 2.3503
44.7600 29.8081 2.3560
44.7800 29.8214 2.3603
44.8000 29.8347 2.3590
44.8200 29.8481 2.3587
44.8400 29.8614 2.3620
44.8600 29.8747 2.3659
44.8800 29.8879 2.3730
44.9000 29.9013 2.3773
44.9200 29.9146 2.3822
44.9400 29.9280 2.3857
44.9600 29.9413 2.3922
44.9800 29.9547 2.3925
45.0000 29.9681 2.3958
45.0200 29.9814 2.3981
45.0400 29.9947 2.4031
45.0490 30.0006 2.4019
45.0500 30.0012 2.4016
45.0510 30.0019 2.4011
45.0710 30.0122 2.3887
45.0910 30.0141 2.3801
45.1110 30.0057 2.3797
45.1310 29.9928 2.3821
45.1510 29.9799 2.3631
45.1710 29.9671 2.3551
45.1910 29.9537 2.3390
45.2110 29.9397 2.3325
45.2310 29.9256 2.3185
45.2510 29.9118 2.3120
45.2710 29.8983 2.2990
45.2910 29.8850 2.2886
45.3110 29.8717 2.2797
45.3310 29.8584 2.2704
45.3510 29.8450 2.2631
45.3710 29.8316 2.2526
45.3910 29.8183 2.2473
45.4110 29.8050 2.2342
45.4310 29.7916 2.2309
45.4510 29.7782 2.2194
45.4710 29.7649 2.2145
45.4910 29.7516 2.2039
45.5110 29.7382 2.1987
45.5310 29.7248 2.1900
45.5510 29.7115 2.1849
45.5710 29.6982 2.1765
45.5910 29.6849 2.1703
45.6110 29.6715 2.1626
45.6310 29.6582 2.1574
45.6510 29.6449 2.1495
45.6710 29.6316 2.1438
45.6910 29.6182 2.1390
45.7110 29.6049 2.1298
45.7310 29.5915 2.1268
45.7510 29.5783 2.1188
45.7710 29.5649 2.1145
45.7910 29.5516 2.1067
45.8110 29.5382 2.1041
45.8310 29.5249 2.0947
45.8510 29.5116 2.0930
45.8710 29.4982 2.0843
45.8910 29.4849 2.0819
45.9110 29.4715 2.0738
45.9310 29.4582 2.0721
45.9510 29.4449 2.0631
45.9710 29.4315 2.0610
45.9910 29.4182 2.0545
46.0110 29.4049 2.0497
46.0310 29.3916 2.0455
46.0510 29.3782 2.0398
46.0710 29.3649 2.0368
46.0910 29.3516 2.0300
46.1110 29.3383 2.0280
46.1310 29.3249 2.0198
46.1510 29.3116 2.0195
46.1710 29.2983 2.0112
46.1910 29.2849 2.0098
46.2110 29.2716 2.0021
46.2310 29.2582 2.0019
46.2510 29.2448 1.9938
46.2710 29.2315 1.9927
46.2910 29.2182 1.9869
46.3110 29.2048 1.9829
46.3310 29.1915 1.9785
46.3510 29.1781 1.9751
46.3710 29.1648 1.9713
46.3910 29.1515 1.9667
46.4110 29.1382 1.9636
46.4310 29.1249 1.9592
46.4510 29.1116 1.9561
46.4710 29.0983 1.9524
46.4910 29.0850 1.9476
46.5110 29.0716 1.9445
46.5310 29.0582 1.9411
46.5510 29.0448 1.9366
46.5710 29.0315 1.9332
46.5910 29.0181 1.9301
46.6110 29.0048 1.9261
46.6310 28.9914 1.9226
46.6510 28.9781 1.9199
46.6710 28.9648 1.9154
46.6910 28.9515 1.9128
46.7110 28.9381 1.9094
46.7310 28.9248 1.9054
46.7510 28.9115 1.9023
46.7710 28.8982 1.8991
46.7910 28.8849 1.8958
46.8110 28.8716 1.8918
46.8310 28.8583 1.8903
46.8510 28.8450 1.8852
46.8710 28.8316 1.8837
46.8910 28.8183 1.8788
46.9110 28.8049 1.8777
46.9310 28.7915 1.8718
46.9510 28.7782 1.8725
46.9710 28.7648 1.8651
46.9910 28.7514 1.8662
47.0110 28.7381 1.8604
47.0310 28.7248 1.8578
47.0510 28.7115 1.8552
47.0710 28.6981 1.8526
47.0910 28.6848 1.8496
47.1110 28.6716 1.8456
47.1310 28.6582 1.8447
47.1510 28.6449 1.8391
47.1710 28.6316 1.8384
47.1910 28.6183 1.8343
47.2110 28.6050 1.8327
47.2310 28.5916 1.8279
47.2510 28.5782 1.8276
47.2710 28.5649 1.8223
47.2910 28.5516 1.8217
47.3110 28.5382 1.8182
47.3310 28.5248 1.8156
47.3510 28.5115 1.8117
47.3710 28.4982 1.8101
47.3910 28.4848 1.8066
47.4110 28.4715 1.8042
47.4310 28.4581 1.8030
47.4510 28.4448 1.7987
47.4710 28.4315 1.7960
47.4910 28.4182 1.7953
47.5110 28.4048 1.7906
47.5310 28.3915 1.7893
47.5510 28.3782 1.7878
47.5710 28.3649 1.7816
47.5910 28.3516 1.7830
47.6110 28.3382 1.7777
47.6310 28.3249 1.7776
47.6510 28.3116 1.7732
47.6710 28.2982 1.7719
47.6910 28.2848 1.7677
47.7110 28.2715 1.7678
47.7310 28.2582 1.7630
47.7510 28.2449 1.7632
47.7710 28.2315 1.7573
47.7910 28.2182 1.7578
47.8110 28.2048 1.7543
47.8310 28.1915 1.7512
47.8510 28.1782 1.7519
47.8710 28.1648 1.7457
47.8910 28.1515 1.7460
47.9110 28.1382 1.7421
47.9310 28.1249 1.7421
47.9510 28.1115 1.7364
47.9710 28.0982 1.7392
47.9910 28.0849 1.7311
48.0110 28.0716 1.7330
48.0310 28.0582 1.7282
48.0510 28.0449 1.7282
48.0710 28.0315 1.7236
48.0910 28.0182 1.7241
48.1110 28.0048 1.7189
48.1310 27.9915 1.7198
48.1510 27.9781 1.7152
48.1710 27.9648 1.7148
48.1910 27.9515 1.7113
48.2110 27.9382 1.7098
48.2310 27.9249 1.7078
48.2510 27.9115 1.7048
48.2710 27.8982 1.7039
48.2910 27.8849 1.7019
48.3110 27.8716 1.6986
48.3310 27.8582 1.6974
48.3510 27.8449 1.6959
48.3710 27.8316 1.6915
48.3910 27.8182 1.6928
48.4110 27.8049 1.6868
48.4310 27.7915 1.6883
48.4510 27.7782 1.6843
48.4710 27.7649 1.6833
48.4910 27.7515 1.6796
48.5110 27.7381 1.6797
48.5310 27.7248 1.6762
48.5510 27.7115 1.6746
48.5710 27.6982 1.6741
48.5910 27.6849 1.6708
48.6110 27.6716 1.6701
48.6310 27.6583 1.6655
48.6510 27.6449 1.6669
48.6710 27.6316 1.6609
48.6910 27.6182 1.6641
48.7110 27.6048 1.6572
48.7310 27.5915 1.6589
48.7510 27.5782 1.6540
48.7710 27.5648 1.6546
48.7910 27.5515 1.6511
48.8110 27.5382 1.6506
48.8310 27.5249 1.6471
48.8510 27.5115 1.6453
48.8710 27.4982 1.6448
48.8910 27.4849 1.6421
48.9110 27.4715 1.6406
48.9310 27.4582 1.6389
48.9510 27.4448 1.6367
48.9710 27.4315 1.6338
48.9910 27.4182 1.6341
49.0110 27.4049 1.6309
49.0310 27.3916 1.6293
49.0510 27.3782 1.6274
49.0710 27.3649 1.6260
49.0910 27.3515 1.6235
49.1110 27.3382 1.6230
49.1310 27.3249 1.6191
49.1510 27.3115 1.6193
49.1710 27.2982 1.6167
49.1910 27.2849 1.6150
49.2110 27.2715 1.6129
49.2310 27.2582 1.6119
49.2510 27.2448 1.6099
49.2710 27.2315 1.6077
49.2910 27.2182 1.6069
49.3110 27.2049 1.6046
49.3310 27.1915 1.6028
49.3510 27.1782 1.6004
49.3710 27.1649 1.6007
49.3910 27.1515 1.5955
49.4110 27.1382 1.5981
49.4310 27.1248 1.5922
49.4510 27.1115 1.5937
49.4710 27.0982 1.5897
49.4910 27.0849 1.5901
49.5110 27.0715 1.5865
49.5310 27.0582 1.5864
49.5510 27.0449 1.5841
49.5710 27.0315 1.5813
49.5910 27.0182 1.5819
49.6110 27.0048 1.5784
49.6310 26.9915 1.5787
49.6510 26.9782 1.5738
49.6710 26.9649 1.5765
49.6910 26.9515 1.5699
49.7110 26.9382 1.5737
49.7310 26.9249 1.5670
49.7510 26.9116 1.5698
49.7710 26.8982 1.5643
49.7910 26.8849 1.5667
49.8110 26.8716 1.5618
49.8310 26.8582 1.5621
49.8510 26.8449 1.5595
49.8710 26.8315 1.5577
49.8910 26.8182 1.5574
49.9110 26.8048 1.5549
49.9310 26.7915 1.5529
49.9510 26.7781 1.5517
49.9710 26.7648 1.5513
49.9910 26.7515 1.5471
50.0110 26.7382 1.5482
50.0310 26.7249 1.5448
50.0510 26.7115 1.5446
50.0710 26.6982 1.5408
50.0910 26.6849 1.5423
50.1110 26.6716 1.5378
50.1310 26.6582 1.5393
50.1510 26.6449 1.5359
50.1710 26.6315 1.5350
50.1910 26.6182 1.5328
50.2110 26.6049 1.5325
50.2310 26.5915 1.5295
50.2510 26.5781 1.5296
50.2710 26.5648 1.5272
50.2910 26.5515 1.5246
50.3110 26.5381 1.5258
50.3310 26.5248 1.5222
50.3510 26.5115 1.5228
50.3710 26.4982 1.5171
50.3910 26.4849 1.5210
50.4110 26.4715 1.5134
50.4310 26.4582 1.5185
50.4510 26.4449 1.5115
50.4710 26.4316 1.5142
50.4910 26.4182 1.5090
50.5110 26.4049 1.5115
50.5310 26.3916 1.5057
50.5510 26.3782 1.5080
50.5710 26.3649 1.5044
50.5910 26.3515 1.5035
50.6110 26.3382 1.5024
50.6310 26.3249 1.4999
50.6510 26.3115 1.4997
50.6710 26.2982 1.4965
50.6910 26.2848 1.4982
50.7110 26.2715 1.4923
50.7310 26.2582 1.4951
50.7510 26.2449 1.4908
50.7710 26.2315 1.4914
50.7910 26.2182 1.4881
50.8110 26.2049 1.4888
50.8310 26.1916 1.4842
50.8510 26.1782 1.4858
50.8710 26.1649 1.4830
50.8910 26.1516 1.4822
50.9110 26.1383 1.4796
50.9310 26.1249 1.4800
50.9510 26.1115 1.4767
50.9710 26.0981 1.4769
50.9910 26.0849 1.4750
51.0110 26.0715 1.4727
51.0310 26.0582 1.4722
51.0510 26.0448 1.4703
51.0710 26.0315 1.4703
51.0910 26.0182 1.4667
51.1110 26.0049 1.4683
51.1310 25.9915 1.4633
51.1510 25.9782 1.4661
51.1710 25.9649 1.4608
51.1910 25.9516 1.4628
51.2110 25.9382 1.4581
51.2310 25.9249 1.4605
51.2510 25.9116 1.4556
51.2710 25.8983 1.4563
51.2910 25.8849 1.4542
51.3110 25.8715 1.4525
51.3310 25.8582 1.4523
51.3510 25.8449 1.4508
51.3710 25.8315 1.4494
51.3910 25.8182 1.4466
51.4110 25.8048 1.4483
51.4310 25.7915 1.4428
51.4510 25.7782 1.4450
51.4710 25.7648 1.4418
51.4910 25.7515 1.4418
51.5110 25.7382 1.4388
51.5310 25.7249 1.4402
51.5510 25.7116 1.4357
51.5710 25.6983 1.4372
51.5910 25.6849 1.4340
51.6110 25.6716 1.4344
51.6310 25.6582 1.4311
51.6510 25.6449 1.4320
51.6710 25.6315 1.4286
51.6910 25.6181 1.4283
51.7110 25.6049 1.4264
51.7310 25.5915 1.4259
51.7510 25.5782 1.4238
51.7710 25.5648 1.4238
51.7910 25.5515 1.4215
51.8110 25.5382 1.4196
51.8310 25.5248 1.4202
51.8510 25.5115 1.4169
51.8710 25.4982 1.4174
51.8910 25.4849 1.4148
51.9110 25.4716 1.4141
51.9310 25.4583 1.4115
51.9510 25.4449 1.4128
51.9710 25.4316 1.4102
51.9910 25.4183 1.4085
52.0110 25.4050 1.4080
52.0310 25.3916 1.4058
52.0510 25.3782 1.4054
52.0710 25.3648 1.4040
52.0910 25.3515 1.4026
52.1110 25.3381 1.4006
52.1310 25.3248 1.4017
52.1510 25.3115 1.3973
52.1710 25.2982 1.3989
52.1910 25.2849 1.3957
52.2110 25.2715 1.3970
52.2310 25.2582 1.3923
52.2510 25.2449 1.3949
52.2710 25.2316 1.3901
52.2910 25.2182 1.3907
52.3110 25.2049 1.3894
52.3310 25.1915 1.3888
52.3510 25.1782 1.3861
52.3710 25.1649 1.3859
52.3910 25.1515 1.3842
52.4110 25.1381 1.3828
52.4310 25.1248 1.3827
52.4510 25.1115 1.3806
52.4710 25.0981 1.3799
52.4910 25.0848 1.3784
52.5110 25.0715 1.3782
52.5310 25.0582 1.3748
52.5510 25.0449 1.3774
52.5710 25.0315 1.3727
52.5910 25.0182 1.3735
52.6110 25.0049 1.3710
52.6310 24.9916 1.3712
52.6510 24.9783 1.3681
52.6710 24.9649 1.3696
52.6910 24.9515 1.3658
52.7110 24.9382 1.3668
52.7310 24.9249 1.3633
52.7510 24.9115 1.3649
52.7710 24.8981 1.3607
52.7910 24.8848 1.3627
52.8110 24.8715 1.3592
52.8310 24.8582 1.3585
52.8510 24.8448 1.3587
52.8710 24.8315 1.3561
52.8910 24.8182 1.3560
52.9110 24.8049 1.3540
52.9310 24.7915 1.3541
52.9510 24.7782 1.3513
52.9710 24.7649 1.3528
52.9910 24.7516 1.3485
53.0110 24.7383 1.3504
53.0310 24.7249 1.3463
53.0510 24.7115 1.3483
53.0710 24.6982 1.3439
53.0910 24.6849 1.3453
53.1110 24.6715 1.3431
53.1310 24.6582 1.3416
53.1510 24.6448 1.3413
53.1710 24.6315 1.3394
53.1910 24.6182 1.3392
53.2110 24.6048 1.3373
53.2310 24.5915 1.3375
53.2510 24.5782 1.3338
53.2710 24.5648 1.3361
53.2910 24.5515 1.3326
53.3110 24.5382 1.3336
53.3310 24.5249 1.3299
53.3510 24.5116 1.3314
53.3710 24.4982 1.3267
53.3910 24.4849 1.3297
53.4110 24.4716 1.3259
53.4310 24.4583 1.3259
53.4510 24.4449 1.3236
53.4710 24.4316 1.3238
53.4910 24.4182 1.3212
53.5110 24.4048 1.3222
53.5310 24.3915 1.3196
53.5510 24.3781 1.3184
53.5710 24.3648 1.3187
53.5910 24.3514 1.3166
53.6110 24.3382 1.3159
53.6310 24.3248 1.3140
53.6510 24.3115 1.3148
53.6710 24.2982 1.3111
53.6910 24.2849 1.3136
53.7110 24.2716 1.3093
53.7310 24.2583 1.3101
53.7510 24.2449 1.3076
53.7710 24.2315 1.3080
53.7910 24.2182 1.3055
53.8110 24.2049 1.3055
53.8310 24.1915 1.3041
53.8510 24.1781 1.3022
53.8710 24.1648 1.3028
53.8910 24.1515 1.3003
53.9110 24.1382 1.3003
53.9310 24.1248 1.2981
53.9510 24.1115 1.2991
53.9710 24.0982 1.2949
53.9910 24.0849 1.2976
54.0110 24.0715 1.2934
54.0310 24.0582 1.2948
54.0510 24.0449 1.2917
54.0710 24.0316 1.2927
54.0910 24.0183 1.2893
54.1110 24.0049 1.2908
54.1310 23.9916 1.2889
54.1510 23.9782 1.2864
54.1710 23.9649 1.2875
54.1910 23.9515 1.2847
54.2110 23.9381 1.2857
54.2310 23.9248 1.2820
54.2510 23.9115 1.2842
54.2710 23.8982 1.2796
54.2910 23.8848 1.2817
54.3110 23.8715 1.2788
54.3310 23.8582 1.2794
54.3510 23.8449 1.2762
54.3710 23.8316 1.2784
54.3910 23.8182 1.2733
54.4110 23.8049 1.2765
54.4310 23.7916 1.2724
54.4510 23.7783 1.2729
54.4710 23.7649 1.2709
54.4910 23.7515 1.2709
54.5110 23.7382 1.2695
54.5310 23.7249 1.2674
54.5510 23.7115 1.2686
54.5710 23.6982 1.2653
54.5910 23.6848 1.2659
54.6110 23.6715 1.2644
54.6310 23.6582 1.2631
54.6510 23.6448 1.2621
54.6710 23.6315 1.2634
54.6910 23.6182 1.2582
54.7110 23.6049 1.2617
54.7310 23.5915 1.2562
54.7510 23.5782 1.2596
54.7710 23.5649 1.2553
54.7910 23.5516 1.2555
54.8110 23.5383 1.2552
54.8310 23.5249 1.2525
54.8510 23.5115 1.2537
54.8710 23.4982 1.2506
54.8910 23.4849 1.2505
54.9110 23.4715 1.2507
54.9310 23.4581 1.2477
54.9510 23.4448 1.2469
54.9710 23.4315 1.2492
54.9910 23.4182 1.2429
55.0110 23.4048 1.2471
55.0310 23.3915 1.2425
55.0510 23.3782 1.2433
55.0710 23.3649 1.2417
55.0910 23.3515 1.2410
55.1110 23.3382 1.2404
55.1310 23.3249 1.2395
55.1510 23.3116 1.2378
55.1710 23.2982 1.2376
55.1910 23.2849 1.2357
55.2110 23.2715 1.2358
55.2310 23.2582 1.2341
55.2510 23.2449 1.2327
55.2710 23.2316 1.2331
55.2910 23.2182 1.2306
55.3110 23.2048 1.2313
55.3310 23.1915 1.2288
55.3510 23.1782 1.2288
55.3710 23.1648 1.2270
55.3910 23.1515 1.2274
55.4110 23.1382 1.2245
55.4310 23.1249 1.2253
55.4510 23.1115 1.2233
55.4710 23.0982 1.2238
55.4910 23.0849 1.2198
55.5110 23.0716 1.2232
55.5310 23.0583 1.2180
55.5510 23.0449 1.2199
55.5710 23.0315 1.2186
55.5910 23.0182 1.2165
55.6110 23.0049 1.2162
55.6310 22.9916 1.2151
55.6510 22.9782 1.2143
55.6710 22.9648 1.2140
55.6910 22.9515 1.2126
55.7110 22.9382 1.2109
55.7310 22.9248 1.2118
55.7510 22.9115 1.2080
55.7710 22.8981 1.2107
55.7910 22.8849 1.2062
55.8110 22.8716 1.2086
55.8310 22.8582 1.2053
55.8510 22.8449 1.2053
55.8710 22.8316 1.2036
55.8910 22.8183 1.2046
55.9110 22.8049 1.2020
55.9310 22.7915 1.2025
55.9510 22.7782 1.2004
55.9710 22.7649 1.1989
55.9910 22.7515 1.1997
56.0110 22.7381 1.1975
56.0310 22.7248 1.1977
56.0510 22.7115 1.1954
56.0710 22.6982 1.1955
56.0910 22.6848 1.1936
56.1110 22.6715 1.1951
56.1310 22.6582 1.1913
56.1510 22.6449 1.1925
56.1710 22.6315 1.1905
56.1910 22.6182 1.1902
56.2110 22.6049 1.1888
56.2310 22.5916 1.1890
56.2510 22.5782 1.1866
56.2710 22.5649 1.1856
56.2910 22.5515 1.1867
56.3110 22.5382 1.1836
56.3310 22.5249 1.1844
56.3510 22.5115 1.1813
56.3710 22.4982 1.1828
56.3910 22.4848 1.1798
56.4110 22.4715 1.1817
56.4310 22.4582 1.1775
56.4510 22.4449 1.1794
56.4710 22.4315 1.1761
56.4910 22.4182 1.1784
56.5110 22.4049 1.1735
56.5310 22.3916 1.1766
56.5510 22.3782 1.1725
56.5710 22.3649 1.1740
56.5910 22.3516 1.1718
56.6110 22.3382 1.1714
56.6310 22.3249 1.1700
56.6510 22.3115 1.1698
56.6710 22.2982 1.1690
56.6910 22.2849 1.1666
56.7110 22.2715 1.1680
56.7310 22.2582 1.1651
56.7510 22.2448 1.1650
56.7710 22.2315 1.1641
56.7910 22.2182 1.1645
56.8110 22.2049 1.1607
56.8310 22.1915 1.1636
56.8510 22.1782 1.1592
56.8710 22.1649 1.1612
56.8910 22.1515 1.1582
56.9110 22.1382 1.1588
56.9310 22.1248 1.1573
56.9510 22.1116 1.1565
56.9710 22.0983 1.1567
56.9910 22.0849 1.1538
57.0110 22.0716 1.1545
57.0310 22.0582 1.1531
57.0510 22.0449 1.1518
57.0710 22.0315 1.1513
57.0910 22.0182 1.1518
57.1110 22.0048 1.1483
57.1310 21.9915 1.1508
57.1510 21.9782 1.1460
57.1710 21.9648 1.1482
57.1910 21.9515 1.1461
57.2110 21.9382 1.1470
57.2310 21.9248 1.1434
57.2510 21.9115 1.1446
57.2710 21.8982 1.1427
57.2910 21.8848 1.1422
57.3110 21.8715 1.1417
57.3310 21.8583 1.1405
57.3510 21.8449 1.1397
57.3710 21.8315 1.1383
57.3910 21.8182 1.1391
57.4110 21.8049 1.1358
57.4310 21.7916 1.1380
57.4510 21.7782 1.1339
57.4710 21.7648 1.1360
57.4910 21.7515 1.1325
57.5110 21.7382 1.1353
57.5310 21.7248 1.1303
57.5510 21.7115 1.1326
57.5710 21.6981 1.1303
57.5910 21.6848 1.1298
57.6110 21.6715 1.1285
57.6310 21.6582 1.1294
57.6510 21.6449 1.1267
57.6710 21.6316 1.1273
57.6910 21.6183 1.1250
57.7110 21.6049 1.1247
57.7310 21.5915 1.1250
57.7510 21.5782 1.1225
57.7710 21.5649 1.1227
57.7910 21.5515 1.1207
57.8110 21.5382 1.1217
57.8310 21.5248 1.1187
57.8510 21.5115 1.1201
57.8710 21.4982 1.1170
57.8910 21.4848 1.1182
57.9110 21.4715 1.1161
57.9310 21.4582 1.1169
57.9510 21.4449 1.1142
57.9710 21.4315 1.1153
57.9910 21.4182 1.1130
58.0110 21.4049 1.1125
58.0310 21.3916 1.1117
58.0510 21.3783 1.1114
58.0710 21.3649 1.1096
58.0910 21.3515 1.1095
58.1110 21.3382 1.1088
58.1310 21.3249 1.1069
58.1510 21.3116 1.1076
58.1710 21.2982 1.1050
58.1910 21.2848 1.1063
58.2110 21.2715 1.1039
58.2310 21.2582 1.1047
58.2510 21.2449 1.1007
58.2710 21.2315 1.1039
58.2910 21.2182 1.0997
58.3110 21.2049 1.1021
58.3310 21.1916 1.0979
58.3510 21.1782 1.1002
58.3710 21.1649 1.0971
58.3910 21.1515 1.0981
58.4110 21.1382 1.0962
58.4310 21.1249 1.0950
58.4510 21.1115 1.0964
58.4710 21.0982 1.0923
58.4910 21.0849 1.0948
58.5110 21.0716 1.0904
58.5310 21.0582 1.0938
58.5510 21.0448 1.0884
58.5710 21.0315 1.0923
58.5910 21.0182 1.0878
58.6110 21.0049 1.0900
58.6310 20.9915 1.0863
58.6510 20.9781 1.0888
58.6710 20.9648 1.0853
58.6910 20.9515 1.0864
58.7110 20.9382 1.0848
58.7310 20.9249 1.0842
58.7510 20.9116 1.0834
58.7710 20.8983 1.0819
58.7910 20.8849 1.0822
58.8110 20.8716 1.0798
58.8310 20.8582 1.0814
58.8510 20.8449 1.0784
58.8710 20.8315 1.0792
58.8910 20.8182 1.0771
58.9110 20.8048 1.0778
58.9310 20.7915 1.0756
58.9510 20.7782 1.0764
58.9710 20.7649 1.0734
58.9910 20.7515 1.0742
59.0110 20.7381 1.0734
59.0310 20.7248 1.0724
59.0510 20.7115 1.0713
59.0710 20.6982 1.0709
59.0910 20.6848 1.0711
59.1110 20.6715 1.0680
59.1310 20.6583 1.0705
59.1510 20.6449 1.0657
59.1710 20.6316 1.0687
59.1910 20.6182 1.0656
59.2110 20.6049 1.0668
59.2310 20.5916 1.0628
59.2510 20.5782 1.0663
59.2710 20.5648 1.0605
59.2910 20.5515 1.0647
59.3110 20.5381 1.0598
59.3310 20.5248 1.0630
59.3510 20.5115 1.0576
59.3710 20.4981 1.0615
59.3910 20.4848 1.0574
59.4110 20.4715 1.0581
59.4310 20.4582 1.0574
59.4510 20.4449 1.0553
59.4710 20.4316 1.0564
59.4910 20.4183 1.0538
59.5110 20.4050 1.0553
59.5310 20.3916 1.0513
59.5510 20.3782 1.0550
59.5710 20.3649 1.0490
59.5910 20.3515 1.0529
59.6110 20.3382 1.0484
59.6310 20.3248 1.0513
59.6510 20.3115 1.0466
59.6710 20.2982 1.0495
59.6910 20.2848 1.0454
59.7110 20.2715 1.0469
59.7310 20.2581 1.0459
59.7510 20.2448 1.0449
59.7710 20.2315 1.0440
59.7910 20.2182 1.0437
59.8110 20.2049 1.0426
59.8310 20.1916 1.0418
59.8510 20.1783 1.0410
59.8710 20.1650 1.0399
59.8910 20.1516 1.0397
59.9110 20.1382 1.0384
59.9310 20.1249 1.0388
59.9510 20.1115 1.0358
59.9710 20.0982 1.0375
59.9910 20.0848 1.0345
60.0110 20.0715 1.0358
60.0310 20.0582 1.0333
60.0510 20.0448 1.0343
60.0710 20.0315 1.0321
60.0910 20.0181 1.0327
60.1110 20.0048 1.0311
60.1310 19.9915 1.0305
60.1510 19.9782 1.0304
60.1710 19.9649 1.0287
60.1910 19.9515 1.0290
60.2110 19.9383 1.0267
60.2310 19.9249 1.0281
60.2510 19.9116 1.0244
60.2710 19.8982 1.0278
60.2910 19.8849 1.0225
60.3110 19.8716 1.0261
60.3310 19.8582 1.0210
60.3510 19.8448 1.0246
60.3710 19.8315 1.0204
60.3910 19.8182 1.0224
60.4110 19.8048 1.0193
60.4310 19.7915 1.0202
60.4510 19.7781 1.0187
60.4710 19.7648 1.0184
60.4910 19.7515 1.0171
60.5110 19.7382 1.0166
60.5310 19.7249 1.0167
60.5510 19.7116 1.0142
60.5710 19.6983 1.0154
60.5910 19.6849 1.0133
60.6110 19.6716 1.0134
60.6310 19.6582 1.0120
60.6510 19.6449 1.0127
60.6710 19.6316 1.0099
60.6910 19.6182 1.0114
60.7110 19.6049 1.0091
60.7310 19.5915 1.0087
60.7510 19.5782 1.0079
60.7710 19.5649 1.0076
60.7910 19.5515 1.0063
60.8110 19.5381 1.0064
60.8310 19.5248 1.0039
60.8510 19.5115 1.0052
60.8710 19.4982 1.0035
60.8910 19.4849 1.0032
60.9110 19.4715 1.0024
60.9310 19.4582 1.0011
60.9510 19.4449 1.0017
60.9710 19.4316 0.9981
60.9910 19.4182 1.0015
61.0110 19.4049 0.9968
61.0310 19.3916 0.9998
61.0510 19.3782 0.9950
61.0710 19.3649 0.9989
61.0910 19.3515 0.9936
61.1110 19.3382 0.9962
61.1310 19.3248 0.9935
61.1510 19.3115 0.9941
61.1710 19.2981 0.9927
61.1910 19.2848 0.9918
61.2110 19.2715 0.9923
61.2310 19.2582 0.9899
61.2510 19.2449 0.9918
61.2710 19.2315 0.9869
61.2910 19.2182 0.9912
61.3110 19.2049 0.9856
61.3310 19.1916 0.9890
61.3510 19.1782 0.9854
61.3710 19.1649 0.9874
61.3910 19.1516 0.9835
61.4110 19.1382 0.9853
61.4310 19.1248 0.9828
61.4510 19.1114 0.9837
61.4710 19.0981 0.9811
61.4910 19.0848 0.9827
61.5110 19.0715 0.9797
61.5310 19.0581 0.9807
61.5510 19.0448 0.9799
61.5710 19.0316 0.9785
61.5910 19.0183 0.9786
61.6110 19.0049 0.9773
61.6310 18.9915 0.9772
61.6510 18.9782 0.9756
61.6710 18.9649 0.9761
61.6910 18.9516 0.9735
61.7110 18.9382 0.9751
61.7310 18.9249 0.9723
61.7510 18.9116 0.9731
61.7710 18.8982 0.9707
61.7910 18.8848 0.9726
61.8110 18.8715 0.9687
61.8310 18.8582 0.9706
61.8510 18.8449 0.9688
61.8710 18.8315 0.9679
61.8910 18.8182 0.9681
61.9110 18.8048 0.9662
61.9310 18.7915 0.9673
61.9510 18.7782 0.9638
61.9710 18.7648 0.9666
61.9910 18.7515 0.9624
62.0110 18.7382 0.9652
62.0310 18.7249 0.9612
62.0510 18.7116 0.9633
62.0710 18.6982 0.9595
62.0910 18.6849 0.9626
62.1110 18.6716 0.9584
62.1310 18.6582 0.9601
62.1510 18.6449 0.9581
62.1710 18.6315 0.9578
62.1910 18.6182 0.9568
62.2110 18.6048 0.9563
62.2310 18.5915 0.9564
62.2510 18.5782 0.9538
62.2710 18.5648 0.9560
62.2910 18.5515 0.9519
62.3110 18.5382 0.9544
62.3310 18.5249 0.9510
62.3510 18.5115 0.9527
62.3710 18.4982 0.9496
62.3910 18.4849 0.9508
62.4110 18.4716 0.9485
62.4310 18.4582 0.9496
62.4510 18.4449 0.9473
62.4710 18.4316 0.9478
62.4910 18.4182 0.9461
62.5110 18.4049 0.9457
62.5310 18.3915 0.9461
62.5510 18.3782 0.9438
62.5710 18.3649 0.9442
62.5910 18.3515 0.9427
62.6110 18.3382 0.9425
62.6310 18.3248 0.9419
62.6510 18.3115 0.9416
62.6710 18.2982 0.9391
62.6910 18.2848 0.9415
62.7110 18.2715 0.9378
62.7310 18.2582 0.9399
62.7510 18.2449 0.9364
62.7710 18.2316 0.9387
62.7910 18.2182 0.9345
62.8110 18.2049 0.9374
62.8310 18.1915 0.9340
62.8510 18.1782 0.9351
62.8710 18.1649 0.9334
62.8910 18.1515 0.9329
62.9110 18.1381 0.9331
62.9310 18.1248 0.9311
62.9510 18.1115 0.9321
62.9710 18.0982 0.9288
62.9910 18.0848 0.9319
63.0110 18.0715 0.9270
63.0310 18.0582 0.9299
63.0510 18.0449 0.9264
63.0710 18.0316 0.9284
63.0910 18.0183 0.9248
63.1110 18.0049 0.9271
63.1310 17.9916 0.9240
63.1510 17.9782 0.9251
63.1710 17.9649 0.9237
63.1910 17.9516 0.9230
63.2110 17.9382 0.9218
63.2310 17.9248 0.9215
63.2510 17.9115 0.9213
63.2710 17.8981 0.9192
63.2910 17.8848 0.9203
63.3110 17.8715 0.9182
63.3310 17.8582 0.9182
63.3510 17.8448 0.9182
63.3710 17.8315 0.9170
63.3910 17.8182 0.9158
63.4110 17.8049 0.9168
63.4310 17.7915 0.9140
63.4510 17.7782 0.9151
63.4710 17.7649 0.9129
63.4910 17.7516 0.9141
63.5110 17.7382 0.9108
63.5310 17.7249 0.9134
63.5510 17.7115 0.9097
63.5710 17.6982 0.9108
63.5910 17.6849 0.9088
63.6110 17.6715 0.9094
63.6310 17.6582 0.9073
63.6510 17.6449 0.9077
63.6710 17.6315 0.9070
63.6910 17.6182 0.9047
63.7110 17.6048 0.9080
63.7310 17.5915 0.9026
63.7510 17.5782 0.9062
63.7710 17.5649 0.9012
63.7910 17.5515 0.9058
63.8110 17.5382 0.8996
63.8310 17.5249 0.9037
63.8510 17.5116 0.8994
63.8710 17.4982 0.9007
63.8910 17.4848 0.8993
63.9110 17.4715 0.8997
63.9310 17.4582 0.8975
63.9510 17.4449 0.8980
63.9710 17.4315 0.8969
63.9910 17.4182 0.8954
64.0110 17.4049 0.8961
64.0310 17.3915 0.8940
64.0510 17.3782 0.8948
64.0710 17.3648 0.8925
64.0910 17.3515 0.8941
64.1110 17.3382 0.8908
64.1310 17.3249 0.8927
64.1510 17.3115 0.8904
64.1710 17.2982 0.8907
64.1910 17.2849 0.8894
64.2110 17.2716 0.8895
64.2310 17.2582 0.8864
64.2510 17.2449 0.8894
64.2710 17.2316 0.8855
64.2910 17.2183 0.8868
64.3110 17.2049 0.8846
64.3310 17.1915 0.8857
64.3510 17.1782 0.8836
64.3710 17.1648 0.8838
64.3910 17.1515 0.8841
64.4110 17.1381 0.8816
64.4310 17.1248 0.8827
64.4510 17.1115 0.8807
64.4710 17.0982 0.8811
64.4910 17.0849 0.8786
64.5110 17.0715 0.8814
64.5310 17.0582 0.8771
64.5510 17.0449 0.8804
64.5710 17.0316 0.8757
64.5910 17.0182 0.8779
64.6110 17.0049 0.8755
64.6310 16.9915 0.8764
64.6510 16.9782 0.8744
64.6710 16.9649 0.8734
64.6910 16.9515 0.8744
64.7110 16.9382 0.8710
64.7310 16.9248 0.8735
64.7510 16.9115 0.8709
64.7710 16.8982 0.8714
64.7910 16.8848 0.8693
64.8110 16.8715 0.8704
64.8310 16.8582 0.8679
64.8510 16.8449 0.8700
64.8710 16.8315 0.8672
64.8910 16.8182 0.8672
64.9110 16.8049 0.8659
64.9310 16.7916 0.8662
64.9510 16.7783 0.8641
64.9710 16.7649 0.8648
64.9910 16.7516 0.8636
65.0110 16.7382 0.8622
65.0310 16.7249 0.8621
65.0510 16.7115 0.8619
65.0710 16.6982 0.8604
65.0910 16.6849 0.8606
65.1110 16.6715 0.8597
65.1310 16.6582 0.8585
65.1510 16.6448 0.8590
65.1710 16.6315 0.8574
65.1910 16.6182 0.8576
65.2110 16.6048 0.8554
65.2310 16.5915 0.8572
65.2510 16.5782 0.8540
65.2710 16.5649 0.8554
65.2910 16.5516 0.8530
65.3110 16.5382 0.8539
65.3310 16.5248 0.8526
65.3510 16.5115 0.8521
65.3710 16.4982 0.8513
65.3910 16.4849 0.8498
65.4110 16.4715 0.8515
65.4310 16.4581 0.8470
65.4510 16.4449 0.8507
65.4710 16.4316 0.8464
65.4910 16.4182 0.8490
65.5110 16.4048 0.8441
65.5310 16.3915 0.8486
65.5510 16.3782 0.8426
65.5710 16.3649 0.8471
65.5910 16.3515 0.8425
65.6110 16.3382 0.8450
65.6310 16.3249 0.8414
65.6510 16.3116 0.8435
65.6710 16.2982 0.8414
65.6910 16.2849 0.8405
65.7110 16.2715 0.8414
65.7310 16.2582 0.8381
65.7510 16.2449 0.8395
65.7710 16.2315 0.8374
65.7910 16.2182 0.8386
65.8110 16.2048 0.8357
65.8310 16.1915 0.8379
65.8510 16.1782 0.8334
65.8710 16.1648 0.8374
65.8910 16.1515 0.8324
65.9110 16.1382 0.8358
65.9310 16.1248 0.8312
65.9510 16.1115 0.8345
65.9710 16.0982 0.8310
65.9910 16.0849 0.8320
66.0110 16.0716 0.8304
66.0310 16.0583 0.8299
66.0510 16.0449 0.8298
66.0710 16.0316 0.8287
66.0910 16.0182 0.8285
66.1110 16.0049 0.8268
66.1310 15.9915 0.8281
66.1510 15.9782 0.8245
66.1710 15.9649 0.8271
66.1910 15.9516 0.8234
66.2110 15.9382 0.8263
66.2310 15.9248 0.8209
66.2510 15.9115 0.8257
66.2710 15.8982 0.8205
66.2910 15.8848 0.8228
66.3110 15.8715 0.8202
66.3310 15.8582 0.8215
66.3510 15.8449 0.8189
66.3710 15.8316 0.8199
66.3910 15.8183 0.8189
66.4110 15.8049 0.8176
66.4310 15.7916 0.8190
66.4510 15.7783 0.8148
66.4710 15.7649 0.8178
66.4910 15.7515 0.8135
66.5110 15.7382 0.8175
66.5310 15.7248 0.8108
66.5510 15.7115 0.8165
66.5710 15.6981 0.8104
66.5910 15.6848 0.8135
66.6110 15.6715 0.8106
66.6310 15.6582 0.8120
66.6510 15.6449 0.8096
66.6710 15.6315 0.8105
66.6910 15.6182 0.8087
66.7110 15.6049 0.8080
66.7310 15.5916 0.8084
66.7510 15.5783 0.8067
66.7710 15.5649 0.8064
66.7910 15.5515 0.8061
66.8110 15.5382 0.8056
66.8310 15.5249 0.8029
66.8510 15.5115 0.8058
66.8710 15.4981 0.8018
66.8910 15.4848 0.8038
66.9110 15.4715 0.8006
66.9310 15.4582 0.8025
66.9510 15.4448 0.7991
66.9710 15.4315 0.8018
66.9910 15.4182 0.7982
67.0110 15.4049 0.7992
67.0310 15.3915 0.7978
67.0510 15.3782 0.7984
67.0710 15.3649 0.7961
67.0910 15.3516 0.7965
67.1110 15.3383 0.7954
67.1310 15.3249 0.7944
67.1510 15.3115 0.7952
67.1710 15.2982 0.7930
67.1910 15.2849 0.7939
67.2110 15.2715 0.7915
67.2310 15.2581 0.7930
67.2510 15.2448 0.7900
67.2710 15.2315 0.7915
67.2910 15.2182 0.7894
67.3110 15.2048 0.7894
67.3310 15.1915 0.7888
67.3510 15.1782 0.7884
67.3710 15.1649 0.7864
67.3910 15.1516 0.7870
67.4110 15.1382 0.7863
67.4310 15.1249 0.7850
67.4510 15.1116 0.7855
67.4710 15.0983 0.7835
67.4910 15.0849 0.7840
67.5110 15.0715 0.7820
67.5310 15.0582 0.7837
67.5510 15.0449 0.7795
67.5710 15.0315 0.7826
67.5910 15.0182 0.7786
67.6110 15.0048 0.7813
67.6310 14.9915 0.7776
67.6510 14.9782 0.7801
67.6710 14.9648 0.7757
67.6910 14.9515 0.7791
67.7110 14.9382 0.7751
67.7310 14.9249 0.7768
67.7510 14.9115 0.7751
67.7710 14.8982 0.7754
67.7910 14.8849 0.7733
67.8110 14.8716 0.7733
67.8310 14.8583 0.7735
67.8510 14.8449 0.7714
67.8710 14.8316 0.7726
67.8910 14.8183 0.7704
67.9110 14.8049 0.7696
67.9310 14.7915 0.7693
67.9510 14.7781 0.7700
67.9710 14.7648 0.7671
67.9910 14.7515 0.7689
68.0110 14.7382 0.7660
68.0310 14.7248 0.7671
68.0510 14.7114 0.7656
68.0710 14.6981 0.7662
68.0910 14.6848 0.7631
68.1110 14.6715 0.7650
68.1310 14.6582 0.7629
68.1510 14.6449 0.7627
68.1710 14.6316 0.7619
68.1910 14.6183 0.7611
68.2110 14.6049 0.7602
68.2310 14.5916 0.7600
68.2510 14.5782 0.7603
68.2710 14.5649 0.7571
68.2910 14.5515 0.7594
68.3110 14.5381 0.7561
68.3310 14.5248 0.7580
68.3510 14.5115 0.7546
68.3710 14.4982 0.7572
68.3910 14.4848 0.7528
68.4110 14.4715 0.7560
68.4310 14.4582 0.7531
68.4510 14.4449 0.7528
68.4710 14.4316 0.7526
68.4910 14.4182 0.7516
68.5110 14.4049 0.7516
68.5310 14.3916 0.7498
68.5510 14.3783 0.7512
68.5710 14.3649 0.7473
68.5910 14.3516 0.7508
68.6110 14.3382 0.7470
68.6310 14.3249 0.7483
68.6510 14.3115 0.7452
68.6710 14.2981 0.7481
68.6910 14.2848 0.7429
68.7110 14.2715 0.7472
68.7310 14.2582 0.7427
68.7510 14.2448 0.7445
68.7710 14.2315 0.7422
68.7910 14.2182 0.7430
68.8110 14.2049 0.7407
68.8310 14.1916 0.7418
68.8510 14.1782 0.7407
68.8710 14.1649 0.7395
68.8910 14.1516 0.7399
68.9110 14.1383 0.7386
68.9310 14.1249 0.7372
68.9510 14.1115 0.7376
68.9710 14.0982 0.7378
68.9910 14.0849 0.7345
69.0110 14.0715 0.7365
69.0310 14.0582 0.7341
69.0510 14.0448 0.7350
69.0710 14.0315 0.7329
69.0910 14.0182 0.7341
69.1110 14.0048 0.7313
69.1310 13.9915 0.7321
69.1510 13.9782 0.7315
69.1710 13.9649 0.7302
69.1910 13.9515 0.7304
69.2110 13.9382 0.7287
69.2310 13.9249 0.7289
69.2510 13.9116 0.7273
69.2710 13.8982 0.7291
69.2910 13.8849 0.7246
69.3110 13.8715 0.7283
69.3310 13.8582 0.7233
69.3510 13.8449 0.7264
69.3710 13.8315 0.7221
69.3910 13.8182 0.7253
69.4110 13.8048 0.7213
69.4310 13.7915 0.7235
69.4510 13.7782 0.7208
69.4710 13.7648 0.7209
69.4910 13.7515 0.7200
69.5110 13.7382 0.7207
69.5310 13.7248 0.7179
69.5510 13.7115 0.7189
69.5710 13.6982 0.7185
69.5910 13.6848 0.7168
69.6110 13.6715 0.7177
69.6310 13.6582 0.7154
69.6510 13.6449 0.7157
69.6710 13.6315 0.7143
69.6910 13.6182 0.7156
69.7110 13.6049 0.7123
69.7310 13.5916 0.7142
69.7510 13.5782 0.7109
69.7710 13.5648 0.7127
69.7910 13.5515 0.7097
69.8110 13.5382 0.7121
69.8310 13.5248 0.7080
69.8510 13.5115 0.7102
69.8710 13.4982 0.7079
69.8910 13.4849 0.7080
69.9110 13.4715 0.7066
69.9310 13.4582 0.7069
69.9510 13.4449 0.7057
69.9710 13.4316 0.7047
69.9910 13.4183 0.7059
70.0110 13.4049 0.7025
70.0310 13.3915 0.7045
70.0510 13.3782 0.7018
70.0710 13.3649 0.7029
70.0910 13.3516 0.6999
70.1110 13.3382 0.7022
70.1310 13.3248 0.6989
70.1510 13.3115 0.7004
70.1710 13.2982 0.6986
70.1910 13.2849 0.6984
70.2110 13.2715 0.6971
70.2310 13.2582 0.6974
70.2510 13.2449 0.6962
70.2710 13.2316 0.6951
70.2910 13.2182 0.6963
70.3110 13.2049 0.6935
70.3310 13.1916 0.6952
70.3510 13.1783 0.6916
70.3710 13.1649 0.6935
70.3910 13.1516 0.6903
70.4110 13.1382 0.6924
70.4310 13.1249 0.6893
70.4510 13.1115 0.6898
70.4710 13.0981 0.6896
70.4910 13.0848 0.6890
70.5110 13.0715 0.6873
70.5310 13.0582 0.6885
70.5510 13.0449 0.6857
70.5710 13.0315 0.6862
70.5910 13.0182 0.6857
70.6110 13.0049 0.6851
70.6310 12.9916 0.6831
70.6510 12.9782 0.6841
70.6710 12.9649 0.6832
70.6910 12.9516 0.6816
70.7110 12.9382 0.6824
70.7310 12.9249 0.6808
70.7510 12.9115 0.6807
70.7710 12.8982 0.6794
70.7910 12.8849 0.6801
70.8110 12.8715 0.6765
70.8310 12.8582 0.6804
70.8510 12.8448 0.6752
70.8710 12.8315 0.6782
70.8910 12.8182 0.6746
70.9110 12.8048 0.6765
70.9310 12.7915 0.6740
70.9510 12.7782 0.6749
70.9710 12.7649 0.6735
70.9910 12.7516 0.6720
71.0110 12.7382 0.6730
71.0310 12.7249 0.6712
71.0510 12.7116 0.6713
71.0710 12.6982 0.6695
71.0910 12.6849 0.6708
71.1110 12.6715 0.6677
71.1310 12.6582 0.6705
71.1510 12.6449 0.6657
71.1710 12.6315 0.6676
71.1910 12.6182 0.6665
71.2110 12.6048 0.6664
71.2310 12.5915 0.6644
71.2510 12.5782 0.6651
71.2710 12.5649 0.6636
71.2910 12.5515 0.6620
71.3110 12.5382 0.6640
71.3310 12.5249 0.6611
71.3510 12.5116 0.6615
71.3710 12.4982 0.6603
71.3910 12.4849 0.6608
71.4110 12.4716 0.6588
71.4310 12.4583 0.6601
71.4510 12.4449 0.6570
71.4710 12.4316 0.6584
71.4910 12.4182 0.6562
71.5110 12.4049 0.6581
71.5310 12.3916 0.6531
71.5510 12.3782 0.6571
71.5710 12.3648 0.6530
71.5910 12.3515 0.6546
71.6110 12.3382 0.6517
71.6310 12.3248 0.6535
71.6510 12.3115 0.6505
71.6710 12.2981 0.6526
71.6910 12.2848 0.6501
71.7110 12.2715 0.6490
71.7310 12.2582 0.6501
71.7510 12.2448 0.6474
71.7710 12.2316 0.6495
71.7910 12.2183 0.6459
71.8110 12.2049 0.6485
71.8310 12.1916 0.6431
71.8510 12.1782 0.6488
71.8710 12.1649 0.6424
71.8910 12.1516 0.6457
71.9110 12.1382 0.6417
71.9310 12.1248 0.6444
71.9510 12.1115 0.6410
71.9710 12.0981 0.6427
71.9910 12.0848 0.6404
72.0110 12.0715 0.6399
72.0310 12.0581 0.6403
72.0510 12.0448 0.6389
72.0710 12.0315 0.6388
72.0910 12.0182 0.6368
72.1110 12.0049 0.6390
72.1310 11.9916 0.6344
72.1510 11.9783 0.6375
72.1710 11.9649 0.6341
72.1910 11.9516 0.6352
72.2110 11.9382 0.6341
72.2310 11.9249 0.6334
72.2510 11.9116 0.6319
72.2710 11.8982 0.6320
72.2910 11.8848 0.6313
72.3110 11.8715 0.6303
72.3310 11.8582 0.6306
72.3510 11.8448 0.6292
72.3710 11.8315 0.6283
72.3910 11.8182 0.6283
72.4110 11.8049 0.6280
72.4310 11.7915 0.6258
72.4510 11.7782 0.6278
72.4710 11.7649 0.6242
72.4910 11.7515 0.6260
72.5110 11.7383 0.6231
72.5310 11.7249 0.6259
72.5510 11.7116 0.6209
72.5710 11.6982 0.6246
72.5910 11.6849 0.6201
72.6110 11.6716 0.6218
72.6310 11.6582 0.6194
72.6510 11.6448 0.6215
72.6710 11.6315 0.6180
72.6910 11.6182 0.6190
72.7110 11.6049 0.6169
72.7310 11.5915 0.6167
72.7510 11.5782 0.6172
72.7710 11.5649 0.6157
72.7910 11.5516 0.6158
72.8110 11.5382 0.6127
72.8310 11.5249 0.6161
72.8510 11.5115 0.6109
72.8710 11.4982 0.6142
72.8910 11.4849 0.6101
72.9110 11.4715 0.6127
72.9310 11.4582 0.6096
72.9510 11.4449 0.6111
72.9710 11.4316 0.6085
72.9910 11.4183 0.6090
73.0110 11.4049 0.6086
73.0310 11.3915 0.6063
73.0510 11.3782 0.6074
73.0710 11.3648 0.6052
73.0910 11.3515 0.6060
73.1110 11.3381 0.6035
73.1310 11.3248 0.6063
73.1510 11.3115 0.6011
73.1710 11.2982 0.6042
73.1910 11.2848 0.6013
73.2110 11.2715 0.6019
73.2310 11.2583 0.6000
73.2510 11.2449 0.6014
73.2710 11.2316 0.5982
73.2910 11.2182 0.5999
73.3110 11.2049 0.5980
73.3310 11.1916 0.5975
73.3510 11.1782 0.5959
73.3710 11.1649 0.5978
73.3910 11.1515 0.5951
73.4110 11.1382 0.5946
73.4310 11.1249 0.5956
73.4510 11.1115 0.5915
73.4710 11.0981 0.5960
73.4910 11.0848 0.5904
73.5110 11.0715 0.5939
73.5310 11.0582 0.5892
73.5510 11.0448 0.5930
73.5710 11.0315 0.5877
73.5910 11.0182 0.5915
73.6110 11.0049 0.5869
73.6310 10.9916 0.5892
73.6510 10.9782 0.5861
73.6710 10.9649 0.5877
73.6910 10.9516 0.5854
73.7110 10.9382 0.5846
73.7310 10.9249 0.5863
73.7510 10.9115 0.5819
73.7710 10.8982 0.5852
73.7910 10.8848 0.5813
73.8110 10.8715 0.5837
73.8310 10.8581 0.5798
73.8510 10.8448 0.5829
73.8710 10.8315 0.5781
73.8910 10.8182 0.5806
73.9110 10.8049 0.5781
73.9310 10.7915 0.5792
73.9510 10.7783 0.5767
73.9710 10.7649 0.5776
73.9910 10.7516 0.5757
74.0110 10.7382 0.5760
74.0310 10.7249 0.5751
74.0510 10.7116 0.5730
74.0710 10.6982 0.5744
74.0910 10.6848 0.5725
74.1110 10.6715 0.5725
74.1310 10.6582 0.5707
74.1510 10.6448 0.5714
74.1710 10.6315 0.5697
74.1910 10.6181 0.5697
74.2110 10.6048 0.5688
74.2310 10.5915 0.5685
74.2510 10.5782 0.5667
74.2710 10.5649 0.5679
74.2910 10.5515 0.5651
74.3110 10.5382 0.5667
74.3310 10.5249 0.5640
74.3510 10.5116 0.5643
74.3710 10.4982 0.5631
74.3910 10.4849 0.5643
74.4110 10.4715 0.5616
74.4310 10.4582 0.5614
74.4510 10.4448 0.5617
74.4710 10.4315 0.5596
74.4910 10.4182 0.5606
74.5110 10.4049 0.5585
74.5310 10.3915 0.5594
74.5510 10.3782 0.5566
74.5710 10.3648 0.5585
74.5910 10.3515 0.5545
74.6110 10.3382 0.5574
74.6310 10.3249 0.5543
74.6510 10.3115 0.5554
74.6710 10.2983 0.5528
74.6910 10.2850 0.5540
74.7110 10.2716 0.5518
74.7310 10.2582 0.5513
74.7510 10.2448 0.5523
74.7710 10.2315 0.5495
74.7910 10.2182 0.5506
74.8110 10.2048 0.5479
74.8310 10.1915 0.5495
74.8510 10.1781 0.5468
74.8710 10.1648 0.5485
74.8910 10.1515 0.5453
74.9110 10.1381 0.5459
74.9310 10.1248 0.5448
74.9510 10.1115 0.5453
74.9710 10.0982 0.5420
74.9910 10.0848 0.5448
75.0110 10.0715 0.5413
75.0310 10.0582 0.5424
75.0510 10.0449 0.5412
75.0710 10.0316 0.5411
75.0910 10.0183 0.5392
75.1110 10.0049 0.5400
75.1310 9.9916 0.5380
75.1510 9.9782 0.5375
75.1710 9.9648 0.5381
75.1910 9.9515 0.5360
75.2110 9.9382 0.5362
75.2310 9.9248 0.5346
75.2510 9.9115 0.5354
75.2710 9.8981 0.5322
75.2910 9.8848 0.5352
75.3110 9.8715 0.5303
75.3310 9.8582 0.5333
75.3510 9.8449 0.5300
75.3710 9.8315 0.5319
75.3910 9.8182 0.5287
75.4110 9.8049 0.5305
75.4310 9.7916 0.5275
75.4510 9.7782 0.5278
75.4710 9.7649 0.5277
75.4910 9.7516 0.5263
75.5110 9.7382 0.5259
75.5310 9.7248 0.5241
75.5510 9.7115 0.5257
75.5710 9.6981 0.5218
75.5910 9.6848 0.5253
75.6110 9.6715 0.5202
75.6310 9.6581 0.5235
75.6510 9.6448 0.5196
75.6710 9.6315 0.5224
75.6910 9.6182 0.5182
75.7110 9.6049 0.5205
75.7310 9.5915 0.5184
75.7510 9.5782 0.5178
75.7710 9.5649 0.5166
75.7910 9.5516 0.5175
75.8110 9.5383 0.5147
75.8310 9.5249 0.5160
75.8510 9.5116 0.5139
75.8710 9.4982 0.5138
75.8910 9.4849 0.5131
75.9110 9.4715 0.5127
75.9310 9.4582 0.5110
75.9510 9.4448 0.5114
75.9710 9.4315 0.5101
75.9910 9.4181 0.5088
76.0110 9.4048 0.5099
76.0310 9.3915 0.5071
76.0510 9.3782 0.5081
76.0710 9.3649 0.5056
76.0910 9.3516 0.5079
76.1110 9.3383 0.5033
76.1310 9.3250 0.5064
76.1510 9.3116 0.5028
76.1710 9.2982 0.5042
76.1910 9.2849 0.5026
76.2110 9.2715 0.5023
76.2310 9.2582 0.5011
76.2510 9.2448 0.5006
76.2710 9.2315 0.5005
76.2910 9.2182 0.4977
76.3110 9.2049 0.5000
76.3310 9.1915 0.4971
76.3510 9.1781 0.4985
76.3710 9.1648 0.4956
76.3910 9.1515 0.4975
76.4110 9.1382 0.4931
76.4310 9.1248 0.4966
76.4510 9.1115 0.4923
76.4710 9.0982 0.4938
76.4910 9.0849 0.4917
76.5110 9.0716 0.4919
76.5310 9.0582 0.4911
76.5510 9.0448 0.4901
76.5710 9.0315 0.4905
76.5910 9.0182 0.4873
76.6110 9.0049 0.4888
76.6310 8.9915 0.4864
76.6510 8.9782 0.4871
76.6710 8.9649 0.4855
76.6910 8.9515 0.4863
76.7110 8.9382 0.4831
76.7310 8.9248 0.4855
76.7510 8.9115 0.4821
76.7710 8.8982 0.4831
76.7910 8.8848 0.4820
76.8110 8.8715 0.4819
76.8310 8.8582 0.4802
76.8510 8.8449 0.4807
76.8710 8.8316 0.4794
76.8910 8.8182 0.4777
76.9110 8.8049 0.4783
76.9310 8.7915 0.4771
76.9510 8.7782 0.4762
76.9710 8.7649 0.4752
76.9910 8.7515 0.4760
77.0110 8.7382 0.4724
77.0310 8.7248 0.4750
77.0510 8.7115 0.4716
77.0710 8.6981 0.4738
77.0910 8.6848 0.4698
77.1110 8.6715 0.4723
77.1310 8.6582 0.4686
77.1510 8.6449 0.4706
77.1710 8.6315 0.4686
77.1910 8.6182 0.4674
77.2110 8.6049 0.4687
77.2310 8.5916 0.4656
77.2510 8.5782 0.4671
77.2710 8.5649 0.4633
77.2910 8.5515 0.4672
77.3110 8.5382 0.4612
77.3310 8.5249 0.4658
77.3510 8.5115 0.4601
77.3710 8.4981 0.4635
77.3910 8.4848 0.4593
77.4110 8.4715 0.4621
77.4310 8.4582 0.4578
77.4510 8.4448 0.4599
77.4710 8.4315 0.4581
77.4910 8.4182 0.4573
77.5110 8.4049 0.4575
77.5310 8.3916 0.4560
77.5510 8.3783 0.4563
77.5710 8.3650 0.4531
77.5910 8.3516 0.4559
77.6110 8.3382 0.4512
77.6310 8.3249 0.4540
77.6510 8.3115 0.4509
77.6710 8.2982 0.4517
77.6910 8.2848 0.4494
77.7110 8.2715 0.4513
77.7310 8.2581 0.4474
77.7510 8.2448 0.4493
77.7710 8.2315 0.4470
77.7910 8.2182 0.4477
77.8110 8.2048 0.4455
77.8310 8.1915 0.4463
77.8510 8.1782 0.4442
77.8710 8.1649 0.4435
77.8910 8.1515 0.4441
77.9110 8.1382 0.4418
77.9310 8.1249 0.4429
77.9510 8.1116 0.4404
77.9710 8.0982 0.4408
77.9910 8.0849 0.4384
78.0110 8.0715 0.4412
78.0310 8.0582 0.4366
78.0510 8.0449 0.4394
78.0710 8.0315 0.4350
78.0910 8.0182 0.4383
78.1110 8.0049 0.4338
78.1310 7.9915 0.4361
78.1510 7.9782 0.4335
78.1710 7.9648 0.4336
78.1910 7.9515 0.4339
78.2110 7.9382 0.4303
78.2310 7.9249 0.4331
78.2510 7.9116 0.4293
78.2710 7.8982 0.4313
78.2910 7.8849 0.4277
78.3110 7.8716 0.4310
78.3310 7.8582 0.4255
78.3510 7.8448 0.4295
78.3710 7.8315 0.4251
78.3910 7.8182 0.4270
78.4110 7.8049 0.4242
78.4310 7.7915 0.4250
78.4510 7.7782 0.4238
78.4710 7.7649 0.4222
78.4910 7.7515 0.4234
78.5110 7.7382 0.4201
78.5310 7.7248 0.4217
78.5510 7.7115 0.4191
78.5710 7.6982 0.4199
78.5910 7.6849 0.4176
78.6110 7.6715 0.4188
78.6310 7.6582 0.4168
78.6510 7.6449 0.4171
78.6710 7.6316 0.4150
78.6910 7.6182 0.4152
78.7110 7.6049 0.4141
78.7310 7.5915 0.4143
78.7510 7.5782 0.4123
78.7710 7.5649 0.4117
78.7910 7.5515 0.4116
78.8110 7.5382 0.4105
78.8310 7.5248 0.4101
78.8510 7.5115 0.4093
78.8710 7.4981 0.4086
78.8910 7.4848 0.4067
78.9110 7.4715 0.4083
78.9310 7.4582 0.4052
78.9510 7.4449 0.4069
78.9710 7.4315 0.4034
78.9910 7.4182 0.4065
79.0110 7.4049 0.4008
79.0310 7.3916 0.4055
79.0510 7.3783 0.3997
79.0710 7.3649 0.4035
79.0910 7.3515 0.3990
79.1110 7.3382 0.4012
79.1310 7.3249 0.3977
79.1510 7.3115 0.3992
79.1710 7.2982 0.3973
79.1910 7.2848 0.3964
79.2110 7.2715 0.3977
79.2310 7.2581 0.3940
79.2510 7.2448 0.3961
79.2710 7.2315 0.3927
79.2910 7.2182 0.3950
79.3110 7.2049 0.3907
79.3310 7.1915 0.3939
79.3510 7.1782 0.3899
79.3710 7.1649 0.3913
79.3910 7.1516 0.3887
79.4110 7.1383 0.3904
79.4310 7.1249 0.3875
79.4510 7.1115 0.3887
79.4710 7.0982 0.3861
79.4910 7.0849 0.3861
79.5110 7.0715 0.3857
79.5310 7.0582 0.3852
79.5510 7.0448 0.3840
79.5710 7.0315 0.3830
79.5910 7.0182 0.3832
79.6110 7.0048 0.3806
79.6310 6.9915 0.3829
79.6510 6.9782 0.3790
79.6710 6.9649 0.3809
79.6910 6.9515 0.3770
79.7110 6.9382 0.3806
79.7310 6.9249 0.3749
79.7510 6.9116 0.3791
79.7710 6.8983 0.3747
79.7910 6.8849 0.3761
79.8110 6.8716 0.3734
79.8310 6.8583 0.3746
79.8510 6.8449 0.3717
79.8710 6.8315 0.3731
79.8910 6.8182 0.3714
79.9110 6.8048 0.3699
79.9310 6.7916 0.3715
79.9510 6.7782 0.3684
79.9710 6.7648 0.3701
79.9910 6.7515 0.3667
80.0110 6.7382 0.3697
80.0310 6.7249 0.3638
80.0510 6.7115 0.3683
80.0710 6.6982 0.3633
80.0910 6.6849 0.3651
80.1110 6.6716 0.3639
80.1310 6.6582 0.3636
80.1510 6.6449 0.3619
80.1710 6.6315 0.3618
80.1910 6.6182 0.3609
80.2110 6.6049 0.3590
80.2310 6.5915 0.3598
80.2510 6.5782 0.3583
80.2710 6.5648 0.3578
80.2910 6.5515 0.3560
80.3110 6.5382 0.3574
80.3310 6.5248 0.3536
80.3510 6.5114 0.3564
80.3710 6.4981 0.3529
80.3910 6.4848 0.3537
80.4110 6.4715 0.3519
80.4310 6.4582 0.3522
80.4510 6.4449 0.3506
80.4710 6.4316 0.3497
80.4910 6.4183 0.3504
80.5110 6.4049 0.3483
80.5310 6.3916 0.3492
80.5510 6.3782 0.3478
80.5710 6.3649 0.3473
80.5910 6.3515 0.3456
80.6110 6.3382 0.3469
80.6310 6.3249 0.3424
80.6510 6.3116 0.3454
80.6710 6.2982 0.3409
80.6910 6.2848 0.3430
80.7110 6.2714 0.3401
80.7310 6.2581 0.3421
80.7510 6.2448 0.3385
80.7710 6.2315 0.3401
80.7910 6.2182 0.3383
80.8110 6.2049 0.3380
80.8310 6.1916 0.3369
80.8510 6.1783 0.3365
80.8710 6.1649 0.3357
80.8910 6.1516 0.3346
80.9110 6.1383 0.3352
80.9310 6.1249 0.3317
80.9510 6.1116 0.3349
80.9710 6.0982 0.3306
80.9910 6.0848 0.3328
81.0110 6.0715 0.3291
81.0310 6.0582 0.3314
81.0510 6.0448 0.3278
81.0710 6.0315 0.3293
81.0910 6.0182 0.3270
81.1110 6.0049 0.3267
81.1310 5.9916 0.3264
81.1510 5.9782 0.3249
81.1710 5.9649 0.3247
81.1910 5.9516 0.3225
81.2110 5.9383 0.3241
81.2310 5.9249 0.3207
81.2510 5.9115 0.3236
81.2710 5.8982 0.3188
81.2910 5.8849 0.3217
81.3110 5.8715 0.3171
81.3310 5.8581 0.3202
81.3510 5.8448 0.3156
81.3710 5.8315 0.3183
81.3910 5.8182 0.3157
81.4110 5.8048 0.3159
81.4310 5.7915 0.3151
81.4510 5.7782 0.3145
81.4710 5.7649 0.3128
81.4910 5.7515 0.3136
81.5110 5.7382 0.3119
81.5310 5.7249 0.3105
81.5510 5.7116 0.3099
81.5710 5.6983 0.3087
81.5910 5.6849 0.3088
81.6110 5.6715 0.3072
81.6310 5.6582 0.3081
81.6510 5.6448 0.3050
81.6710 5.6315 0.3064
81.6910 5.6181 0.3037
81.7110 5.6048 0.3050
81.7310 5.5915 0.3018
81.7510 5.5782 0.3039
81.7710 5.5648 0.3000
81.7910 5.5515 0.3019
81.8110 5.5382 0.2997
81.8310 5.5249 0.2988
81.8510 5.5115 0.2984
81.8710 5.4982 0.2983
81.8910 5.4849 0.2973
81.9110 5.4716 0.2968
81.9310 5.4583 0.2969
81.9510 5.4449 0.2946
81.9710 5.4315 0.2963
81.9910 5.4182 0.2936
82.0110 5.4049 0.2937
82.0310 5.3915 0.2915
82.0510 5.3782 0.2924
82.0710 5.3648 0.2902
82.0910 5.3515 0.2899
82.1110 5.3382 0.2891
82.1310 5.3248 0.2879
82.1510 5.3115 0.2869
82.1710 5.2982 0.2865
82.1910 5.2849 0.2851
82.2110 5.2716 0.2856
82.2310 5.2582 0.2843
82.2510 5.2449 0.2836
82.2710 5.2316 0.2830
82.2910 5.2183 0.2824
82.3110 5.2049 0.2820
82.3310 5.1916 0.2796
82.3510 5.1782 0.2805
82.3710 5.1649 0.2778
82.3910 5.1516 0.2786
82.4110 5.1382 0.2775
82.4310 5.1248 0.2777
82.4510 5.1115 0.2747
82.4710 5.0982 0.2764
82.4910 5.0848 0.2728
82.5110 5.0714 0.2753
82.5310 5.0581 0.2720
82.5510 5.0448 0.2735
82.5710 5.0315 0.2703
82.5910 5.0182 0.2718
82.6110 5.0049 0.2695
82.6310 4.9916 0.2684
82.6510 4.9783 0.2688
82.6710 4.9649 0.2666
82.6910 4.9516 0.2667
82.7110 4.9382 0.2652
82.7310 4.9249 0.2655
82.7510 4.9115 0.2632
82.7710 4.8981 0.2656
82.7910 4.8848 0.2623
82.8110 4.8715 0.2638
82.8310 4.8582 0.2610
82.8510 4.8448 0.2620
82.8710 4.8314 0.2595
82.8910 4.8181 0.2598
82.9110 4.8049 0.2583
82.9310 4.7915 0.2569
82.9510 4.7782 0.2575
82.9710 4.7649 0.2556
82.9910 4.7516 0.2555
83.0110 4.7383 0.2547
83.0310 4.7249 0.2538
83.0510 4.7116 0.2527
83.0710 4.6982 0.2530
83.0910 4.6849 0.2502
83.1110 4.6715 0.2512
83.1310 4.6581 0.2485
83.1510 4.6448 0.2498
83.1710 4.6315 0.2463
83.1910 4.6181 0.2479
83.2110 4.6048 0.2462
83.2310 4.5915 0.2470
83.2510 4.5782 0.2458
83.2710 4.5649 0.2455
83.2910 4.5516 0.2442
83.3110 4.5382 0.2434
83.3310 4.5249 0.2432
83.3510 4.5116 0.2411
83.3710 4.4983 0.2420
83.3910 4.4850 0.2383
83.4110 4.4716 0.2401
83.4310 4.4582 0.2358
83.4510 4.4449 0.2392
83.4710 4.4315 0.2337
83.4910 4.4182 0.2386
83.5110 4.4048 0.2336
83.5310 4.3915 0.2360
83.5510 4.3782 0.2331
83.5710 4.3648 0.2340
83.5910 4.3515 0.2319
83.6110 4.3382 0.2321
83.6310 4.3249 0.2307
83.6510 4.3115 0.2291
83.6710 4.2982 0.2302
83.6910 4.2849 0.2270
83.7110 4.2716 0.2282
83.7310 4.2582 0.2249
83.7510 4.2449 0.2279
83.7710 4.2315 0.2234
83.7910 4.2182 0.2265
83.8110 4.2049 0.2220
83.8310 4.1916 0.2241
83.8510 4.1782 0.2202
83.8710 4.1648 0.2231
83.8910 4.1515 0.2186
83.9110 4.1382 0.2212
83.9310 4.1248 0.2177
83.9510 4.1115 0.2182
83.9710 4.0981 0.2172
83.9910 4.0848 0.2162
84.0110 4.0715 0.2156
84.0310 4.0582 0.2160
84.0510 4.0448 0.2164
84.0710 4.0315 0.2129
84.0910 4.0182 0.2144
84.1110 4.0049 0.2108
84.1310 3.9915 0.2126
84.1510 3.9782 0.2086
84.1710 3.9649 0.2105
84.1910 3.9516 0.2060
84.2110 3.9382 0.2087
84.2310 3.9248 0.2056
84.2510 3.9115 0.2072
84.2710 3.8982 0.2051
84.2910 3.8848 0.2059
84.3110 3.8715 0.2039
84.3310 3.8581 0.2039
84.3510 3.8449 0.2028
84.3710 3.8315 0.2014
84.3910 3.8182 0.2037
84.4110 3.8049 0.2011
84.4310 3.7916 0.2016
84.4510 3.7783 0.1984
84.4710 3.7649 0.2003
84.4910 3.7515 0.1955
84.5110 3.7382 0.1977
84.5310 3.7249 0.1942
84.5510 3.7116 0.1944
84.5710 3.6982 0.1934
84.5910 3.6848 0.1944
84.6110 3.6715 0.1927
84.6310 3.6582 0.1927
84.6510 3.6449 0.1916
84.6710 3.6315 0.1898
84.6910 3.6181 0.1903
84.7110 3.6048 0.1874
84.7310 3.5915 0.1881
84.7510 3.5782 0.1855
84.7710 3.5649 0.1880
84.7910 3.5516 0.1829
84.8110 3.5383 0.1860
84.8310 3.5249 0.1830
84.8510 3.5116 0.1856
84.8710 3.4982 0.1834
84.8910 3.4849 0.1844
84.9110 3.4715 0.1806
84.9310 3.4582 0.1814
84.9510 3.4448 0.1794
84.9710 3.4315 0.1783
84.9910 3.4182 0.1772
85.0110 3.4049 0.1766
85.0310 3.3915 0.1764
85.0510 3.3782 0.1747
85.0710 3.3649 0.1755
85.0910 3.3516 0.1727
85.1110 3.3382 0.1753
85.1310 3.3249 0.1717
85.1510 3.3116 0.1732
85.1710 3.2983 0.1700
85.1910 3.2849 0.1715
85.2110 3.2715 0.1680
85.2310 3.2582 0.1690
85.2510 3.2449 0.1668
85.2710 3.2316 0.1674
85.2910 3.2182 0.1660
85.3110 3.2048 0.1681
85.3310 3.1915 0.1654
85.3510 3.1782 0.1645
85.3710 3.1649 0.1643
85.3910 3.1515 0.1614
85.4110 3.1382 0.1625
85.4310 3.1249 0.1593
85.4510 3.1116 0.1606
85.4710 3.0982 0.1572
85.4910 3.0849 0.1597
85.5110 3.0715 0.1550
85.5310 3.0582 0.1576
85.5510 3.0449 0.1536
85.5710 3.0315 0.1571
85.5910 3.0182 0.1534
85.6110 3.0049 0.1563
85.6310 2.9915 0.1516
85.6510 2.9782 0.1532
85.6710 2.9648 0.1512
85.6910 2.9515 0.1501
85.7110 2.9382 0.1495
85.7310 2.9249 0.1489
85.7510 2.9115 0.1499
85.7710 2.8982 0.1473
85.7910 2.8849 0.1488
85.8110 2.8715 0.1449
85.8310 2.8582 0.1461
85.8510 2.8448 0.1428
85.8710 2.8315 0.1442
85.8910 2.8182 0.1398
85.9110 2.8049 0.1427
85.9310 2.7916 0.1391
85.9510 2.7782 0.1410
85.9710 2.7649 0.1395
85.9910 2.7516 0.1392
86.0110 2.7382 0.1380
86.0310 2.7248 0.1377
86.0510 2.7115 0.1366
86.0710 2.6982 0.1350
86.0910 2.6848 0.1347
86.1110 2.6715 0.1322
86.1310 2.6581 0.1339
86.1510 2.6448 0.1318
86.1710 2.6315 0.1333
86.1910 2.6182 0.1304
86.2110 2.6049 0.1316
86.2310 2.5916 0.1280
86.2510 2.5783 0.1286
86.2710 2.5649 0.1259
86.2910 2.5516 0.1267
86.3110 2.5382 0.1244
86.3310 2.5249 0.1253
86.3510 2.5116 0.1238
86.3710 2.4982 0.1240
86.3910 2.4849 0.1244
86.4110 2.4715 0.1224
86.4310 2.4582 0.1224
86.4510 2.4448 0.1204
86.4710 2.4315 0.1212
86.4910 2.4181 0.1172
86.5110 2.4048 0.1207
86.5310 2.3915 0.1159
86.5510 2.3782 0.1189
86.5710 2.3648 0.1138
86.5910 2.3515 0.1176
86.6110 2.3383 0.1121
86.6310 2.3250 0.1160
86.6510 2.3116 0.1109
86.6710 2.2982 0.1132
86.6910 2.2849 0.1103
86.7110 2.2715 0.1104
86.7310 2.2582 0.1091
86.7510 2.2448 0.1098
86.7710 2.2315 0.1106
86.7910 2.2182 0.1076
86.8110 2.2048 0.1088
86.8310 2.1915 0.1058
86.8510 2.1781 0.1059
86.8710 2.1648 0.1036
86.8910 2.1515 0.1042
86.9110 2.1382 0.1007
86.9310 2.1249 0.1031
86.9510 2.1115 0.0997
86.9710 2.0982 0.1003
86.9910 2.0849 0.1004
87.0110 2.0715 0.0996
87.0310 2.0582 0.0983
87.0510 2.0449 0.0968
87.0710 2.0316 0.0970
87.0910 2.0182 0.0955
87.1110 2.0048 0.0960
87.1310 1.9915 0.0943
87.1510 1.9782 0.0936
87.1710 1.9649 0.0915
87.1910 1.9515 0.0925
87.2110 1.9382 0.0896
87.2310 1.9249 0.0918
87.2510 1.9115 0.0871
87.2710 1.8982 0.0892
87.2910 1.8849 0.0865
87.3110 1.8715 0.0885
87.3310 1.8582 0.0844
87.3510 1.8449 0.0856
87.3710 1.8315 0.0838
87.3910 1.8182 0.0830
87.4110 1.8049 0.0830
87.4310 1.7916 0.0814
87.4510 1.7782 0.0813
87.4710 1.7649 0.0799
87.4910 1.7515 0.0819
87.5110 1.7382 0.0767
87.5310 1.7249 0.0814
87.5510 1.7115 0.0748
87.5710 1.6981 0.0789
87.5910 1.6848 0.0733
87.6110 1.6715 0.0762
87.6310 1.6582 0.0725
87.6510 1.6448 0.0743
87.6710 1.6315 0.0733
87.6910 1.6182 0.0718
87.7110 1.6049 0.0711
87.7310 1.5916 0.0693
87.7510 1.5782 0.0694
87.7710 1.5649 0.0667
87.7910 1.5516 0.0683
87.8110 1.5382 0.0645
87.8310 1.5249 0.0662
87.8510 1.5115 0.0644
87.8710 1.4982 0.0652
87.8910 1.4849 0.0621
87.9110 1.4715 0.0638
87.9310 1.4581 0.0606
87.9510 1.4448 0.0602
87.9710 1.4315 0.0600
87.9910 1.4182 0.0577
88.0110 1.4048 0.0586
88.0310 1.3915 0.0584
88.0510 1.3782 0.0583
88.0710 1.3650 0.0569
88.0910 1.3516 0.0565
88.1110 1.3382 0.0548
88.1310 1.3249 0.0548
88.1510 1.3116 0.0533
88.1710 1.2982 0.0542
88.1910 1.2849 0.0515
88.2110 1.2715 0.0534
88.2310 1.2582 0.0477
88.2510 1.2448 0.0508
88.2710 1.2315 0.0468
88.2910 1.2181 0.0493
88.3110 1.2048 0.0457
88.3310 1.1915 0.0486
88.3510 1.1782 0.0436
88.3710 1.1649 0.0451
88.3910 1.1515 0.0427
88.4110 1.1383 0.0424
88.4310 1.1250 0.0430
88.4510 1.1116 0.0421
88.4710 1.0982 0.0433
88.4910 1.0849 0.0401
88.5110 1.0716 0.0418
88.5310 1.0582 0.0371
88.5510 1.0448 0.0394
88.5710 1.0314 0.0372
88.5910 1.0181 0.0372
88.6110 1.0048 0.0348
88.6310 0.9915 0.0359
88.6510 0.9781 0.0342
88.6710 0.9648 0.0333
88.6910 0.9515 0.0330
88.7110 0.9382 0.0315
88.7310 0.9249 0.0313
88.7510 0.9116 0.0297
88.7710 0.8983 0.0285
88.7910 0.8850 0.0281
88.8110 0.8716 0.0277
88.8310 0.8582 0.0256
88.8510 0.8449 0.0257
88.8710 0.8315 0.0239
88.8910 0.8182 0.0236
88.9110 0.8048 0.0212
88.9310 0.7915 0.0228
88.9510 0.7782 0.0195
88.9710 0.7649 0.0191
88.9910 0.7515 0.0182
89.0110 0.7382 0.0173
89.0310 0.7248 0.0163
89.0510 0.7115 0.0163
89.0710 0.6982 0.0141
89.0910 0.6849 0.0131
89.1110 0.6715 0.0133
89.1310 0.6582 0.0105
89.1510 0.6449 0.0112
89.1710 0.6316 0.0084
89.1910 0.6182 0.0099
89.2110 0.6049 0.0055
89.2310 0.5915 0.0094
89.2510 0.5782 0.0030
89.2710 0.5648 0.0062
89.2910 0.5515 0.0028
89.3110 0.5381 0.0038
89.3310 0.5248 0.0000
89.3510 0.5115 0.0026
89.3710 0.4981 -0.0016
89.3910 0.4848 -0.0004
89.4110 0.4715 -0.0020
89.4310 0.4582 -0.0028
89.4510 0.4449 -0.0028
89.4710 0.4315 -0.0034
89.4910 0.4182 -0.0026
89.5110 0.4049 -0.0065
89.5310 0.3916 -0.0044
89.5510 0.3782 -0.0088
89.5710 0.3649 -0.0077
89.5910 0.3516 -0.0106
89.6110 0.3383 -0.0104
89.6310 0.3249 -0.0130
89.6510 0.3115 -0.0119
89.6710 0.2981 -0.0151
89.6910 0.2848 -0.0149
89.7110 0.2715 -0.0171
89.7310 0.2581 -0.0163
89.7510 0.2448 -0.0192
89.7710 0.2315 -0.0178
89.7910 0.2182 -0.0201
89.8110 0.2048 -0.0210
89.8310 0.1915 -0.0207
89.8510 0.1782 -0.0228
89.8710 0.1649 -0.0233
89.8910 0.1516 -0.0239
89.9110 0.1382 -0.0240
89.9310 0.1249 -0.0261
89.9510 0.1115 -0.0251
89.9710 0.0982 -0.0283
89.9910 0.0848 -0.0266
90.0110 0.0715 -0.0287
90.0310 0.0581 -0.0273
90.0510 0.0448 -0.0311
90.0710 0.0315 -0.0286
90.0910 0.0181 -0.0312
90.1110 0.0048 -0.0296
90.1190 -0.0004 -0.0251
