Raw Data
Time Displacement Force
(s) (mm) (N)
0.0000 0.0000 0.0710
0.0200 0.0001 0.0719
0.0400 0.0018 0.0850
0.0600 0.0089 0.0832
0.0800 0.0205 0.0776
0.1000 0.0328 0.0820
0.1200 0.0453 0.0856
0.1400 0.0587 0.0896
0.1600 0.0729 0.0917
0.1800 0.0872 0.0943
0.2000 0.1012 0.0971
0.2200 0.1148 0.0994
0.2400 0.1282 0.1046
0.2600 0.1415 0.1042
0.2800 0.1548 0.1103
0.3000 0.1681 0.1102
0.3200 0.1815 0.1144
0.3400 0.1948 0.1168
0.3600 0.2082 0.1192
0.3800 0.2215 0.1223
0.4000 0.2348 0.1251
0.4200 0.2481 0.1275
0.4400 0.2615 0.1274
0.4600 0.2748 0.1331
0.4800 0.2881 0.1332
0.5000 0.3015 0.1378
0.5200 0.3149 0.1376
0.5400 0.3282 0.1428
0.5600 0.3415 0.1422
0.5800 0.3549 0.1479
0.6000 0.3682 0.1483
0.6200 0.3816 0.1500
0.6400 0.3949 0.1531
0.6600 0.4081 0.1550
0.6800 0.4215 0.1583
0.7000 0.4348 0.1590
0.7200 0.4482 0.1637
0.7400 0.4615 0.1621
0.7600 0.4748 0.1685
0.7800 0.4881 0.1675
0.8000 0.5015 0.1715
0.8200 0.5148 0.1723
0.8400 0.5282 0.1764
0.8600 0.5416 0.1753
0.8800 0.5549 0.1808
0.9000 0.5682 0.1814
0.9200 0.5815 0.1844
0.9400 0.5949 0.1856
0.9600 0.6082 0.1891
0.9800 0.6215 0.1886
1.0000 0.6348 0.1933
1.0200 0.6481 0.1942
1.0400 0.6615 0.1964
1.0600 0.6748 0.1979
1.0800 0.6881 0.2007
1.1000 0.7014 0.2014
1.1200 0.7147 0.2051
1.1400 0.7281 0.2070
1.1600 0.7415 0.2070
1.1800 0.7548 0.2113
1.2000 0.7681 0.2113
1.2200 0.7815 0.2152
1.2400 0.7949 0.2151
1.2600 0.8082 0.2199
1.2800 0.8215 0.2191
1.3000 0.8348 0.2241
1.3200 0.8482 0.2242
1.3400 0.8616 0.2260
1.3600 0.8749 0.2291
1.3800 0.8882 0.2300
1.4000 0.9016 0.2329
1.4200 0.9149 0.2329
1.4400 0.9282 0.2384
1.4600 0.9415 0.2355
1.4800 0.9548 0.2424
1.5000 0.9681 0.2407
1.5200 0.9815 0.2455
1.5400 0.9948 0.2440
1.5600 1.0081 0.2496
1.5800 1.0215 0.2477
1.6000 1.0349 0.2529
1.6200 1.0482 0.2530
1.6400 1.0616 0.2552
1.6600 1.0749 0.2577
1.6800 1.0883 0.2586
1.7000 1.1016 0.2609
1.7200 1.1149 0.2625
1.7400 1.1282 0.2656
1.7600 1.1415 0.2662
1.7800 1.1548 0.2688
1.8000 1.1682 0.2706
1.8200 1.1815 0.2719
1.8400 1.1948 0.2737
1.8600 1.2081 0.2770
1.8800 1.2215 0.2766
1.9000 1.2348 0.2806
1.9200 1.2481 0.2807
1.9400 1.2615 0.2839
1.9600 1.2749 0.2835
1.9800 1.2883 0.2889
2.0000 1.3016 0.2867
2.0200 1.3149 0.2921
2.0400 1.3282 0.2916
2.0600 1.3416 0.2945
2.0800 1.3549 0.2951
2.1000 1.3682 0.2986
2.1200 1.3815 0.2983
2.1400 1.3949 0.3007
2.1600 1.4082 0.3041
2.1800 1.4215 0.3030
2.2000 1.4348 0.3088
2.2200 1.4481 0.3066
2.2400 1.4615 0.3110
2.2600 1.4748 0.3105
2.2800 1.4882 0.3150
2.3000 1.5015 0.3143
2.3200 1.5149 0.3177
2.3400 1.5283 0.3185
2.3600 1.5416 0.3201
2.3800 1.5549 0.3215
2.4000 1.5682 0.3244
2.4200 1.5816 0.3254
2.4400 1.5949 0.3265
2.4600 1.6082 0.3307
2.4800 1.6215 0.3290
2.5000 1.6348 0.3345
2.5200 1.6481 0.3323
2.5400 1.6614 0.3369
2.5600 1.6747 0.3356
2.5800 1.6881 0.3401
2.6000 1.7015 0.3387
2.6200 1.7148 0.3430
2.6400 1.7282 0.3433
2.6600 1.7415 0.3461
2.6800 1.7549 0.3459
2.7000 1.7683 0.3505
2.7200 1.7816 0.3486
2.7400 1.7949 0.3529
2.7600 1.8082 0.3533
2.7800 1.8216 0.3553
2.8000 1.8349 0.3569
2.8200 1.8482 0.3587
2.8400 1.8615 0.3605
2.8600 1.8748 0.3613
2.8800 1.8882 0.3651
2.9000 1.9015 0.3638
2.9200 1.9148 0.3685
2.9400 1.9282 0.3674
2.9600 1.9415 0.3716
2.9800 1.9548 0.3701
3.0000 1.9682 0.3755
3.0200 1.9815 0.3724
3.0400 1.9949 0.3777
3.0600 2.0082 0.3770
3.0800 2.0215 0.3800
3.1000 2.0348 0.3809
3.1200 2.0482 0.3837
3.1400 2.0616 0.3847
3.1600 2.0749 0.3855
3.1800 2.0882 0.3894
3.2000 2.1015 0.3883
3.2200 2.1149 0.3918
3.2400 2.1282 0.3920
3.2600 2.1415 0.3949
3.2800 2.1548 0.3953
3.3000 2.1681 0.3981
3.3200 2.1815 0.3980
3.3400 2.1948 0.4002
3.3600 2.2082 0.4024
3.3800 2.2215 0.4033
3.4000 2.2349 0.4052
3.4200 2.2482 0.4070
3.4400 2.2615 0.4077
3.4600 2.2748 0.4095
3.4800 2.2882 0.4117
3.5000 2.3016 0.4127
3.5200 2.3149 0.4140
3.5400 2.3282 0.4153
3.5600 2.3415 0.4170
3.5800 2.3549 0.4182
3.6000 2.3682 0.4210
3.6200 2.3815 0.4215
3.6400 2.3948 0.4236
3.6600 2.4081 0.4252
3.6800 2.4214 0.4272
3.7000 2.4348 0.4268
3.7200 2.4481 0.4311
3.7400 2.4615 0.4289
3.7600 2.4749 0.4332
3.7800 2.4883 0.4322
3.8000 2.5016 0.4364
3.8200 2.5149 0.4361
3.8400 2.5283 0.4393
3.8600 2.5416 0.4396
3.8800 2.5549 0.4405
3.9000 2.5682 0.4440
3.9200 2.5815 0.4439
3.9400 2.5948 0.4463
3.9600 2.6082 0.4461
3.9800 2.6215 0.4493
4.0000 2.6348 0.4476
4.0200 2.6481 0.4531
4.0400 2.6615 0.4505
4.0600 2.6749 0.4566
4.0800 2.6882 0.4543
4.1000 2.7015 0.4590
4.1200 2.7149 0.4574
4.1400 2.7283 0.4617
4.1600 2.7416 0.4607
4.1800 2.7549 0.4636
4.2000 2.7682 0.4648
4.2200 2.7816 0.4662
4.2400 2.7949 0.4664
4.2600 2.8082 0.4698
4.2800 2.8215 0.4706
4.3000 2.8348 0.4720
4.3200 2.8482 0.4745
4.3400 2.8615 0.4746
4.3600 2.8748 0.4770
4.3800 2.8881 0.4770
4.4000 2.9015 0.4790
4.4200 2.9149 0.4793
4.4400 2.9282 0.4829
4.4600 2.9415 0.4831
4.4800 2.9549 0.4850
4.5000 2.9682 0.4862
4.5200 2.9816 0.4894
4.5400 2.9949 0.4872
4.5600 3.0082 0.4922
4.5800 3.0216 0.4909
4.6000 3.0349 0.4941
4.6200 3.0482 0.4948
4.6400 3.0615 0.4963
4.6600 3.0748 0.4975
4.6800 3.0882 0.4980
4.7000 3.1015 0.5009
4.7200 3.1148 0.5007
4.7400 3.1281 0.5045
4.7600 3.1415 0.5041
4.7800 3.1549 0.5065
4.8000 3.1682 0.5074
4.8200 3.1815 0.5107
4.8400 3.1949 0.5085
4.8600 3.2083 0.5141
4.8800 3.2216 0.5120
4.9000 3.2349 0.5160
4.9200 3.2482 0.5151
4.9400 3.2615 0.5174
4.9600 3.2748 0.5170
4.9800 3.2882 0.5209
5.0000 3.3015 0.5210
5.0200 3.3148 0.5228
5.0400 3.3282 0.5240
5.0600 3.3415 0.5268
5.0800 3.3548 0.5259
5.1000 3.3681 0.5296
5.1200 3.3815 0.5298
5.1400 3.3948 0.5305
5.1600 3.4081 0.5327
5.1800 3.4215 0.5336
5.2000 3.4348 0.5351
5.2200 3.4482 0.5351
5.2400 3.4616 0.5385
5.2600 3.4749 0.5370
5.2800 3.4882 0.5415
5.3000 3.5016 0.5410
5.3200 3.5149 0.5436
5.3400 3.5282 0.5428
5.3600 3.5415 0.5465
5.3800 3.5549 0.5445
5.4000 3.5682 0.5488
5.4200 3.5815 0.5485
5.4400 3.5948 0.5510
5.4600 3.6081 0.5514
5.4800 3.6215 0.5530
5.5000 3.6348 0.5539
5.5200 3.6481 0.5545
5.5400 3.6615 0.5574
5.5600 3.6749 0.5558
5.5800 3.6883 0.5607
5.6000 3.7016 0.5595
5.6200 3.7149 0.5632
5.6400 3.7282 0.5622
5.6600 3.7416 0.5668
5.6800 3.7550 0.5645
5.7000 3.7682 0.5689
5.7200 3.7815 0.5688
5.7400 3.7948 0.5700
5.7600 3.8082 0.5720
5.7800 3.8215 0.5728
5.8000 3.8348 0.5738
5.8200 3.8481 0.5742
5.8400 3.8615 0.5771
5.8600 3.8748 0.5756
5.8800 3.8881 0.5802
5.9000 3.9015 0.5795
5.9200 3.9148 0.5823
5.9400 3.9282 0.5823
5.9600 3.9416 0.5857
5.9800 3.9549 0.5847
6.0000 3.9682 0.5883
6.0200 3.9816 0.5878
6.0400 3.9949 0.5900
6.0600 4.0082 0.5894
6.0800 4.0215 0.5935
6.1000 4.0348 0.5905
6.1200 4.0481 0.5957
6.1400 4.0615 0.5954
6.1600 4.0748 0.5979
6.1800 4.0881 0.5982
6.2000 4.1015 0.6004
6.2200 4.1149 0.6007
6.2400 4.1282 0.6015
6.2600 4.1415 0.6045
6.2800 4.1549 0.6024
6.3000 4.1683 0.6069
6.3200 4.1816 0.6063
6.3400 4.1948 0.6098
6.3600 4.2082 0.6083
6.3800 4.2215 0.6124
6.4000 4.2349 0.6088
6.4200 4.2482 0.6142
6.4400 4.2615 0.6136
6.4600 4.2749 0.6159
6.4800 4.2882 0.6169
6.5000 4.3016 0.6180
6.5200 4.3148 0.6205
6.5400 4.3281 0.6199
6.5600 4.3415 0.6240
6.5800 4.3548 0.6224
6.6000 4.3681 0.6262
6.6200 4.3815 0.6264
6.6400 4.3948 0.6282
6.6600 4.4082 0.6279
6.6800 4.4216 0.6315
6.7000 4.4349 0.6280
6.7200 4.4482 0.6328
6.7400 4.4616 0.6320
6.7600 4.4749 0.6350
6.7800 4.4882 0.6343
6.8000 4.5015 0.6384
6.8200 4.5149 0.6368
6.8400 4.5282 0.6400
6.8600 4.5415 0.6409
6.8800 4.5548 0.6419
6.9000 4.5681 0.6437
6.9200 4.5814 0.6443
6.9400 4.5948 0.6455
6.9600 4.6081 0.6462
6.9800 4.6215 0.6497
7.0000 4.6348 0.6469
7.0200 4.6482 0.6519
7.0400 4.6616 0.6489
7.0600 4.6749 0.6555
7.0800 4.6882 0.6510
7.1000 4.7016 0.6571
7.1200 4.7149 0.6510
7.1400 4.7282 0.6574
7.1600 4.7415 0.6549
7.1800 4.7549 0.6600
7.2000 4.7682 0.6576
7.2200 4.7815 0.6611
7.2400 4.7948 0.6582
7.2600 4.8081 0.6625
7.2800 4.8215 0.6625
7.3000 4.8348 0.6643
7.3200 4.8481 0.6660
7.3400 4.8615 0.6673
7.3600 4.8748 0.6692
7.3800 4.8882 0.6690
7.4000 4.9016 0.6730
7.4200 4.9149 0.6710
7.4400 4.9282 0.6750
7.4600 4.9416 0.6746
7.4800 4.9549 0.6761
7.5000 4.9683 0.6769
7.5200 4.9816 0.6796
7.5400 4.9949 0.6790
7.5600 5.0082 0.6818
7.5800 5.0215 0.6823
7.6000 5.0348 0.6845
7.6200 5.0481 0.6841
7.6400 5.0614 0.6877
7.6600 5.0748 0.6866
7.6800 5.0882 0.6881
7.7000 5.1015 0.6904
7.7200 5.1148 0.6897
7.7400 5.1282 0.6912
7.7600 5.1416 0.6918
7.7800 5.1549 0.6936
7.8000 5.1682 0.6933
7.8200 5.1815 0.6967
7.8400 5.1949 0.6964
7.8600 5.2082 0.6986
7.8800 5.2215 0.6998
7.9000 5.2348 0.7011
7.9200 5.2481 0.7012
7.9400 5.2615 0.7032
7.9600 5.2748 0.7039
7.9800 5.2881 0.7045
8.0000 5.3015 0.7076
8.0200 5.3148 0.7068
8.0400 5.3281 0.7092
8.0600 5.3415 0.7095
8.0800 5.3549 0.7121
8.1000 5.3682 0.7110
8.1200 5.3816 0.7139
8.1400 5.3949 0.7133
8.1600 5.4082 0.7156
8.1800 5.4216 0.7160
8.2000 5.4349 0.7179
8.2200 5.4482 0.7175
8.2400 5.4615 0.7210
8.2600 5.4748 0.7201
8.2800 5.4882 0.7228
8.3000 5.5015 0.7235
8.3200 5.5148 0.7247
8.3400 5.5281 0.7252
8.3600 5.5414 0.7266
8.3800 5.5548 0.7282
8.4000 5.5681 0.7280
8.4200 5.5815 0.7301
8.4400 5.5948 0.7303
8.4600 5.6082 0.7319
8.4800 5.6216 0.7328
8.5000 5.6349 0.7341
8.5200 5.6482 0.7337
8.5400 5.6615 0.7370
8.5600 5.6749 0.7356
8.5800 5.6882 0.7379
8.6000 5.7016 0.7364
8.6200 5.7149 0.7391
8.6400 5.7282 0.7369
8.6600 5.7416 0.7418
8.6800 5.7549 0.7413
8.7000 5.7681 0.7439
8.7200 5.7814 0.7447
8.7400 5.7948 0.7464
8.7600 5.8081 0.7454
8.7800 5.8215 0.7487
8.8000 5.8348 0.7490
8.8200 5.8482 0.7507
8.8400 5.8616 0.7515
8.8600 5.8749 0.7522
8.8800 5.8882 0.7536
8.9000 5.9016 0.7548
8.9200 5.9150 0.7565
8.9400 5.9283 0.7558
8.9600 5.9416 0.7589
8.9800 5.9549 0.7585
9.0000 5.9682 0.7605
9.0200 5.9815 0.7609
9.0400 5.9948 0.7628
9.0600 6.0081 0.7610
9.0800 6.0214 0.7636
9.1000 6.0348 0.7625
9.1200 6.0482 0.7649
9.1400 6.0615 0.7657
9.1600 6.0748 0.7671
9.1800 6.0882 0.7677
9.2000 6.1016 0.7693
9.2200 6.1149 0.7714
9.2400 6.1282 0.7701
9.2600 6.1415 0.7742
9.2800 6.1549 0.7720
9.3000 6.1682 0.7728
9.3200 6.1815 0.7748
9.3400 6.1948 0.7765
9.3600 6.2082 0.7764
9.3800 6.2215 0.7796
9.4000 6.2348 0.7796
9.4200 6.2481 0.7811
9.4400 6.2614 0.7817
9.4600 6.2748 0.7838
9.4800 6.2882 0.7832
9.5000 6.3015 0.7861
9.5200 6.3148 0.7856
9.5400 6.3282 0.7871
9.5600 6.3415 0.7882
9.5800 6.3549 0.7894
9.6000 6.3682 0.7896
9.6200 6.3816 0.7914
9.6400 6.3949 0.7931
9.6600 6.4083 0.7923
9.6800 6.4215 0.7954
9.7000 6.4348 0.7946
9.7200 6.4482 0.7967
9.7400 6.4615 0.7947
9.7600 6.4748 0.7987
9.7800 6.4881 0.7967
9.8000 6.5014 0.8011
9.8200 6.5148 0.8005
9.8400 6.5282 0.8017
9.8600 6.5415 0.8036
9.8800 6.5548 0.8039
9.9000 6.5682 0.8051
9.9200 6.5816 0.8057
9.9400 6.5949 0.8078
9.9600 6.6082 0.8074
9.9800 6.6216 0.8096
10.0000 6.6349 0.8093
10.0200 6.6482 0.8117
10.0400 6.6616 0.8109
10.0600 6.6749 0.8135
10.0800 6.6882 0.8114
10.1000 6.7015 0.8156
10.1200 6.7149 0.8149
10.1400 6.7282 0.8169
10.1600 6.7415 0.8171
10.1800 6.7548 0.8198
10.2000 6.7682 0.8179
10.2200 6.7815 0.8206
10.2400 6.7948 0.8206
10.2600 6.8082 0.8222
10.2800 6.8216 0.8221
10.3000 6.8349 0.8248
10.3200 6.8482 0.8249
10.3400 6.8615 0.8266
10.3600 6.8749 0.8282
10.3800 6.8882 0.8272
10.4000 6.9015 0.8305
10.4200 6.9148 0.8299
10.4400 6.9282 0.8329
10.4600 6.9415 0.8311
10.4800 6.9548 0.8359
10.5000 6.9681 0.8325
10.5200 6.9815 0.8375
10.5400 6.9948 0.8362
10.5600 7.0081 0.8386
10.5800 7.0215 0.8381
10.6000 7.0348 0.8407
10.6200 7.0482 0.8402
10.6400 7.0615 0.8418
10.6600 7.0749 0.8426
10.6800 7.0882 0.8415
10.7000 7.1015 0.8426
10.7200 7.1149 0.8428
10.7400 7.1282 0.8455
10.7600 7.1415 0.8448
10.7800 7.1548 0.8472
10.8000 7.1681 0.8450
10.8200 7.1815 0.8477
10.8400 7.1949 0.8487
10.8600 7.2082 0.8501
10.8800 7.2215 0.8518
10.9000 7.2348 0.8527
10.9200 7.2481 0.8531
10.9400 7.2614 0.8549
10.9600 7.2748 0.8563
10.9800 7.2882 0.8567
11.0000 7.3016 0.8580
11.0200 7.3150 0.8589
11.0400 7.3283 0.8603
11.0600 7.3416 0.8600
11.0800 7.3549 0.8635
11.1000 7.3683 0.8620
11.1200 7.3816 0.8648
11.1400 7.3948 0.8646
11.1600 7.4081 0.8667
11.1800 7.4214 0.8665
11.2000 7.4348 0.8688
11.2200 7.4481 0.8678
11.2400 7.4615 0.8704
11.2600 7.4748 0.8701
11.2800 7.4882 0.8723
11.3000 7.5015 0.8717
11.3200 7.5149 0.8741
11.3400 7.5282 0.8747
11.3600 7.5416 0.8748
11.3800 7.5549 0.8768
11.4000 7.5682 0.8766
11.4200 7.5815 0.8788
11.4400 7.5949 0.8783
11.4600 7.6082 0.8784
11.4800 7.6215 0.8784
11.5000 7.6348 0.8810
11.5200 7.6482 0.8800
11.5400 7.6615 0.8835
11.5600 7.6749 0.8833
11.5800 7.6881 0.8859
11.6000 7.7014 0.8849
11.6200 7.7148 0.8879
11.6400 7.7282 0.8869
11.6600 7.7415 0.8889
11.6800 7.7549 0.8899
11.7000 7.7682 0.8905
11.7200 7.7816 0.8912
11.7400 7.7949 0.8932
11.7600 7.8082 0.8929
11.7800 7.8215 0.8957
11.8000 7.8349 0.8952
11.8200 7.8482 0.8964
11.8400 7.8616 0.8965
11.8600 7.8748 0.8988
11.8800 7.8881 0.8995
11.9000 7.9015 0.8983
11.9200 7.9148 0.9010
11.9400 7.9281 0.8999
11.9600 7.9414 0.9019
11.9800 7.9548 0.9021
12.0000 7.9682 0.9049
12.0200 7.9815 0.9034
12.0400 7.9948 0.9070
12.0600 8.0082 0.9051
12.0800 8.0216 0.9091
12.1000 8.0349 0.9082
12.1200 8.0482 0.9107
12.1400 8.0615 0.9104
12.1600 8.0749 0.9123
12.1800 8.0882 0.9127
12.2000 8.1015 0.9126
12.2200 8.1148 0.9160
12.2400 8.1282 0.9150
12.2600 8.1415 0.9163
12.2800 8.1549 0.9162
12.3000 8.1682 0.9187
12.3200 8.1815 0.9174
12.3400 8.1948 0.9205
12.3600 8.2082 0.9192
12.3800 8.2215 0.9217
12.4000 8.2348 0.9221
12.4200 8.2481 0.9237
12.4400 8.2615 0.9234
12.4600 8.2749 0.9255
12.4800 8.2883 0.9254
12.5000 8.3016 0.9265
12.5200 8.3149 0.9280
12.5400 8.3283 0.9286
12.5600 8.3416 0.9290
12.5800 8.3549 0.9310
12.6000 8.3682 0.9311
12.6200 8.3815 0.9303
12.6400 8.3949 0.9316
12.6600 8.4082 0.9308
12.6800 8.4215 0.9324
12.7000 8.4348 0.9326
12.7200 8.4481 0.9358
12.7400 8.4614 0.9340
12.7600 8.4748 0.9384
12.7800 8.4881 0.9363
12.8000 8.5015 0.9398
12.8200 8.5149 0.9382
12.8400 8.5282 0.9419
12.8600 8.5415 0.9395
12.8800 8.5549 0.9431
12.9000 8.5683 0.9402
12.9200 8.5816 0.9417
12.9400 8.5949 0.9427
12.9600 8.6082 0.9441
12.9800 8.6215 0.9455
13.0000 8.6349 0.9459
13.0200 8.6482 0.9484
13.0400 8.6614 0.9477
13.0600 8.6748 0.9507
13.0800 8.6881 0.9486
13.1000 8.7015 0.9530
13.1200 8.7148 0.9504
13.1400 8.7282 0.9550
13.1600 8.7415 0.9515
13.1800 8.7549 0.9558
13.2000 8.7682 0.9548
13.2200 8.7815 0.9573
13.2400 8.7948 0.9566
13.2600 8.8082 0.9594
13.2800 8.8215 0.9581
13.3000 8.8349 0.9610
13.3200 8.8482 0.9601
13.3400 8.8615 0.9619
13.3600 8.8748 0.9617
13.3800 8.8881 0.9625
13.4000 8.9015 0.9636
13.4200 8.9148 0.9644
13.4400 8.9282 0.9662
13.4600 8.9415 0.9646
13.4800 8.9549 0.9681
13.5000 8.9682 0.9678
13.5200 8.9815 0.9694
13.5400 8.9949 0.9693
13.5600 9.0082 0.9718
13.5800 9.0215 0.9703
13.6000 9.0348 0.9742
13.6200 9.0482 0.9717
13.6400 9.0615 0.9753
13.6600 9.0749 0.9742
13.6800 9.0882 0.9765
13.7000 9.1016 0.9758
13.7200 9.1149 0.9768
13.7400 9.1282 0.9793
13.7600 9.1415 0.9776
13.7800 9.1548 0.9810
13.8000 9.1682 0.9804
13.8200 9.1815 0.9820
13.8400 9.1948 0.9819
13.8600 9.2081 0.9850
13.8800 9.2215 0.9824
13.9000 9.2349 0.9849
13.9200 9.2482 0.9834
13.9400 9.2615 0.9861
13.9600 9.2749 0.9866
13.9800 9.2883 0.9868
14.0000 9.3016 0.9854
14.0200 9.3149 0.9856
14.0400 9.3282 0.9886
14.0600 9.3415 0.9878
14.0800 9.3549 0.9916
14.1000 9.3682 0.9904
14.1200 9.3815 0.9931
14.1400 9.3948 0.9931
14.1600 9.4081 0.9957
14.1800 9.4215 0.9944
14.2000 9.4348 0.9982
14.2200 9.4482 0.9967
14.2400 9.4615 0.9994
14.2600 9.4749 0.9982
14.2800 9.4882 1.0013
14.3000 9.5015 0.9996
14.3200 9.5149 1.0028
14.3400 9.5282 1.0016
14.3600 9.5416 1.0035
14.3800 9.5549 1.0034
14.4000 9.5682 1.0067
14.4200 9.5815 1.0052
14.4400 9.5949 1.0074
14.4600 9.6082 1.0080
14.4800 9.6215 1.0085
14.5000 9.6348 1.0098
14.5200 9.6482 1.0089
14.5400 9.6615 1.0111
14.5600 9.6748 1.0096
14.5800 9.6881 1.0146
14.6000 9.7015 1.0108
14.6200 9.7148 1.0149
14.6400 9.7282 1.0109
14.6600 9.7415 1.0145
14.6800 9.7549 1.0120
14.7000 9.7683 1.0171
14.7200 9.7816 1.0149
14.7400 9.7949 1.0182
14.7600 9.8082 1.0186
14.7800 9.8215 1.0198
14.8000 9.8349 1.0199
14.8200 9.8482 1.0219
14.8400 9.8615 1.0220
14.8600 9.8748 1.0226
14.8800 9.8881 1.0247
14.9000 9.9015 1.0236
14.9200 9.9148 1.0249
14.9400 9.9281 1.0261
14.9600 9.9415 1.0270
14.9800 9.9549 1.0265
15.0000 9.9683 1.0270
15.0200 9.9816 1.0261
15.0400 9.9949 1.0272
15.0600 10.0082 1.0282
15.0800 10.0216 1.0300
15.1000 10.0349 1.0297
15.1200 10.0482 1.0333
15.1400 10.0615 1.0310
15.1600 10.0748 1.0345
15.1800 10.0881 1.0337
15.2000 10.1015 1.0363
15.2200 10.1148 1.0356
15.2400 10.1281 1.0378
15.2600 10.1415 1.0378
15.2800 10.1548 1.0390
15.3000 10.1682 1.0404
15.3200 10.1815 1.0400
15.3400 10.1949 1.0424
15.3600 10.2082 1.0411
15.3800 10.2215 1.0449
15.4000 10.2349 1.0428
15.4200 10.2482 1.0468
15.4400 10.2616 1.0441
15.4600 10.2749 1.0478
15.4800 10.2881 1.0470
15.5000 10.3015 1.0488
15.5200 10.3148 1.0485
15.5400 10.3282 1.0487
15.5600 10.3415 1.0515
15.5800 10.3548 1.0494
15.6000 10.3681 1.0530
15.6200 10.3815 1.0502
15.6400 10.3948 1.0540
15.6600 10.4082 1.0524
15.6800 10.4215 1.0543
15.7000 10.4349 1.0536
15.7200 10.4482 1.0559
15.7400 10.4615 1.0557
15.7600 10.4748 1.0573
15.7800 10.4882 1.0572
15.8000 10.5016 1.0587
15.8200 10.5149 1.0586
15.8400 10.5282 1.0606
15.8600 10.5415 1.0610
15.8800 10.5549 1.0623
15.9000 10.5682 1.0627
15.9200 10.5815 1.0637
15.9400 10.5948 1.0635
15.9600 10.6081 1.0658
15.9800 10.6215 1.0648
16.0000 10.6348 1.0668
16.0200 10.6481 1.0674
16.0400 10.6615 1.0676
16.0600 10.6749 1.0680
16.0800 10.6883 1.0658
16.1000 10.7016 1.0686
16.1200 10.7149 1.0666
16.1400 10.7283 1.0718
16.1600 10.7416 1.0696
16.1800 10.7549 1.0732
16.2000 10.7682 1.0730
16.2200 10.7815 1.0752
16.2400 10.7948 1.0744
16.2600 10.8082 1.0762
16.2800 10.8215 1.0774
16.3000 10.8348 1.0771
16.3200 10.8481 1.0792
16.3400 10.8615 1.0790
16.3600 10.8748 1.0805
16.3800 10.8881 1.0801
16.4000 10.9015 1.0824
16.4200 10.9149 1.0813
16.4400 10.9283 1.0842
16.4600 10.9416 1.0834
16.4800 10.9549 1.0851
16.5000 10.9683 1.0847
16.5200 10.9816 1.0839
16.5400 10.9949 1.0845
16.5600 11.0082 1.0854
16.5800 11.0215 1.0867
16.6000 11.0348 1.0868
16.6200 11.0482 1.0874
16.6400 11.0615 1.0892
16.6600 11.0748 1.0877
16.6800 11.0881 1.0904
16.7000 11.1015 1.0900
16.7200 11.1148 1.0919
16.7400 11.1282 1.0932
16.7600 11.1415 1.0945
16.7800 11.1549 1.0951
16.8000 11.1682 1.0952
16.8200 11.1816 1.0971
16.8400 11.1949 1.0962
16.8600 11.2082 1.0997
16.8800 11.2216 1.0972
16.9000 11.2349 1.1014
16.9200 11.2482 1.0994
16.9400 11.2615 1.1036
16.9600 11.2749 1.1005
16.9800 11.2882 1.1044
17.0000 11.3015 1.1027
17.0200 11.3148 1.1046
17.0400 11.3281 1.1048
17.0600 11.3415 1.1048
17.0800 11.3548 1.1066
17.1000 11.3682 1.1050
17.1200 11.3815 1.1097
17.1400 11.3949 1.1066
17.1600 11.4083 1.1100
17.1800 11.4216 1.1079
17.2000 11.4349 1.1107
17.2200 11.4482 1.1098
17.2400 11.4616 1.1123
17.2600 11.4749 1.1115
17.2800 11.4882 1.1139
17.3000 11.5015 1.1140
17.3200 11.5148 1.1145
17.3400 11.5282 1.1161
17.3600 11.5415 1.1165
17.3800 11.5548 1.1178
17.4000 11.5682 1.1177
17.4200 11.5815 1.1202
17.4400 11.5948 1.1188
17.4600 11.6081 1.1212
17.4800 11.6215 1.1213
17.5000 11.6349 1.1219
17.5200 11.6482 1.1220
17.5400 11.6615 1.1245
17.5600 11.6748 1.1223
17.5800 11.6882 1.1259
17.6000 11.7015 1.1235
17.6200 11.7149 1.1271
17.6400 11.7282 1.1246
17.6600 11.7415 1.1268
17.6800 11.7548 1.1230
17.7000 11.7682 1.1266
17.7200 11.7815 1.1259
17.7400 11.7948 1.1278
17.7600 11.8081 1.1285
17.7800 11.8215 1.1294
17.8000 11.8348 1.1306
17.8200 11.8481 1.1302
17.8400 11.8615 1.1331
17.8600 11.8748 1.1321
17.8800 11.8882 1.1347
17.9000 11.9015 1.1335
17.9200 11.9149 1.1367
17.9400 11.9282 1.1352
17.9600 11.9416 1.1381
17.9800 11.9549 1.1370
18.0000 11.9682 1.1391
18.0200 11.9815 1.1401
18.0400 11.9949 1.1395
18.0600 12.0082 1.1413
18.0800 12.0215 1.1415
18.1000 12.0348 1.1431
18.1200 12.0481 1.1420
18.1400 12.0615 1.1431
18.1600 12.0748 1.1389
18.1800 12.0881 1.1289
18.2000 12.1015 1.1055
18.2200 12.1149 1.0935
18.2400 12.1283 1.0896
18.2600 12.1416 1.0945
18.2800 12.1550 1.0948
18.3000 12.1683 1.1001
18.3200 12.1816 1.1001
18.3400 12.1949 1.1043
18.3600 12.2082 1.1049
18.3800 12.2215 1.1095
18.4000 12.2348 1.1103
18.4200 12.2482 1.1129
18.4400 12.2615 1.1152
18.4600 12.2748 1.1177
18.4800 12.2881 1.1191
18.5000 12.3015 1.1222
18.5200 12.3149 1.1232
18.5400 12.3282 1.1249
18.5600 12.3415 1.1296
18.5800 12.3549 1.1279
18.6000 12.3683 1.1327
18.6200 12.3816 1.1318
18.6400 12.3949 1.1364
18.6600 12.4082 1.1350
18.6800 12.4216 1.1398
18.7000 12.4349 1.1378
18.7200 12.4482 1.1423
18.7400 12.4615 1.1415
18.7600 12.4748 1.1450
18.7800 12.4882 1.1436
18.8000 12.5015 1.1483
18.8200 12.5148 1.1466
18.8400 12.5281 1.1488
18.8600 12.5415 1.1499
18.8800 12.5548 1.1497
18.9000 12.5682 1.1523
18.9200 12.5815 1.1529
18.9400 12.5949 1.1547
18.9600 12.6082 1.1551
18.9800 12.6215 1.1573
19.0000 12.6349 1.1577
19.0200 12.6482 1.1589
19.0400 12.6616 1.1600
19.0600 12.6749 1.1615
19.0800 12.6882 1.1613
19.1000 12.7015 1.1649
19.1200 12.7148 1.1631
19.1400 12.7282 1.1660
19.1600 12.7415 1.1655
19.1800 12.7548 1.1676
19.2000 12.7681 1.1671
19.2200 12.7815 1.1686
19.2400 12.7948 1.1687
19.2600 12.8082 1.1690
19.2800 12.8215 1.1716
19.3000 12.8349 1.1709
19.3200 12.8482 1.1728
19.3400 12.8616 1.1732
19.3600 12.8749 1.1755
19.3800 12.8882 1.1747
19.4000 12.9015 1.1784
19.4200 12.9149 1.1761
19.4400 12.9282 1.1800
19.4600 12.9415 1.1787
19.4800 12.9548 1.1820
19.5000 12.9682 1.1807
19.5200 12.9815 1.1816
19.5400 12.9948 1.1793
19.5600 13.0081 1.1779
19.5800 13.0215 1.1798
19.6000 13.0348 1.1802
19.6200 13.0482 1.1830
19.6400 13.0615 1.1828
19.6600 13.0748 1.1849
19.6800 13.0882 1.1813
19.7000 13.1016 1.1864
19.7200 13.1149 1.1836
19.7400 13.1282 1.1887
19.7600 13.1416 1.1866
19.7800 13.1549 1.1914
19.8000 13.1682 1.1892
19.8200 13.1816 1.1934
19.8400 13.1949 1.1921
19.8600 13.2082 1.1944
19.8800 13.2215 1.1943
19.9000 13.2348 1.1966
19.9200 13.2481 1.1968
19.9400 13.2615 1.1981
19.9600 13.2748 1.1989
19.9800 13.2881 1.1995
20.0000 13.3014 1.2012
20.0200 13.3148 1.2014
20.0400 13.3282 1.2024
20.0600 13.3416 1.2018
20.0800 13.3549 1.2048
20.1000 13.3682 1.2028
20.1200 13.3816 1.2058
20.1400 13.3949 1.2031
20.1600 13.4082 1.2055
20.1800 13.4215 1.2046
20.2000 13.4348 1.2081
20.2200 13.4482 1.2063
20.2400 13.4615 1.2100
20.2600 13.4748 1.2090
20.2800 13.4881 1.2112
20.3000 13.5014 1.2111
20.3200 13.5148 1.2131
20.3400 13.5281 1.2128
20.3600 13.5415 1.2142
20.3800 13.5548 1.2159
20.4000 13.5682 1.2151
20.4200 13.5816 1.2172
20.4400 13.5949 1.2166
20.4600 13.6082 1.2195
20.4800 13.6216 1.2180
20.5000 13.6349 1.2211
20.5200 13.6482 1.2198
20.5400 13.6615 1.2228
20.5600 13.6748 1.2224
20.5800 13.6881 1.2231
20.6000 13.7015 1.2235
20.6200 13.7148 1.2255
20.6400 13.7281 1.2249
20.6600 13.7415 1.2258
20.6800 13.7549 1.2280
20.7000 13.7682 1.2264
20.7200 13.7815 1.2298
20.7400 13.7949 1.2278
20.7600 13.8082 1.2317
20.7800 13.8216 1.2292
20.8000 13.8349 1.2338
20.8200 13.8482 1.2309
20.8400 13.8615 1.2354
20.8600 13.8749 1.2332
20.8800 13.8882 1.2359
20.9000 13.9015 1.2353
20.9200 13.9149 1.2369
20.9400 13.9282 1.2342
20.9600 13.9416 1.2350
20.9800 13.9549 1.2359
21.0000 13.9681 1.2368
21.0200 13.9815 1.2393
21.0400 13.9948 1.2387
21.0600 14.0081 1.2411
21.0800 14.0215 1.2395
21.1000 14.0348 1.2434
21.1200 14.0482 1.2404
21.1400 14.0616 1.2452
21.1600 14.0749 1.2431
21.1800 14.0882 1.2466
21.2000 14.1016 1.2452
21.2200 14.1149 1.2492
21.2400 14.1282 1.2461
21.2600 14.1415 1.2513
21.2800 14.1548 1.2493
21.3000 14.1682 1.2522
21.3200 14.1815 1.2508
21.3400 14.1948 1.2538
21.3600 14.2081 1.2533
21.3800 14.2214 1.2535
21.4000 14.2348 1.2567
21.4200 14.2481 1.2540
21.4400 14.2615 1.2579
21.4600 14.2748 1.2562
21.4800 14.2882 1.2596
21.5000 14.3016 1.2570
21.5200 14.3149 1.2617
21.5400 14.3282 1.2589
21.5600 14.3415 1.2633
21.5800 14.3549 1.2610
21.6000 14.3682 1.2641
21.6200 14.3815 1.2634
21.6400 14.3949 1.2660
21.6600 14.4082 1.2658
21.6800 14.4215 1.2660
21.7000 14.4348 1.2680
21.7200 14.4481 1.2651
21.7400 14.4615 1.2660
21.7600 14.4748 1.2651
21.7800 14.4881 1.2672
21.8000 14.5015 1.2668
21.8200 14.5148 1.2705
21.8400 14.5282 1.2696
21.8600 14.5416 1.2720
21.8800 14.5549 1.2715
21.9000 14.5682 1.2740
21.9200 14.5816 1.2734
21.9400 14.5949 1.2772
21.9600 14.6083 1.2751
21.9800 14.6216 1.2772
22.0000 14.6349 1.2775
22.0200 14.6482 1.2770
22.0400 14.6615 1.2762
22.0600 14.6748 1.2789
22.0800 14.6881 1.2792
22.1000 14.7015 1.2794
22.1200 14.7148 1.2830
22.1400 14.7282 1.2804
22.1600 14.7415 1.2845
22.1800 14.7548 1.2824
22.2000 14.7682 1.2865
22.2200 14.7816 1.2830
22.2400 14.7949 1.2886
22.2600 14.8082 1.2854
22.2800 14.8215 1.2895
22.3000 14.8349 1.2879
22.3200 14.8483 1.2909
22.3400 14.8616 1.2897
22.3600 14.8749 1.2925
22.3800 14.8882 1.2929
22.4000 14.9015 1.2928
22.4200 14.9148 1.2951
22.4400 14.9281 1.2939
22.4600 14.9415 1.2951
22.4800 14.9548 1.2939
22.5000 14.9681 1.2950
22.5200 14.9815 1.2942
22.5400 14.9948 1.2981
22.5600 15.0082 1.2966
22.5800 15.0216 1.2996
22.6000 15.0349 1.2994
22.6200 15.0482 1.3024
22.6400 15.0615 1.3002
22.6600 15.0749 1.3041
22.6800 15.0882 1.3030
22.7000 15.1015 1.3051
22.7200 15.1148 1.3060
22.7400 15.1282 1.3068
22.7600 15.1415 1.3071
22.7800 15.1548 1.3090
22.8000 15.1681 1.3087
22.8200 15.1815 1.3088
22.8400 15.1948 1.3109
22.8600 15.2082 1.3098
22.8800 15.2215 1.3122
22.9000 15.2348 1.3111
22.9200 15.2482 1.3147
22.9400 15.2615 1.3118
22.9600 15.2749 1.3164
22.9800 15.2882 1.3143
23.0000 15.3015 1.3172
23.0200 15.3149 1.3170
23.0400 15.3282 1.3190
23.0600 15.3415 1.3185
23.0800 15.3549 1.3210
23.1000 15.3682 1.3210
23.1200 15.3816 1.3211
23.1400 15.3949 1.3228
23.1600 15.4081 1.3196
23.1800 15.4214 1.3218
23.2000 15.4347 1.3203
23.2200 15.4481 1.3248
23.2400 15.4614 1.3214
23.2600 15.4748 1.3278
23.2800 15.4882 1.3243
23.3000 15.5016 1.3285
23.3200 15.5149 1.3276
23.3400 15.5282 1.3300
23.3600 15.5416 1.3289
23.3800 15.5549 1.3321
23.4000 15.5683 1.3314
23.4200 15.5816 1.3332
23.4400 15.5949 1.3340
23.4600 15.6082 1.3344
23.4800 15.6215 1.3355
23.5000 15.6348 1.3360
23.5200 15.6481 1.3383
23.5400 15.6614 1.3363
23.5600 15.6748 1.3407
23.5800 15.6882 1.3382
23.6000 15.7015 1.3409
23.6200 15.7148 1.3408
23.6400 15.7282 1.3432
23.6600 15.7416 1.3412
23.6800 15.7549 1.3442
23.7000 15.7683 1.3437
23.7200 15.7816 1.3431
23.7400 15.7949 1.3418
23.7600 15.8083 1.3435
23.7800 15.8216 1.3434
23.8000 15.8348 1.3461
23.8200 15.8482 1.3460
23.8400 15.8615 1.3438
23.8600 15.8748 1.3467
23.8800 15.8881 1.3467
23.9000 15.9014 1.3489
23.9200 15.9148 1.3498
23.9400 15.9282 1.3516
23.9600 15.9415 1.3506
23.9800 15.9548 1.3536
24.0000 15.9682 1.3538
24.0200 15.9816 1.3547
24.0400 15.9949 1.3564
24.0600 16.0082 1.3574
24.0800 16.0216 1.3577
24.1000 16.0349 1.3589
24.1200 16.0483 1.3609
24.1400 16.0616 1.3599
24.1600 16.0749 1.3622
24.1800 16.0882 1.3626
24.2000 16.1015 1.3633
24.2200 16.1148 1.3641
24.2400 16.1281 1.3657
24.2600 16.1414 1.3651
24.2800 16.1548 1.3672
24.3000 16.1682 1.3677
24.3200 16.1815 1.3690
24.3400 16.1948 1.3692
24.3600 16.2082 1.3709
24.3800 16.2216 1.3698
24.4000 16.2349 1.3725
24.4200 16.2482 1.3716
24.4400 16.2615 1.3729
24.4600 16.2749 1.3729
24.4800 16.2882 1.3733
24.5000 16.3016 1.3715
24.5200 16.3149 1.3740
24.5400 16.3282 1.3755
24.5600 16.3415 1.3752
24.5800 16.3549 1.3778
24.6000 16.3681 1.3776
24.6200 16.3815 1.3798
24.6400 16.3948 1.3801
24.6600 16.4082 1.3820
24.6800 16.4215 1.3811
24.7000 16.4348 1.3845
24.7200 16.4482 1.3839
24.7400 16.4616 1.3858
24.7600 16.4749 1.3851
24.7800 16.4882 1.3884
24.8000 16.5015 1.3870
24.8200 16.5148 1.3898
24.8400 16.5282 1.3892
24.8600 16.5416 1.3902
24.8800 16.5549 1.3913
24.9000 16.5682 1.3928
24.9200 16.5815 1.3929
24.9400 16.5949 1.3937
24.9600 16.6082 1.3955
24.9800 16.6215 1.3940
25.0000 16.6348 1.3971
25.0200 16.6482 1.3963
25.0400 16.6615 1.3981
25.0600 16.6749 1.3942
25.0800 16.6882 1.3958
25.1000 16.7016 1.3930
25.1200 16.7149 1.3964
25.1400 16.7282 1.3964
25.1600 16.7415 1.3985
25.1800 16.7549 1.4001
25.2000 16.7682 1.4011
25.2200 16.7815 1.4026
25.2400 16.7948 1.4040
25.2600 16.8082 1.4058
25.2800 16.8215 1.4050
25.3000 16.8348 1.4070
25.3200 16.8481 1.4081
25.3400 16.8614 1.4093
25.3600 16.8748 1.4085
25.3800 16.8881 1.4109
25.4000 16.9015 1.4084
25.4200 16.9148 1.4122
25.4400 16.9282 1.4121
25.4600 16.9416 1.4131
25.4800 16.9549 1.4139
25.5000 16.9683 1.4159
25.5200 16.9816 1.4157
25.5400 16.9949 1.4176
25.5600 17.0082 1.4185
25.5800 17.0215 1.4185
25.6000 17.0348 1.4198
25.6200 17.0481 1.4205
25.6400 17.0615 1.4218
25.6600 17.0748 1.4211
25.6800 17.0881 1.4244
25.7000 17.1014 1.4226
25.7200 17.1148 1.4260
25.7400 17.1282 1.4250
25.7600 17.1415 1.4276
25.7800 17.1548 1.4262
25.8000 17.1682 1.4289
25.8200 17.1816 1.4274
25.8400 17.1949 1.4293
25.8600 17.2082 1.4302
25.8800 17.2216 1.4310
25.9000 17.2349 1.4323
25.9200 17.2483 1.4335
25.9400 17.2616 1.4342
25.9600 17.2748 1.4346
25.9800 17.2881 1.4376
26.0000 17.3015 1.4354
26.0200 17.3149 1.4396
26.0400 17.3282 1.4374
26.0600 17.3415 1.4405
26.0800 17.3548 1.4367
26.1000 17.3682 1.4399
26.1200 17.3815 1.4371
26.1400 17.3948 1.4410
26.1600 17.4082 1.4405
26.1800 17.4215 1.4436
26.2000 17.4349 1.4424
26.2200 17.4482 1.4461
26.2400 17.4615 1.4447
26.2600 17.4749 1.4469
26.2800 17.4883 1.4482
26.3000 17.5016 1.4475
26.3200 17.5149 1.4496
26.3400 17.5282 1.4492
26.3600 17.5415 1.4507
26.3800 17.5549 1.4501
26.4000 17.5682 1.4537
26.4200 17.5814 1.4527
26.4400 17.5948 1.4546
26.4600 17.6082 1.4544
26.4800 17.6215 1.4569
26.5000 17.6348 1.4554
26.5200 17.6482 1.4597
26.5400 17.6616 1.4582
26.5600 17.6749 1.4604
26.5800 17.6882 1.4601
26.6000 17.7015 1.4626
26.6200 17.7149 1.4616
26.6400 17.7282 1.4636
26.6600 17.7415 1.4620
26.6800 17.7548 1.4623
26.7000 17.7681 1.4651
26.7200 17.7815 1.4650
26.7400 17.7949 1.4670
26.7600 17.8082 1.4668
26.7800 17.8215 1.4701
26.8000 17.8348 1.4684
26.8200 17.8482 1.4724
26.8400 17.8615 1.4702
26.8600 17.8748 1.4733
26.8800 17.8881 1.4720
26.9000 17.9015 1.4687
26.9200 17.9149 1.4653
26.9400 17.9282 1.4680
26.9600 17.9415 1.4691
26.9800 17.9549 1.4711
27.0000 17.9683 1.4740
27.0200 17.9816 1.4740
27.0400 17.9949 1.4765
27.0600 18.0082 1.4767
27.0800 18.0215 1.4797
27.1000 18.0348 1.4789
27.1200 18.0482 1.4827
27.1400 18.0615 1.4802
27.1600 18.0748 1.4825
27.1800 18.0881 1.4817
27.2000 18.1014 1.4851
27.2200 18.1148 1.4831
27.2400 18.1281 1.4887
27.2600 18.1416 1.4855
27.2800 18.1549 1.4891
27.3000 18.1682 1.4887
27.3200 18.1815 1.4917
27.3400 18.1949 1.4903
27.3600 18.2083 1.4935
27.3800 18.2216 1.4932
27.4000 18.2349 1.4950
27.4200 18.2482 1.4961
27.4400 18.2615 1.4969
27.4600 18.2749 1.4976
27.4800 18.2882 1.4982
27.5000 18.3014 1.5008
27.5200 18.3148 1.4981
27.5400 18.3281 1.5042
27.5600 18.3415 1.4999
27.5800 18.3548 1.5055
27.6000 18.3681 1.5026
27.6200 18.3815 1.5067
27.6400 18.3949 1.5038
27.6600 18.4082 1.5076
27.6800 18.4215 1.5055
27.7000 18.4349 1.5072
27.7200 18.4482 1.5081
27.7400 18.4616 1.5076
27.7600 18.4749 1.5046
27.7800 18.4882 1.5043
27.8000 18.5015 1.5072
27.8200 18.5148 1.5064
27.8400 18.5281 1.5113
27.8600 18.5415 1.5095
27.8800 18.5548 1.5133
27.9000 18.5681 1.5128
27.9200 18.5815 1.5157
27.9400 18.5949 1.5152
27.9600 18.6082 1.5182
27.9800 18.6216 1.5184
28.0000 18.6349 1.5183
28.0200 18.6482 1.5214
28.0400 18.6615 1.5214
28.0600 18.6748 1.5225
28.0800 18.6882 1.5233
28.1000 18.7016 1.5249
28.1200 18.7149 1.5248
28.1400 18.7282 1.5285
28.1600 18.7415 1.5264
28.1800 18.7549 1.5300
28.2000 18.7682 1.5275
28.2200 18.7815 1.5320
28.2400 18.7948 1.5285
28.2600 18.8081 1.5335
28.2800 18.8215 1.5306
28.3000 18.8348 1.5341
28.3200 18.8481 1.5323
28.3400 18.8615 1.5373
28.3600 18.8749 1.5320
28.3800 18.8882 1.5363
28.4000 18.9015 1.5344
28.4200 18.9149 1.5367
28.4400 18.9282 1.5384
28.4600 18.9416 1.5389
28.4800 18.9549 1.5407
28.5000 18.9682 1.5400
28.5200 18.9815 1.5446
28.5400 18.9949 1.5414
28.5600 19.0082 1.5461
28.5800 19.0215 1.5444
28.6000 19.0348 1.5479
28.6200 19.0481 1.5460
28.6400 19.0615 1.5493
28.6600 19.0748 1.5481
28.6800 19.0881 1.5506
28.7000 19.1015 1.5511
28.7200 19.1149 1.5515
28.7400 19.1282 1.5528
28.7600 19.1416 1.5524
28.7800 19.1549 1.5523
28.8000 19.1683 1.5534
28.8200 19.1816 1.5554
28.8400 19.1949 1.5555
28.8600 19.2082 1.5572
28.8800 19.2215 1.5593
28.9000 19.2349 1.5587
28.9200 19.2482 1.5611
28.9400 19.2615 1.5610
28.9600 19.2748 1.5592
28.9800 19.2881 1.5585
29.0000 19.3015 1.5586
29.0200 19.3148 1.5602
29.0400 19.3281 1.5614
29.0600 19.3415 1.5645
29.0800 19.3549 1.5641
29.1000 19.3682 1.5673
29.1200 19.3815 1.5673
29.1400 19.3949 1.5685
29.1600 19.4082 1.5700
29.1800 19.4216 1.5708
29.2000 19.4349 1.5725
29.2200 19.4482 1.5720
29.2400 19.4615 1.5751
29.2600 19.4749 1.5722
29.2800 19.4882 1.5769
29.3000 19.5015 1.5751
29.3200 19.5148 1.5791
29.3400 19.5281 1.5761
29.3600 19.5415 1.5807
29.3800 19.5548 1.5781
29.4000 19.5682 1.5823
29.4200 19.5815 1.5816
29.4400 19.5949 1.5832
29.4600 19.6083 1.5847
29.4800 19.6216 1.5850
29.5000 19.6348 1.5876
29.5200 19.6482 1.5859
29.5400 19.6616 1.5905
29.5600 19.6749 1.5872
29.5800 19.6882 1.5908
29.6000 19.7015 1.5870
29.6200 19.7148 1.5886
29.6400 19.7281 1.5882
29.6600 19.7415 1.5919
29.6800 19.7548 1.5906
29.7000 19.7681 1.5938
29.7200 19.7815 1.5940
29.7400 19.7948 1.5960
29.7600 19.8081 1.5966
29.7800 19.8215 1.5985
29.8000 19.8349 1.5970
29.8200 19.8482 1.5932
29.8400 19.8616 1.5927
29.8600 19.8749 1.5931
29.8800 19.8882 1.5954
29.9000 19.9016 1.5983
29.9200 19.9149 1.5992
29.9400 19.9281 1.6013
29.9600 19.9415 1.6037
29.9800 19.9548 1.6019
30.0000 19.9682 1.6050
30.0200 19.9815 1.6037
30.0400 19.9948 1.6077
30.0600 20.0081 1.6055
30.0800 20.0215 1.6111
30.1000 20.0348 1.6089
30.1200 20.0482 1.6121
30.1400 20.0615 1.6128
30.1600 20.0749 1.6136
30.1800 20.0882 1.6148
30.2000 20.1015 1.6167
30.2200 20.1148 1.6178
30.2400 20.1282 1.6178
30.2600 20.1416 1.6210
30.2800 20.1549 1.6186
30.3000 20.1682 1.6236
30.3200 20.1815 1.6212
30.3400 20.1949 1.6252
30.3600 20.2082 1.6220
30.3800 20.2215 1.6259
30.4000 20.2348 1.6217
30.4200 20.2481 1.6235
30.4400 20.2614 1.6246
30.4600 20.2748 1.6250
30.4800 20.2881 1.6269
30.5000 20.3015 1.6286
30.5200 20.3149 1.6294
30.5400 20.3282 1.6304
30.5600 20.3416 1.6335
30.5800 20.3549 1.6331
30.6000 20.3682 1.6350
30.6200 20.3816 1.6353
30.6400 20.3949 1.6377
30.6600 20.4082 1.6367
30.6800 20.4215 1.6408
30.7000 20.4348 1.6386
30.7200 20.4482 1.6410
30.7400 20.4615 1.6409
30.7600 20.4748 1.6438
30.7800 20.4881 1.6423
30.8000 20.5015 1.6458
30.8200 20.5148 1.6436
30.8400 20.5282 1.6453
30.8600 20.5415 1.6455
30.8800 20.5549 1.6463
30.9000 20.5683 1.6473
30.9200 20.5816 1.6498
30.9400 20.5949 1.6506
30.9600 20.6082 1.6505
30.9800 20.6216 1.6543
31.0000 20.6349 1.6526
31.0200 20.6482 1.6562
31.0400 20.6615 1.6549
31.0600 20.6748 1.6585
31.0800 20.6882 1.6562
31.1000 20.7015 1.6599
31.1200 20.7148 1.6579
31.1400 20.7281 1.6602
31.1600 20.7415 1.6608
31.1800 20.7548 1.6613
31.2000 20.7681 1.6605
31.2200 20.7815 1.6597
31.2400 20.7949 1.6602
31.2600 20.8083 1.6602
31.2800 20.8216 1.6644
31.3000 20.8349 1.6644
31.3200 20.8482 1.6673
31.3400 20.8616 1.6677
31.3600 20.8749 1.6700
31.3800 20.8882 1.6700
31.4000 20.9015 1.6725
31.4200 20.9148 1.6733
31.4400 20.9282 1.6736
31.4600 20.9415 1.6754
31.4800 20.9548 1.6754
31.5000 20.9681 1.6769
31.5200 20.9815 1.6786
31.5400 20.9948 1.6791
31.5600 21.0082 1.6795
31.5800 21.0215 1.6804
31.6000 21.0349 1.6797
31.6200 21.0483 1.6813
31.6400 21.0616 1.6818
31.6600 21.0749 1.6849
31.6800 21.0882 1.6844
31.7000 21.1016 1.6882
31.7200 21.1149 1.6869
31.7400 21.1282 1.6904
31.7600 21.1415 1.6895
31.7800 21.1549 1.6934
31.8000 21.1682 1.6903
31.8200 21.1815 1.6951
31.8400 21.1948 1.6925
31.8600 21.2082 1.6964
31.8800 21.2215 1.6950
31.9000 21.2348 1.6950
31.9200 21.2481 1.6940
31.9400 21.2615 1.6954
31.9600 21.2749 1.6981
31.9800 21.2882 1.6959
32.0000 21.3015 1.7028
32.0200 21.3148 1.6987
32.0400 21.3282 1.7050
32.0600 21.3415 1.7018
32.0800 21.3549 1.7082
32.1000 21.3682 1.7039
32.1200 21.3815 1.7101
32.1400 21.3949 1.7067
32.1600 21.4082 1.7075
32.1800 21.4215 1.7028
32.2000 21.4348 1.7055
32.2200 21.4481 1.7050
32.2400 21.4615 1.7091
32.2600 21.4748 1.7097
32.2800 21.4881 1.7113
32.3000 21.5015 1.7139
32.3200 21.5148 1.7144
32.3400 21.5282 1.7159
32.3600 21.5415 1.7170
32.3800 21.5548 1.7193
32.4000 21.5682 1.7188
32.4200 21.5815 1.7216
32.4400 21.5949 1.7220
32.4600 21.6082 1.7248
32.4800 21.6215 1.7229
32.5000 21.6348 1.7247
32.5200 21.6482 1.7198
32.5400 21.6615 1.7245
32.5600 21.6748 1.7235
32.5800 21.6881 1.7261
32.6000 21.7015 1.7285
32.6200 21.7148 1.7293
32.6400 21.7281 1.7306
32.6600 21.7415 1.7314
32.6800 21.7549 1.7337
32.7000 21.7683 1.7331
32.7200 21.7816 1.7371
32.7400 21.7949 1.7358
32.7600 21.8083 1.7394
32.7800 21.8216 1.7378
32.8000 21.8350 1.7426
32.8200 21.8482 1.7398
32.8400 21.8615 1.7448
32.8600 21.8748 1.7433
32.8800 21.8882 1.7441
32.9000 21.9015 1.7459
32.9200 21.9148 1.7460
32.9400 21.9281 1.7476
32.9600 21.9415 1.7460
32.9800 21.9549 1.7506
33.0000 21.9682 1.7477
33.0200 21.9815 1.7529
33.0400 21.9949 1.7508
33.0600 22.0083 1.7553
33.0800 22.0216 1.7530
33.1000 22.0349 1.7591
33.1200 22.0482 1.7537
33.1400 22.0616 1.7571
33.1600 22.0749 1.7534
33.1800 22.0882 1.7565
33.2000 22.1015 1.7572
33.2200 22.1148 1.7600
33.2400 22.1282 1.7602
33.2600 22.1415 1.7621
33.2800 22.1548 1.7644
33.3000 22.1681 1.7646
33.3200 22.1815 1.7669
33.3400 22.1948 1.7672
33.3600 22.2082 1.7686
33.3800 22.2215 1.7689
33.4000 22.2348 1.7717
33.4200 22.2482 1.7705
33.4400 22.2616 1.7737
33.4600 22.2749 1.7732
33.4800 22.2882 1.7761
33.5000 22.3016 1.7739
33.5200 22.3149 1.7767
33.5400 22.3282 1.7749
33.5600 22.3415 1.7786
33.5800 22.3548 1.7787
33.6000 22.3682 1.7805
33.6200 22.3815 1.7810
33.6400 22.3948 1.7836
33.6600 22.4081 1.7845
33.6800 22.4215 1.7841
33.7000 22.4348 1.7879
33.7200 22.4482 1.7857
33.7400 22.4615 1.7889
33.7600 22.4748 1.7853
33.7800 22.4882 1.7895
33.8000 22.5016 1.7868
33.8200 22.5149 1.7926
33.8400 22.5282 1.7906
33.8600 22.5415 1.7931
33.8800 22.5549 1.7924
33.9000 22.5682 1.7943
33.9200 22.5815 1.7954
33.9400 22.5948 1.7975
33.9600 22.6082 1.7990
33.9800 22.6215 1.7987
34.0000 22.6348 1.8022
34.0200 22.6481 1.8010
34.0400 22.6615 1.8039
34.0600 22.6748 1.8037
34.0800 22.6882 1.8071
34.1000 22.7015 1.8061
34.1200 22.7148 1.8101
34.1400 22.7282 1.8084
34.1600 22.7416 1.8101
34.1800 22.7549 1.8077
34.2000 22.7682 1.8065
34.2200 22.7815 1.8048
34.2400 22.7949 1.8080
34.2600 22.8082 1.8091
34.2800 22.8215 1.8120
34.3000 22.8349 1.8132
34.3200 22.8482 1.8155
34.3400 22.8615 1.8159
34.3600 22.8748 1.8188
34.3800 22.8882 1.8195
34.4000 22.9015 1.8207
34.4200 22.9148 1.8236
34.4400 22.9281 1.8230
34.4600 22.9414 1.8261
34.4800 22.9548 1.8265
34.5000 22.9683 1.8287
34.5200 22.9816 1.8279
34.5400 22.9949 1.8320
34.5600 23.0082 1.8306
34.5800 23.0216 1.8337
34.6000 23.0349 1.8334
34.6200 23.0483 1.8364
34.6400 23.0615 1.8355
34.6600 23.0748 1.8394
34.6800 23.0882 1.8383
34.7000 23.1015 1.8384
34.7200 23.1148 1.8342
34.7400 23.1281 1.8307
34.7600 23.1414 1.8337
34.7800 23.1548 1.8348
34.8000 23.1681 1.8395
34.8200 23.1814 1.8372
34.8400 23.1948 1.8407
34.8600 23.2082 1.8378
34.8800 23.2216 1.8416
34.9000 23.2349 1.8425
34.9200 23.2482 1.8463
34.9400 23.2616 1.8455
34.9600 23.2749 1.8500
34.9800 23.2882 1.8487
35.0000 23.3015 1.8527
35.0200 23.3148 1.8539
35.0400 23.3281 1.8548
35.0600 23.3415 1.8555
35.0800 23.3548 1.8577
35.1000 23.3681 1.8591
35.1200 23.3815 1.8593
35.1400 23.3948 1.8618
35.1600 23.4082 1.8623
35.1800 23.4215 1.8626
35.2000 23.4349 1.8662
35.2200 23.4482 1.8665
35.2400 23.4616 1.8670
35.2600 23.4749 1.8697
35.2800 23.4882 1.8692
35.3000 23.5015 1.8713
35.3200 23.5149 1.8725
35.3400 23.5282 1.8741
35.3600 23.5416 1.8750
35.3800 23.5549 1.8769
35.4000 23.5682 1.8769
35.4200 23.5816 1.8728
35.4400 23.5949 1.8748
35.4600 23.6082 1.8740
35.4800 23.6215 1.8771
35.5000 23.6348 1.8775
35.5200 23.6482 1.8811
35.5400 23.6615 1.8795
35.5600 23.6748 1.8851
35.5800 23.6882 1.8836
35.6000 23.7015 1.8872
35.6200 23.7149 1.8871
35.6400 23.7282 1.8904
35.6600 23.7415 1.8895
35.6800 23.7549 1.8921
35.7000 23.7683 1.8933
35.7200 23.7816 1.8937
35.7400 23.7949 1.8962
35.7600 23.8082 1.8974
35.7800 23.8216 1.8987
35.8000 23.8349 1.8995
35.8200 23.8481 1.9017
35.8400 23.8614 1.9003
35.8600 23.8748 1.9043
35.8800 23.8881 1.8999
35.9000 23.9014 1.9009
35.9200 23.9148 1.8998
35.9400 23.9282 1.9046
35.9600 23.9415 1.9032
35.9800 23.9549 1.9084
36.0000 23.9682 1.9076
36.0200 23.9815 1.9108
36.0400 23.9949 1.9110
36.0600 24.0082 1.9138
36.0800 24.0215 1.9141
36.1000 24.0349 1.9164
36.1200 24.0482 1.9171
36.1400 24.0615 1.9183
36.1600 24.0748 1.9203
36.1800 24.0881 1.9207
36.2000 24.1015 1.9224
36.2200 24.1148 1.9233
36.2400 24.1282 1.9264
36.2600 24.1415 1.9238
36.2800 24.1548 1.9294
36.3000 24.1682 1.9267
36.3200 24.1815 1.9313
36.3400 24.1949 1.9290
36.3600 24.2082 1.9303
36.3800 24.2215 1.9267
36.4000 24.2349 1.9309
36.4200 24.2483 1.9305
36.4400 24.2616 1.9333
36.4600 24.2749 1.9353
36.4800 24.2882 1.9341
36.5000 24.3015 1.9341
36.5200 24.3148 1.9348
36.5400 24.3281 1.9387
36.5600 24.3414 1.9373
36.5800 24.3548 1.9427
36.6000 24.3682 1.9407
36.6200 24.3815 1.9443
36.6400 24.3948 1.9410
36.6600 24.4082 1.9440
36.6800 24.4216 1.9428
36.7000 24.4349 1.9472
36.7200 24.4482 1.9478
36.7400 24.4615 1.9496
36.7600 24.4749 1.9525
36.7800 24.4883 1.9535
36.8000 24.5016 1.9546
36.8200 24.5148 1.9563
36.8400 24.5281 1.9585
36.8600 24.5415 1.9581
36.8800 24.5548 1.9619
36.9000 24.5681 1.9605
36.9200 24.5814 1.9642
36.9400 24.5948 1.9625
36.9600 24.6082 1.9656
36.9800 24.6215 1.9638
37.0000 24.6349 1.9687
37.0200 24.6482 1.9671
37.0400 24.6616 1.9709
37.0600 24.6749 1.9705
37.0800 24.6882 1.9742
37.1000 24.7016 1.9726
37.1200 24.7149 1.9768
37.1400 24.7283 1.9759
37.1600 24.7415 1.9784
37.1800 24.7548 1.9786
37.2000 24.7681 1.9783
37.2200 24.7815 1.9790
37.2400 24.7948 1.9789
37.2600 24.8081 1.9834
37.2800 24.8214 1.9815
37.3000 24.8348 1.9865
37.3200 24.8481 1.9850
37.3400 24.8615 1.9894
37.3600 24.8748 1.9873
37.3800 24.8882 1.9900
37.4000 24.9015 1.9843
37.4200 24.9149 1.9885
37.4400 24.9282 1.9877
37.4600 24.9415 1.9918
37.4800 24.9549 1.9933
37.5000 24.9683 1.9949
37.5200 24.9816 1.9970
37.5400 24.9949 1.9971
37.5600 25.0082 2.0008
37.5800 25.0216 1.9992
37.6000 25.0349 2.0034
37.6200 25.0482 2.0033
37.6400 25.0615 2.0057
37.6600 25.0748 2.0062
37.6800 25.0881 2.0083
37.7000 25.1014 2.0076
37.7200 25.1148 2.0093
37.7400 25.1282 2.0100
37.7600 25.1416 2.0120
37.7800 25.1549 2.0130
37.8000 25.1683 2.0155
37.8200 25.1816 2.0161
37.8400 25.1949 2.0180
37.8600 25.2083 2.0198
37.8800 25.2216 2.0168
37.9000 25.2349 2.0124
37.9200 25.2482 2.0129
37.9400 25.2615 2.0147
37.9600 25.2748 2.0172
37.9800 25.2881 2.0206
38.0000 25.3014 2.0208
38.0200 25.3148 2.0238
38.0400 25.3281 2.0217
38.0600 25.3415 2.0240
38.0800 25.3548 2.0223
38.1000 25.3682 2.0270
38.1200 25.3816 2.0266
38.1400 25.3949 2.0308
38.1600 25.4082 2.0317
38.1800 25.4216 2.0338
38.2000 25.4349 2.0358
38.2200 25.4482 2.0369
38.2400 25.4615 2.0402
38.2600 25.4748 2.0389
38.2800 25.4881 2.0442
38.3000 25.5015 2.0421
38.3200 25.5148 2.0462
38.3400 25.5281 2.0456
38.3600 25.5414 2.0489
38.3800 25.5548 2.0476
38.4000 25.5682 2.0517
38.4200 25.5815 2.0503
38.4400 25.5948 2.0532
38.4600 25.6082 2.0524
38.4800 25.6216 2.0513
38.5000 25.6349 2.0512
38.5200 25.6482 2.0533
38.5400 25.6616 2.0559
38.5600 25.6749 2.0568
38.5800 25.6883 2.0598
38.6000 25.7016 2.0603
38.6200 25.7149 2.0627
38.6400 25.7282 2.0633
38.6600 25.7415 2.0662
38.6800 25.7548 2.0638
38.7000 25.7681 2.0681
38.7200 25.7814 2.0657
38.7400 25.7948 2.0707
38.7600 25.8082 2.0691
38.7800 25.8215 2.0741
38.8000 25.8348 2.0724
38.8200 25.8482 2.0773
38.8400 25.8616 2.0757
38.8600 25.8749 2.0765
38.8800 25.8882 2.0779
38.9000 25.9015 2.0786
38.9200 25.9149 2.0814
38.9400 25.9282 2.0823
38.9600 25.9416 2.0854
38.9800 25.9548 2.0843
39.0000 25.9682 2.0891
39.0200 25.9815 2.0871
39.0400 25.9949 2.0917
39.0600 26.0082 2.0903
39.0800 26.0215 2.0955
39.1000 26.0348 2.0921
39.1200 26.0482 2.0978
39.1400 26.0615 2.0964
39.1600 26.0748 2.0992
39.1800 26.0882 2.1008
39.2000 26.1016 2.1014
39.2200 26.1149 2.1034
39.2400 26.1282 2.1016
39.2600 26.1415 2.1021
39.2800 26.1549 2.0982
39.3000 26.1682 2.1035
39.3200 26.1816 2.1022
39.3400 26.1949 2.1077
39.3600 26.2082 2.1060
39.3800 26.2215 2.1118
39.4000 26.2349 2.1094
39.4200 26.2482 2.1144
39.4400 26.2615 2.1117
39.4600 26.2748 2.1147
39.4800 26.2882 2.1155
39.5000 26.3015 2.1174
39.5200 26.3148 2.1193
39.5400 26.3282 2.1209
39.5600 26.3415 2.1231
39.5800 26.3549 2.1215
39.6000 26.3682 2.1229
39.6200 26.3815 2.1211
39.6400 26.3949 2.1235
39.6600 26.4082 2.1235
39.6800 26.4216 2.1281
39.7000 26.4349 2.1276
39.7200 26.4482 2.1324
39.7400 26.4615 2.1315
39.7600 26.4749 2.1341
39.7800 26.4881 2.1352
39.8000 26.5014 2.1376
39.8200 26.5148 2.1381
39.8400 26.5281 2.1401
39.8600 26.5415 2.1419
39.8800 26.5548 2.1427
39.9000 26.5681 2.1453
39.9200 26.5815 2.1461
39.9400 26.5949 2.1471
39.9600 26.6083 2.1473
39.9800 26.6216 2.1483
40.0000 26.6349 2.1465
40.0200 26.6483 2.1508
40.0400 26.6616 2.1500
40.0600 26.6748 2.1540
40.0800 26.6881 2.1544
40.1000 26.7015 2.1578
40.1200 26.7148 2.1575
40.1400 26.7281 2.1603
40.1600 26.7414 2.1618
40.1800 26.7548 2.1626
40.2000 26.7682 2.1649
40.2200 26.7815 2.1657
40.2400 26.7949 2.1679
40.2600 26.8082 2.1684
40.2800 26.8216 2.1719
40.3000 26.8349 2.1702
40.3200 26.8482 2.1752
40.3400 26.8615 2.1728
40.3600 26.8749 2.1759
40.3800 26.8882 2.1757
40.4000 26.9015 2.1786
40.4200 26.9148 2.1798
40.4400 26.9281 2.1817
40.4600 26.9415 2.1841
40.4800 26.9549 2.1841
40.5000 26.9682 2.1871
40.5200 26.9815 2.1877
40.5400 26.9948 2.1899
40.5600 27.0082 2.1848
40.5800 27.0215 2.1807
40.6000 27.0348 2.1777
40.6200 27.0482 2.1831
40.6400 27.0615 2.1844
40.6600 27.0749 2.1880
40.6800 27.0882 2.1898
40.7000 27.1015 2.1933
40.7200 27.1149 2.1937
40.7400 27.1283 2.1984
40.7600 27.1416 2.1988
40.7800 27.1549 2.2015
40.8000 27.1682 2.2024
40.8200 27.1815 2.2056
40.8400 27.1949 2.2031
40.8600 27.2082 2.2024
40.8800 27.2215 2.2003
40.9000 27.2348 2.2017
40.9200 27.2481 2.2047
40.9400 27.2615 2.2070
40.9600 27.2748 2.2104
40.9800 27.2882 2.2118
41.0000 27.3015 2.2156
41.0200 27.3149 2.2144
41.0400 27.3282 2.2198
41.0600 27.3415 2.2186
41.0800 27.3549 2.2238
41.1000 27.3682 2.2223
41.1200 27.3816 2.2270
41.1400 27.3949 2.2267
41.1600 27.4082 2.2293
41.1800 27.4215 2.2313
41.2000 27.4349 2.2314
41.2200 27.4482 2.2310
41.2400 27.4615 2.2294
41.2600 27.4748 2.2309
41.2800 27.4882 2.2315
41.3000 27.5015 2.2362
41.3200 27.5148 2.2348
41.3400 27.5282 2.2410
41.3600 27.5415 2.2392
41.3800 27.5549 2.2438
41.4000 27.5682 2.2433
41.4200 27.5815 2.2480
41.4400 27.5949 2.2473
41.4600 27.6082 2.2506
41.4800 27.6216 2.2507
41.5000 27.6349 2.2533
41.5200 27.6482 2.2538
41.5400 27.6615 2.2564
41.5600 27.6749 2.2561
41.5800 27.6882 2.2589
41.6000 27.7015 2.2601
41.6200 27.7148 2.2618
41.6400 27.7281 2.2637
41.6600 27.7414 2.2648
41.6800 27.7548 2.2677
41.7000 27.7681 2.2674
41.7200 27.7815 2.2710
41.7400 27.7949 2.2701
41.7600 27.8083 2.2728
41.7800 27.8216 2.2681
41.8000 27.8349 2.2693
41.8200 27.8482 2.2669
41.8400 27.8616 2.2738
41.8600 27.8749 2.2723
41.8800 27.8882 2.2776
41.9000 27.9015 2.2733
41.9200 27.9149 2.2756
41.9400 27.9282 2.2745
41.9600 27.9415 2.2791
41.9800 27.9548 2.2812
42.0000 27.9681 2.2829
42.0200 27.9815 2.2862
42.0400 27.9948 2.2875
42.0600 28.0081 2.2901
42.0800 28.0215 2.2921
42.1000 28.0349 2.2944
42.1200 28.0483 2.2954
42.1400 28.0616 2.2988
42.1600 28.0749 2.2992
42.1800 28.0882 2.3018
42.2000 28.1016 2.3009
42.2200 28.1149 2.3014
42.2400 28.1281 2.3002
42.2600 28.1415 2.3032
42.2800 28.1548 2.3049
42.3000 28.1682 2.3069
42.3200 28.1815 2.3093
42.3400 28.1948 2.3117
42.3600 28.2081 2.3124
42.3800 28.2215 2.3155
42.4000 28.2349 2.3169
42.4200 28.2482 2.3187
42.4400 28.2616 2.3206
42.4600 28.2749 2.3221
42.4800 28.2882 2.3225
42.5000 28.3015 2.3245
42.5200 28.3148 2.3267
42.5400 28.3282 2.3272
42.5600 28.3416 2.3300
42.5800 28.3549 2.3307
42.6000 28.3682 2.3333
42.6200 28.3815 2.3345
42.6400 28.3949 2.3364
42.6600 28.4082 2.3371
42.6800 28.4215 2.3399
42.7000 28.4348 2.3393
42.7200 28.4481 2.3371
42.7400 28.4615 2.3370
42.7600 28.4748 2.3370
42.7800 28.4881 2.3403
42.8000 28.5015 2.3414
42.8200 28.5149 2.3468
42.8400 28.5282 2.3446
42.8600 28.5415 2.3514
42.8800 28.5549 2.3496
42.9000 28.5682 2.3550
42.9200 28.5816 2.3537
42.9400 28.5949 2.3584
42.9600 28.6082 2.3569
42.9800 28.6215 2.3600
43.0000 28.6349 2.3602
43.0200 28.6482 2.3619
43.0400 28.6615 2.3644
43.0600 28.6748 2.3653
43.0800 28.6881 2.3670
43.1000 28.7015 2.3678
43.1200 28.7148 2.3707
43.1400 28.7281 2.3706
43.1600 28.7415 2.3749
43.1800 28.7549 2.3747
43.2000 28.7682 2.3777
43.2200 28.7815 2.3787
43.2400 28.7949 2.3819
43.2600 28.8082 2.3818
43.2800 28.8216 2.3851
43.3000 28.8349 2.3858
43.3200 28.8482 2.3881
43.3400 28.8615 2.3870
43.3600 28.8748 2.3872
43.3800 28.8882 2.3862
43.4000 28.9015 2.3902
43.4200 28.9148 2.3909
43.4400 28.9281 2.3937
43.4600 28.9415 2.3958
43.4800 28.9548 2.3977
43.5000 28.9681 2.3995
43.5200 28.9815 2.4008
43.5400 28.9949 2.4053
43.5600 29.0082 2.4034
43.5800 29.0215 2.4087
43.6000 29.0349 2.4080
43.6200 29.0482 2.4106
43.6400 29.0616 2.4048
43.6600 29.0749 2.4042
43.6800 29.0882 2.4016
43.7000 29.1015 2.4073
43.7200 29.1149 2.4085
43.7400 29.1282 2.4123
43.7600 29.1415 2.4152
43.7800 29.1548 2.4170
43.8000 29.1681 2.4209
43.8200 29.1815 2.4209
43.8400 29.1948 2.4258
43.8600 29.2082 2.4242
43.8800 29.2215 2.4302
43.9000 29.2349 2.4280
43.9200 29.2483 2.4308
43.9400 29.2616 2.4272
43.9600 29.2749 2.4321
43.9800 29.2882 2.4311
44.0000 29.3016 2.4361
44.0200 29.3149 2.4368
44.0400 29.3282 2.4404
44.0600 29.3415 2.4416
44.0800 29.3548 2.4442
44.1000 29.3681 2.4456
44.1200 29.3814 2.4472
44.1400 29.3948 2.4511
44.1600 29.4081 2.4506
44.1800 29.4215 2.4549
44.2000 29.4348 2.4546
44.2200 29.4482 2.4580
44.2400 29.4615 2.4570
44.2600 29.4749 2.4587
44.2800 29.4882 2.4561
44.3000 29.5016 2.4610
44.3200 29.5149 2.4599
44.3400 29.5282 2.4650
44.3600 29.5416 2.4640
44.3800 29.5549 2.4698
44.4000 29.5682 2.4682
44.4200 29.5815 2.4726
44.4400 29.5948 2.4736
44.4600 29.6082 2.4760
44.4800 29.6215 2.4772
44.5000 29.6348 2.4788
44.5200 29.6481 2.4811
44.5400 29.6615 2.4817
44.5600 29.6748 2.4859
44.5800 29.6881 2.4843
44.6000 29.7015 2.4900
44.6200 29.7149 2.4887
44.6400 29.7282 2.4935
44.6600 29.7416 2.4922
44.6800 29.7549 2.4969
44.7000 29.7682 2.4951
44.7200 29.7816 2.4955
44.7400 29.7949 2.4942
44.7600 29.8082 2.4938
44.7800 29.8215 2.4973
44.8000 29.8349 2.4979
44.8200 29.8483 2.5024
44.8400 29.8615 2.5027
44.8600 29.8748 2.5075
44.8800 29.8881 2.5068
44.9000 29.9015 2.5120
44.9200 29.9148 2.5115
44.9400 29.9281 2.5151
44.9600 29.9414 2.5147
44.9800 29.9548 2.5191
45.0000 29.9683 2.5184
45.0200 29.9816 2.5224
45.0400 29.9949 2.5225
45.0480 30.0001 2.5200
45.0490 30.0008 2.5198
45.0500 30.0014 2.5195
45.0700 30.0119 2.5066
45.0900 30.0141 2.4894
45.1100 30.0058 2.4920
45.1300 29.9931 2.4827
45.1500 29.9802 2.4681
45.1700 29.9673 2.4516
45.1900 29.9539 2.4383
45.2100 29.9398 2.4235
45.2300 29.9258 2.4136
45.2500 29.9119 2.3989
45.2700 29.8984 2.3895
45.2900 29.8851 2.3749
45.3100 29.8718 2.3659
45.3300 29.8585 2.3538
45.3500 29.8451 2.3454
45.3700 29.8318 2.3344
45.3900 29.8185 2.3258
45.4100 29.8051 2.3155
45.4300 29.7918 2.3055
45.4500 29.7784 2.2987
45.4700 29.7651 2.2877
45.4900 29.7517 2.2807
45.5100 29.7384 2.2700
45.5300 29.7250 2.2643
45.5500 29.7117 2.2546
45.5700 29.6984 2.2476
45.5900 29.6850 2.2403
45.6100 29.6716 2.2313
45.6300 29.6583 2.2256
45.6500 29.6450 2.2163
45.6700 29.6317 2.2111
45.6900 29.6184 2.2023
45.7100 29.6050 2.1974
45.7300 29.5917 2.1883
45.7500 29.5784 2.1844
45.7700 29.5651 2.1761
45.7900 29.5517 2.1703
45.8100 29.5384 2.1629
45.8300 29.5251 2.1586
45.8500 29.5117 2.1504
45.8700 29.4984 2.1457
45.8900 29.4850 2.1401
45.9100 29.4717 2.1330
45.9300 29.4584 2.1279
45.9500 29.4450 2.1226
45.9700 29.4317 2.1164
45.9900 29.4183 2.1114
46.0100 29.4050 2.1056
46.0300 29.3917 2.1004
46.0500 29.3784 2.0955
46.0700 29.3651 2.0901
46.0900 29.3517 2.0853
46.1100 29.3384 2.0792
46.1300 29.3251 2.0766
46.1500 29.3117 2.0682
46.1700 29.2984 2.0668
46.1900 29.2851 2.0590
46.2100 29.2718 2.0566
46.2300 29.2584 2.0492
46.2500 29.2450 2.0485
46.2700 29.2316 2.0395
46.2900 29.2183 2.0384
46.3100 29.2050 2.0316
46.3300 29.1916 2.0284
46.3500 29.1783 2.0231
46.3700 29.1650 2.0201
46.3900 29.1517 2.0155
46.4100 29.1383 2.0100
46.4300 29.1250 2.0085
46.4500 29.1117 2.0011
46.4700 29.0985 2.0003
46.4900 29.0852 1.9935
46.5100 29.0718 1.9915
46.5300 29.0584 1.9851
46.5500 29.0450 1.9843
46.5700 29.0316 1.9774
46.5900 29.0183 1.9761
46.6100 29.0049 1.9710
46.6300 28.9916 1.9672
46.6500 28.9783 1.9632
46.6700 28.9650 1.9604
46.6900 28.9516 1.9567
46.7100 28.9383 1.9520
46.7300 28.9250 1.9498
46.7500 28.9117 1.9444
46.7700 28.8984 1.9427
46.7900 28.8850 1.9378
46.8100 28.8717 1.9358
46.8300 28.8584 1.9293
46.8500 28.8451 1.9288
46.8700 28.8317 1.9230
46.8900 28.8184 1.9220
46.9100 28.8051 1.9163
46.9300 28.7917 1.9151
46.9500 28.7783 1.9088
46.9700 28.7649 1.9089
46.9900 28.7516 1.9027
47.0100 28.7383 1.9018
47.0300 28.7250 1.8974
47.0500 28.7116 1.8941
47.0700 28.6983 1.8917
47.0900 28.6850 1.8880
47.1100 28.6717 1.8860
47.1300 28.6584 1.8800
47.1500 28.6451 1.8814
47.1700 28.6317 1.8730
47.1900 28.6184 1.8752
47.2100 28.6051 1.8670
47.2300 28.5917 1.8688
47.2500 28.5784 1.8620
47.2700 28.5650 1.8618
47.2900 28.5517 1.8567
47.3100 28.5384 1.8550
47.3300 28.5250 1.8514
47.3500 28.5117 1.8495
47.3700 28.4983 1.8452
47.3900 28.4850 1.8428
47.4100 28.4716 1.8417
47.4300 28.4583 1.8349
47.4500 28.4450 1.8377
47.4700 28.4317 1.8290
47.4900 28.4183 1.8302
47.5100 28.4050 1.8266
47.5300 28.3917 1.8243
47.5500 28.3784 1.8201
47.5700 28.3651 1.8191
47.5900 28.3517 1.8139
47.6100 28.3384 1.8140
47.6300 28.3250 1.8097
47.6500 28.3117 1.8082
47.6700 28.2984 1.8045
47.6900 28.2850 1.8018
47.7100 28.2716 1.8003
47.7300 28.2583 1.7966
47.7500 28.2450 1.7949
47.7700 28.2317 1.7913
47.7900 28.2183 1.7889
47.8100 28.2050 1.7865
47.8300 28.1917 1.7850
47.8500 28.1783 1.7809
47.8700 28.1650 1.7805
47.8900 28.1517 1.7766
47.9100 28.1384 1.7742
47.9300 28.1251 1.7715
47.9500 28.1117 1.7715
47.9700 28.0983 1.7650
47.9900 28.0850 1.7666
48.0100 28.0717 1.7612
48.0300 28.0584 1.7594
48.0500 28.0450 1.7589
48.0700 28.0317 1.7547
48.0900 28.0183 1.7534
48.1100 28.0050 1.7500
48.1300 27.9916 1.7489
48.1500 27.9783 1.7447
48.1700 27.9650 1.7457
48.1900 27.9517 1.7395
48.2100 27.9384 1.7409
48.2300 27.9250 1.7350
48.2500 27.9117 1.7373
48.2700 27.8984 1.7303
48.2900 27.8851 1.7309
48.3100 27.8717 1.7282
48.3300 27.8583 1.7248
48.3500 27.8450 1.7242
48.3700 27.8317 1.7211
48.3900 27.8184 1.7194
48.4100 27.8050 1.7158
48.4300 27.7916 1.7169
48.4500 27.7783 1.7108
48.4700 27.7650 1.7124
48.4900 27.7517 1.7068
48.5100 27.7383 1.7063
48.5300 27.7250 1.7043
48.5500 27.7117 1.7028
48.5700 27.6984 1.6986
48.5900 27.6850 1.6995
48.6100 27.6717 1.6950
48.6300 27.6584 1.6942
48.6500 27.6451 1.6913
48.6700 27.6318 1.6903
48.6900 27.6184 1.6863
48.7100 27.6050 1.6864
48.7300 27.5917 1.6826
48.7500 27.5784 1.6816
48.7700 27.5650 1.6795
48.7900 27.5516 1.6785
48.8100 27.5383 1.6743
48.8300 27.5250 1.6741
48.8500 27.5117 1.6721
48.8700 27.4983 1.6679
48.8900 27.4850 1.6694
48.9100 27.4717 1.6643
48.9300 27.4584 1.6654
48.9500 27.4450 1.6601
48.9700 27.4317 1.6620
48.9900 27.4184 1.6562
49.0100 27.4051 1.6575
49.0300 27.3917 1.6539
49.0500 27.3784 1.6515
49.0700 27.3650 1.6513
49.0900 27.3517 1.6478
49.1100 27.3384 1.6467
49.1300 27.3250 1.6436
49.1500 27.3116 1.6451
49.1700 27.2983 1.6383
49.1900 27.2850 1.6402
49.2100 27.2717 1.6359
49.2300 27.2583 1.6363
49.2500 27.2450 1.6329
49.2700 27.2317 1.6332
49.2900 27.2184 1.6282
49.3100 27.2050 1.6293
49.3300 27.1917 1.6265
49.3500 27.1784 1.6239
49.3700 27.1651 1.6236
49.3900 27.1517 1.6203
49.4100 27.1383 1.6193
49.4300 27.1250 1.6168
49.4500 27.1117 1.6162
49.4700 27.0984 1.6127
49.4900 27.0850 1.6134
49.5100 27.0717 1.6090
49.5300 27.0583 1.6096
49.5500 27.0450 1.6058
49.5700 27.0317 1.6068
49.5900 27.0183 1.6010
49.6100 27.0050 1.6039
49.6300 26.9917 1.5988
49.6500 26.9784 1.5991
49.6700 26.9650 1.5957
49.6900 26.9517 1.5958
49.7100 26.9384 1.5922
49.7300 26.9251 1.5918
49.7500 26.9117 1.5894
49.7700 26.8984 1.5882
49.7900 26.8850 1.5865
49.8100 26.8717 1.5847
49.8300 26.8584 1.5831
49.8500 26.8450 1.5801
49.8700 26.8317 1.5821
49.8900 26.8183 1.5754
49.9100 26.8050 1.5786
49.9300 26.7917 1.5728
49.9500 26.7783 1.5750
49.9700 26.7649 1.5700
49.9900 26.7516 1.5711
50.0100 26.7383 1.5672
50.0300 26.7250 1.5669
50.0500 26.7117 1.5657
50.0700 26.6984 1.5634
50.0900 26.6851 1.5628
50.1100 26.6717 1.5604
50.1300 26.6584 1.5587
50.1500 26.6450 1.5566
50.1700 26.6317 1.5573
50.1900 26.6184 1.5526
50.2100 26.6051 1.5541
50.2300 26.5917 1.5502
50.2500 26.5783 1.5500
50.2700 26.5650 1.5472
50.2900 26.5516 1.5475
50.3100 26.5383 1.5444
50.3300 26.5249 1.5430
50.3500 26.5117 1.5421
50.3700 26.4984 1.5399
50.3900 26.4850 1.5385
50.4100 26.4717 1.5383
50.4300 26.4584 1.5347
50.4500 26.4451 1.5343
50.4700 26.4318 1.5329
50.4900 26.4184 1.5307
50.5100 26.4050 1.5305
50.5300 26.3917 1.5270
50.5500 26.3784 1.5276
50.5700 26.3650 1.5239
50.5900 26.3517 1.5255
50.6100 26.3383 1.5202
50.6300 26.3250 1.5218
50.6500 26.3117 1.5180
50.6700 26.2983 1.5188
50.6900 26.2850 1.5146
50.7100 26.2717 1.5170
50.7300 26.2583 1.5111
50.7500 26.2450 1.5123
50.7700 26.2317 1.5104
50.7900 26.2184 1.5092
50.8100 26.2051 1.5073
50.8300 26.1917 1.5058
50.8500 26.1784 1.5051
50.8700 26.1650 1.5021
50.8900 26.1517 1.5031
50.9100 26.1384 1.4981
50.9300 26.1250 1.5002
50.9500 26.1116 1.4965
50.9700 26.0983 1.4974
50.9900 26.0850 1.4926
51.0100 26.0717 1.4950
51.0300 26.0583 1.4896
51.0500 26.0450 1.4909
51.0700 26.0316 1.4891
51.0900 26.0183 1.4871
51.1100 26.0050 1.4857
51.1300 25.9917 1.4848
51.1500 25.9783 1.4835
51.1700 25.9650 1.4805
51.1900 25.9517 1.4817
51.2100 25.9384 1.4778
51.2300 25.9250 1.4791
51.2500 25.9117 1.4752
51.2700 25.8984 1.4755
51.2900 25.8851 1.4716
51.3100 25.8717 1.4742
51.3300 25.8583 1.4689
51.3500 25.8450 1.4705
51.3700 25.8317 1.4666
51.3900 25.8183 1.4675
51.4100 25.8050 1.4635
51.4300 25.7916 1.4659
51.4500 25.7784 1.4610
51.4700 25.7650 1.4614
51.4900 25.7517 1.4596
51.5100 25.7383 1.4582
51.5300 25.7251 1.4575
51.5500 25.7118 1.4552
51.5700 25.6984 1.4556
51.5900 25.6851 1.4504
51.6100 25.6717 1.4543
51.6300 25.6584 1.4482
51.6500 25.6450 1.4508
51.6700 25.6317 1.4461
51.6900 25.6183 1.4477
51.7100 25.6050 1.4434
51.7300 25.5917 1.4453
51.7500 25.5783 1.4409
51.7700 25.5649 1.4419
51.7900 25.5516 1.4390
51.8100 25.5383 1.4381
51.8300 25.5250 1.4375
51.8500 25.5116 1.4350
51.8700 25.4983 1.4360
51.8900 25.4851 1.4314
51.9100 25.4718 1.4329
51.9300 25.4584 1.4293
51.9500 25.4451 1.4304
51.9700 25.4317 1.4275
51.9900 25.4184 1.4278
52.0100 25.4051 1.4231
52.0300 25.3917 1.4255
52.0500 25.3783 1.4218
52.0700 25.3650 1.4221
52.0900 25.3517 1.4192
52.1100 25.3383 1.4192
52.1300 25.3249 1.4177
52.1500 25.3116 1.4160
52.1700 25.2983 1.4161
52.1900 25.2850 1.4120
52.2100 25.2717 1.4148
52.2300 25.2583 1.4097
52.2500 25.2451 1.4111
52.2700 25.2318 1.4073
52.2900 25.2184 1.4089
52.3100 25.2050 1.4044
52.3300 25.1917 1.4076
52.3500 25.1784 1.4015
52.3700 25.1650 1.4038
52.3900 25.1516 1.3997
52.4100 25.1383 1.4017
52.4300 25.1249 1.3978
52.4500 25.1116 1.3983
52.4700 25.0983 1.3963
52.4900 25.0850 1.3943
52.5100 25.0716 1.3950
52.5300 25.0583 1.3925
52.5500 25.0450 1.3923
52.5700 25.0317 1.3900
52.5900 25.0184 1.3900
52.6100 25.0051 1.3865
52.6300 24.9918 1.3888
52.6500 24.9784 1.3837
52.6700 24.9650 1.3858
52.6900 24.9517 1.3823
52.7100 24.9383 1.3832
52.7300 24.9250 1.3796
52.7500 24.9116 1.3804
52.7700 24.8983 1.3795
52.7900 24.8850 1.3758
52.8100 24.8717 1.3774
52.8300 24.8583 1.3738
52.8500 24.8450 1.3752
52.8700 24.8316 1.3714
52.8900 24.8183 1.3733
52.9100 24.8050 1.3675
52.9300 24.7917 1.3714
52.9500 24.7784 1.3667
52.9700 24.7651 1.3677
52.9900 24.7518 1.3642
53.0100 24.7384 1.3655
53.0300 24.7250 1.3621
53.0500 24.7117 1.3630
53.0700 24.6984 1.3610
53.0900 24.6850 1.3587
53.1100 24.6717 1.3595
53.1300 24.6583 1.3563
53.1500 24.6450 1.3572
53.1700 24.6317 1.3538
53.1900 24.6183 1.3562
53.2100 24.6050 1.3501
53.2300 24.5916 1.3547
53.2500 24.5783 1.3490
53.2700 24.5650 1.3507
53.2900 24.5517 1.3465
53.3100 24.5383 1.3492
53.3300 24.5250 1.3442
53.3500 24.5117 1.3463
53.3700 24.4984 1.3427
53.3900 24.4850 1.3427
53.4100 24.4717 1.3414
53.4300 24.4584 1.3410
53.4500 24.4451 1.3390
53.4700 24.4317 1.3378
53.4900 24.4183 1.3378
53.5100 24.4050 1.3341
53.5300 24.3917 1.3359
53.5500 24.3783 1.3337
53.5700 24.3649 1.3333
53.5900 24.3516 1.3300
53.6100 24.3383 1.3318
53.6300 24.3250 1.3280
53.6500 24.3117 1.3297
53.6700 24.2983 1.3268
53.6900 24.2850 1.3260
53.7100 24.2718 1.3242
53.7300 24.2584 1.3246
53.7500 24.2450 1.3223
53.7700 24.2317 1.3215
53.7900 24.2184 1.3213
53.8100 24.2050 1.3178
53.8300 24.1917 1.3194
53.8500 24.1783 1.3170
53.8700 24.1650 1.3171
53.8900 24.1517 1.3139
53.9100 24.1383 1.3154
53.9300 24.1250 1.3105
53.9500 24.1116 1.3143
53.9700 24.0983 1.3096
53.9900 24.0850 1.3108
54.0100 24.0717 1.3076
54.0300 24.0583 1.3103
54.0500 24.0450 1.3051
54.0700 24.0318 1.3068
54.0900 24.0184 1.3047
54.1100 24.0051 1.3034
54.1300 23.9917 1.3024
54.1500 23.9784 1.3013
54.1700 23.9650 1.3009
54.1900 23.9517 1.2986
54.2100 23.9383 1.2996
54.2300 23.9250 1.2958
54.2500 23.9116 1.2974
54.2700 23.8983 1.2938
54.2900 23.8850 1.2955
54.3100 23.8716 1.2922
54.3300 23.8584 1.2933
54.3500 23.8451 1.2888
54.3700 23.8317 1.2918
54.3900 23.8184 1.2886
54.4100 23.8051 1.2884
54.4300 23.7918 1.2851
54.4500 23.7784 1.2879
54.4700 23.7651 1.2833
54.4900 23.7517 1.2849
54.5100 23.7384 1.2825
54.5300 23.7250 1.2824
54.5500 23.7117 1.2795
54.5700 23.6983 1.2805
54.5900 23.6850 1.2781
54.6100 23.6717 1.2779
54.6300 23.6584 1.2769
54.6500 23.6450 1.2747
54.6700 23.6316 1.2757
54.6900 23.6183 1.2725
54.7100 23.6050 1.2736
54.7300 23.5917 1.2694
54.7500 23.5783 1.2732
54.7700 23.5650 1.2677
54.7900 23.5517 1.2688
54.8100 23.5384 1.2681
54.8300 23.5250 1.2658
54.8500 23.5117 1.2653
54.8700 23.4984 1.2649
54.8900 23.4850 1.2633
54.9100 23.4717 1.2629
54.9300 23.4583 1.2620
54.9500 23.4450 1.2594
54.9700 23.4317 1.2615
54.9900 23.4183 1.2574
55.0100 23.4050 1.2591
55.0300 23.3916 1.2548
55.0500 23.3783 1.2567
55.0700 23.3650 1.2543
55.0900 23.3517 1.2536
55.1100 23.3383 1.2537
55.1300 23.3250 1.2521
55.1500 23.3117 1.2491
55.1700 23.2984 1.2517
55.1900 23.2850 1.2484
55.2100 23.2717 1.2477
55.2300 23.2584 1.2473
55.2500 23.2451 1.2450
55.2700 23.2317 1.2457
55.2900 23.2183 1.2438
55.3100 23.2050 1.2443
55.3300 23.1917 1.2400
55.3500 23.1784 1.2434
55.3700 23.1650 1.2382
55.3900 23.1516 1.2413
55.4100 23.1383 1.2371
55.4300 23.1250 1.2385
55.4500 23.1117 1.2341
55.4700 23.0983 1.2386
55.4900 23.0850 1.2318
55.5100 23.0717 1.2356
55.5300 23.0584 1.2310
55.5500 23.0451 1.2316
55.5700 23.0317 1.2307
55.5900 23.0184 1.2298
55.6100 23.0050 1.2294
55.6300 22.9917 1.2261
55.6500 22.9783 1.2283
55.6700 22.9650 1.2249
55.6900 22.9517 1.2256
55.7100 22.9384 1.2225
55.7300 22.9250 1.2254
55.7500 22.9116 1.2188
55.7700 22.8983 1.2241
55.7900 22.8850 1.2185
55.8100 22.8717 1.2205
55.8300 22.8584 1.2182
55.8500 22.8451 1.2168
55.8700 22.8318 1.2157
55.8900 22.8184 1.2158
55.9100 22.8051 1.2151
55.9300 22.7917 1.2129
55.9500 22.7784 1.2147
55.9700 22.7650 1.2095
55.9900 22.7517 1.2123
56.0100 22.7383 1.2090
56.0300 22.7249 1.2104
56.0500 22.7116 1.2058
56.0700 22.6983 1.2086
56.0900 22.6850 1.2050
56.1100 22.6716 1.2060
56.1300 22.6583 1.2044
56.1500 22.6450 1.2037
56.1700 22.6317 1.2014
56.1900 22.6183 1.2028
56.2100 22.6050 1.2005
56.2300 22.5917 1.1997
56.2500 22.5784 1.1994
56.2700 22.5650 1.1970
56.2900 22.5517 1.1978
56.3100 22.5384 1.1953
56.3300 22.5250 1.1969
56.3500 22.5117 1.1917
56.3700 22.4983 1.1956
56.3900 22.4850 1.1900
56.4100 22.4717 1.1934
56.4300 22.4583 1.1879
56.4500 22.4450 1.1921
56.4700 22.4316 1.1867
56.4900 22.4183 1.1895
56.5100 22.4050 1.1857
56.5300 22.3917 1.1858
56.5500 22.3784 1.1858
56.5700 22.3650 1.1836
56.5900 22.3517 1.1850
56.6100 22.3384 1.1805
56.6300 22.3250 1.1843
56.6500 22.3117 1.1775
56.6700 22.2983 1.1831
56.6900 22.2850 1.1767
56.7100 22.2717 1.1792
56.7300 22.2584 1.1758
56.7500 22.2450 1.1771
56.7700 22.2317 1.1747
56.7900 22.2184 1.1752
56.8100 22.2051 1.1729
56.8300 22.1917 1.1725
56.8500 22.1783 1.1724
56.8700 22.1650 1.1702
56.8900 22.1517 1.1708
56.9100 22.1383 1.1685
56.9300 22.1250 1.1700
56.9500 22.1117 1.1656
56.9700 22.0984 1.1683
56.9900 22.0851 1.1647
57.0100 22.0717 1.1651
57.0300 22.0584 1.1637
57.0500 22.0450 1.1643
57.0700 22.0317 1.1603
57.0900 22.0183 1.1628
57.1100 22.0050 1.1595
57.1300 21.9917 1.1600
57.1500 21.9783 1.1588
57.1700 21.9650 1.1580
57.1900 21.9516 1.1569
57.2100 21.9383 1.1565
57.2300 21.9250 1.1562
57.2500 21.9117 1.1538
57.2700 21.8983 1.1546
57.2900 21.8850 1.1523
57.3100 21.8717 1.1525
57.3300 21.8584 1.1505
57.3500 21.8451 1.1520
57.3700 21.8317 1.1474
57.3900 21.8184 1.1510
57.4100 21.8051 1.1455
57.4300 21.7917 1.1482
57.4500 21.7783 1.1441
57.4700 21.7650 1.1474
57.4900 21.7516 1.1423
57.5100 21.7383 1.1447
57.5300 21.7250 1.1424
57.5500 21.7116 1.1409
57.5700 21.6983 1.1423
57.5900 21.6850 1.1393
57.6100 21.6717 1.1402
57.6300 21.6583 1.1372
57.6500 21.6450 1.1401
57.6700 21.6317 1.1343
57.6900 21.6184 1.1384
57.7100 21.6051 1.1331
57.7300 21.5917 1.1359
57.7500 21.5784 1.1317
57.7700 21.5650 1.1348
57.7900 21.5517 1.1298
57.8100 21.5384 1.1321
57.8300 21.5250 1.1301
57.8500 21.5117 1.1288
57.8700 21.4983 1.1282
57.8900 21.4850 1.1281
57.9100 21.4716 1.1262
57.9300 21.4583 1.1261
57.9500 21.4450 1.1254
57.9700 21.4317 1.1241
57.9900 21.4183 1.1234
58.0100 21.4050 1.1232
58.0300 21.3917 1.1213
58.0500 21.3784 1.1209
58.0700 21.3651 1.1211
58.0900 21.3517 1.1185
58.1100 21.3384 1.1194
58.1300 21.3251 1.1161
58.1500 21.3117 1.1178
58.1700 21.2984 1.1144
58.1900 21.2850 1.1169
58.2100 21.2717 1.1129
58.2300 21.2584 1.1149
58.2500 21.2451 1.1112
58.2700 21.2317 1.1129
58.2900 21.2183 1.1105
58.3100 21.2050 1.1108
58.3300 21.1917 1.1089
58.3500 21.1783 1.1085
58.3700 21.1650 1.1092
58.3900 21.1517 1.1061
58.4100 21.1384 1.1075
58.4300 21.1251 1.1042
58.4500 21.1117 1.1059
58.4700 21.0984 1.1024
58.4900 21.0851 1.1045
58.5100 21.0717 1.1009
58.5300 21.0584 1.1018
58.5500 21.0450 1.1006
58.5700 21.0317 1.0997
58.5900 21.0183 1.0986
58.6100 21.0050 1.0988
58.6300 20.9916 1.0967
58.6500 20.9783 1.0968
58.6700 20.9650 1.0961
58.6900 20.9517 1.0949
58.7100 20.9383 1.0944
58.7300 20.9250 1.0938
58.7500 20.9117 1.0928
58.7700 20.8984 1.0916
58.7900 20.8851 1.0919
58.8100 20.8717 1.0893
58.8300 20.8584 1.0907
58.8500 20.8450 1.0880
58.8700 20.8317 1.0885
58.8900 20.8184 1.0857
58.9100 20.8050 1.0885
58.9300 20.7917 1.0833
58.9500 20.7784 1.0863
58.9700 20.7650 1.0825
58.9900 20.7516 1.0849
59.0100 20.7383 1.0809
59.0300 20.7250 1.0826
59.0500 20.7117 1.0793
59.0700 20.6983 1.0804
59.0900 20.6850 1.0796
59.1100 20.6717 1.0776
59.1300 20.6584 1.0783
59.1500 20.6451 1.0762
59.1700 20.6317 1.0767
59.1900 20.6183 1.0743
59.2100 20.6050 1.0763
59.2300 20.5917 1.0721
59.2500 20.5784 1.0741
59.2700 20.5650 1.0707
59.2900 20.5516 1.0728
59.3100 20.5383 1.0696
59.3300 20.5250 1.0705
59.3500 20.5116 1.0683
59.3700 20.4983 1.0686
59.3900 20.4850 1.0679
59.4100 20.4717 1.0664
59.4300 20.4584 1.0661
59.4500 20.4450 1.0655
59.4700 20.4317 1.0639
59.4900 20.4184 1.0630
59.5100 20.4051 1.0636
59.5300 20.3917 1.0616
59.5500 20.3784 1.0616
59.5700 20.3650 1.0599
59.5900 20.3517 1.0604
59.6100 20.3383 1.0577
59.6300 20.3250 1.0596
59.6500 20.3116 1.0563
59.6700 20.2983 1.0570
59.6900 20.2850 1.0550
59.7100 20.2716 1.0555
59.7300 20.2583 1.0535
59.7500 20.2450 1.0544
59.7700 20.2317 1.0517
59.7900 20.2184 1.0522
59.8100 20.2050 1.0514
59.8300 20.1917 1.0509
59.8500 20.1784 1.0501
59.8700 20.1651 1.0479
59.8900 20.1517 1.0497
59.9100 20.1383 1.0453
59.9300 20.1250 1.0498
59.9500 20.1117 1.0427
59.9700 20.0983 1.0472
59.9900 20.0850 1.0422
60.0100 20.0716 1.0457
60.0300 20.0583 1.0405
60.0500 20.0450 1.0437
60.0700 20.0316 1.0398
60.0900 20.0183 1.0405
60.1100 20.0050 1.0409
60.1300 19.9917 1.0383
60.1500 19.9784 1.0383
60.1700 19.9650 1.0367
60.1900 19.9517 1.0385
60.2100 19.9384 1.0339
60.2300 19.9251 1.0381
60.2500 19.9117 1.0323
60.2700 19.8983 1.0354
60.2900 19.8850 1.0315
60.3100 19.8717 1.0341
60.3300 19.8584 1.0297
60.3500 19.8450 1.0327
60.3700 19.8316 1.0287
60.3900 19.8183 1.0306
60.4100 19.8050 1.0279
60.4300 19.7916 1.0293
60.4500 19.7783 1.0256
60.4700 19.7650 1.0273
60.4900 19.7517 1.0256
60.5100 19.7383 1.0241
60.5300 19.7250 1.0257
60.5500 19.7117 1.0222
60.5700 19.6984 1.0237
60.5900 19.6851 1.0213
60.6100 19.6717 1.0234
60.6300 19.6584 1.0185
60.6500 19.6451 1.0222
60.6700 19.6318 1.0169
60.6900 19.6184 1.0199
60.7100 19.6050 1.0162
60.7300 19.5917 1.0187
60.7500 19.5784 1.0145
60.7700 19.5650 1.0160
60.7900 19.5516 1.0145
60.8100 19.5383 1.0137
60.8300 19.5250 1.0145
60.8500 19.5117 1.0117
60.8700 19.4984 1.0126
60.8900 19.4850 1.0101
60.9100 19.4717 1.0126
60.9300 19.4584 1.0070
60.9500 19.4451 1.0112
60.9700 19.4317 1.0059
60.9900 19.4184 1.0089
61.0100 19.4050 1.0051
61.0300 19.3917 1.0075
61.0500 19.3784 1.0037
61.0700 19.3650 1.0052
61.0900 19.3516 1.0025
61.1100 19.3383 1.0034
61.1300 19.3250 1.0015
61.1500 19.3117 1.0023
61.1700 19.2983 1.0003
61.1900 19.2850 1.0004
61.2100 19.2717 0.9995
61.2300 19.2584 0.9984
61.2500 19.2450 0.9993
61.2700 19.2317 0.9972
61.2900 19.2184 0.9970
61.3100 19.2051 0.9960
61.3300 19.1917 0.9959
61.3500 19.1784 0.9937
61.3700 19.1651 0.9944
61.3900 19.1517 0.9920
61.4100 19.1384 0.9932
61.4300 19.1250 0.9901
61.4500 19.1116 0.9933
61.4700 19.0983 0.9869
61.4900 19.0850 0.9914
61.5100 19.0716 0.9874
61.5300 19.0583 0.9889
61.5500 19.0450 0.9871
61.5700 19.0317 0.9862
61.5900 19.0184 0.9856
61.6100 19.0051 0.9848
61.6300 18.9917 0.9852
61.6500 18.9784 0.9823
61.6700 18.9651 0.9842
61.6900 18.9517 0.9801
61.7100 18.9384 0.9829
61.7300 18.9250 0.9789
61.7500 18.9117 0.9822
61.7700 18.8984 0.9765
61.7900 18.8850 0.9807
61.8100 18.8717 0.9759
61.8300 18.8583 0.9779
61.8500 18.8450 0.9755
61.8700 18.8316 0.9766
61.8900 18.8183 0.9740
61.9100 18.8050 0.9746
61.9300 18.7917 0.9736
61.9500 18.7784 0.9723
61.9700 18.7650 0.9720
61.9900 18.7517 0.9720
62.0100 18.7384 0.9705
62.0300 18.7251 0.9697
62.0500 18.7117 0.9699
62.0700 18.6983 0.9676
62.0900 18.6850 0.9688
62.1100 18.6717 0.9667
62.1300 18.6584 0.9665
62.1500 18.6450 0.9649
62.1700 18.6316 0.9667
62.1900 18.6183 0.9628
62.2100 18.6050 0.9644
62.2300 18.5917 0.9625
62.2500 18.5783 0.9627
62.2700 18.5650 0.9612
62.2900 18.5517 0.9617
62.3100 18.5383 0.9599
62.3300 18.5250 0.9592
62.3500 18.5117 0.9596
62.3700 18.4984 0.9573
62.3900 18.4851 0.9581
62.4100 18.4717 0.9560
62.4300 18.4583 0.9570
62.4500 18.4450 0.9534
62.4700 18.4317 0.9570
62.4900 18.4184 0.9520
62.5100 18.4050 0.9541
62.5300 18.3916 0.9514
62.5500 18.3783 0.9527
62.5700 18.3650 0.9492
62.5900 18.3517 0.9520
62.6100 18.3383 0.9485
62.6300 18.3250 0.9496
62.6500 18.3117 0.9483
62.6700 18.2983 0.9471
62.6900 18.2850 0.9474
62.7100 18.2716 0.9458
62.7300 18.2584 0.9465
62.7500 18.2451 0.9435
62.7700 18.2317 0.9452
62.7900 18.2184 0.9420
62.8100 18.2050 0.9441
62.8300 18.1917 0.9405
62.8500 18.1784 0.9422
62.8700 18.1650 0.9385
62.8900 18.1516 0.9417
62.9100 18.1383 0.9377
62.9300 18.1250 0.9394
62.9500 18.1117 0.9373
62.9700 18.0983 0.9383
62.9900 18.0850 0.9355
63.0100 18.0717 0.9366
63.0300 18.0584 0.9350
63.0500 18.0450 0.9344
63.0700 18.0317 0.9343
63.0900 18.0184 0.9326
63.1100 18.0051 0.9330
63.1300 17.9918 0.9312
63.1500 17.9784 0.9320
63.1700 17.9650 0.9291
63.1900 17.9517 0.9312
63.2100 17.9384 0.9273
63.2300 17.9250 0.9298
63.2500 17.9116 0.9267
63.2700 17.8983 0.9287
63.2900 17.8850 0.9248
63.3100 17.8717 0.9269
63.3300 17.8583 0.9241
63.3500 17.8450 0.9248
63.3700 17.8317 0.9238
63.3900 17.8184 0.9225
63.4100 17.8050 0.9228
63.4300 17.7917 0.9209
63.4500 17.7784 0.9222
63.4700 17.7651 0.9190
63.4900 17.7517 0.9211
63.5100 17.7384 0.9173
63.5300 17.7250 0.9200
63.5500 17.7117 0.9160
63.5700 17.6984 0.9189
63.5900 17.6850 0.9146
63.6100 17.6717 0.9173
63.6300 17.6583 0.9134
63.6500 17.6450 0.9146
63.6700 17.6317 0.9133
63.6900 17.6183 0.9123
63.7100 17.6050 0.9125
63.7300 17.5917 0.9112
63.7500 17.5784 0.9113
63.7700 17.5651 0.9089
63.7900 17.5517 0.9110
63.8100 17.5383 0.9078
63.8300 17.5250 0.9089
63.8500 17.5117 0.9064
63.8700 17.4984 0.9078
63.8900 17.4850 0.9043
63.9100 17.4717 0.9073
63.9300 17.4584 0.9026
63.9500 17.4450 0.9060
63.9700 17.4317 0.9014
63.9900 17.4183 0.9041
64.0100 17.4050 0.8997
64.0300 17.3917 0.9026
64.0500 17.3783 0.8993
64.0700 17.3650 0.9009
64.0900 17.3517 0.8984
64.1100 17.3384 0.8990
64.1300 17.3250 0.8972
64.1500 17.3117 0.8977
64.1700 17.2983 0.8972
64.1900 17.2851 0.8949
64.2100 17.2717 0.8962
64.2300 17.2584 0.8933
64.2500 17.2451 0.8954
64.2700 17.2317 0.8918
64.2900 17.2184 0.8939
64.3100 17.2050 0.8906
64.3300 17.1916 0.8918
64.3500 17.1783 0.8903
64.3700 17.1650 0.8899
64.3900 17.1516 0.8890
64.4100 17.1383 0.8890
64.4300 17.1249 0.8873
64.4500 17.1117 0.8877
64.4700 17.0983 0.8871
64.4900 17.0850 0.8851
64.5100 17.0717 0.8867
64.5300 17.0584 0.8837
64.5500 17.0451 0.8846
64.5700 17.0317 0.8823
64.5900 17.0184 0.8839
64.6100 17.0050 0.8810
64.6300 16.9917 0.8825
64.6500 16.9784 0.8806
64.6700 16.9651 0.8794
64.6900 16.9517 0.8792
64.7100 16.9383 0.8792
64.7300 16.9250 0.8774
64.7500 16.9117 0.8775
64.7700 16.8983 0.8765
64.7900 16.8850 0.8760
64.8100 16.8717 0.8758
64.8300 16.8584 0.8744
64.8500 16.8450 0.8743
64.8700 16.8317 0.8729
64.8900 16.8184 0.8740
64.9100 16.8051 0.8707
64.9300 16.7918 0.8728
64.9500 16.7784 0.8697
64.9700 16.7650 0.8713
64.9900 16.7517 0.8678
65.0100 16.7384 0.8703
65.0300 16.7250 0.8662
65.0500 16.7117 0.8690
65.0700 16.6983 0.8654
65.0900 16.6850 0.8671
65.1100 16.6717 0.8637
65.1300 16.6583 0.8662
65.1500 16.6450 0.8630
65.1700 16.6316 0.8643
65.1900 16.6183 0.8627
65.2100 16.6050 0.8617
65.2300 16.5917 0.8613
65.2500 16.5783 0.8610
65.2700 16.5651 0.8601
65.2900 16.5517 0.8589
65.3100 16.5384 0.8599
65.3300 16.5250 0.8577
65.3500 16.5117 0.8581
65.3700 16.4984 0.8567
65.3900 16.4851 0.8561
65.4100 16.4717 0.8548
65.4300 16.4583 0.8559
65.4500 16.4450 0.8527
65.4700 16.4317 0.8546
65.4900 16.4184 0.8520
65.5100 16.4050 0.8528
65.5300 16.3916 0.8511
65.5500 16.3783 0.8519
65.5700 16.3650 0.8501
65.5900 16.3517 0.8504
65.6100 16.3383 0.8498
65.6300 16.3250 0.8483
65.6500 16.3117 0.8475
65.6700 16.2984 0.8469
65.6900 16.2850 0.8464
65.7100 16.2717 0.8453
65.7300 16.2584 0.8460
65.7500 16.2451 0.8430
65.7700 16.2317 0.8452
65.7900 16.2183 0.8422
65.8100 16.2050 0.8440
65.8300 16.1917 0.8401
65.8500 16.1783 0.8423
65.8700 16.1649 0.8397
65.8900 16.1516 0.8403
65.9100 16.1383 0.8395
65.9300 16.1250 0.8384
65.9500 16.1117 0.8376
65.9700 16.0983 0.8383
65.9900 16.0850 0.8358
66.0100 16.0717 0.8354
66.0300 16.0584 0.8367
66.0500 16.0450 0.8330
66.0700 16.0317 0.8358
66.0900 16.0184 0.8317
66.1100 16.0051 0.8345
66.1300 15.9917 0.8297
66.1500 15.9783 0.8337
66.1700 15.9650 0.8285
66.1900 15.9517 0.8315
66.2100 15.9384 0.8278
66.2300 15.9250 0.8305
66.2500 15.9116 0.8269
66.2700 15.8983 0.8292
66.2900 15.8850 0.8251
66.3100 15.8717 0.8268
66.3300 15.8583 0.8254
66.3500 15.8451 0.8251
66.3700 15.8318 0.8242
66.3900 15.8184 0.8232
66.4100 15.8051 0.8245
66.4300 15.7917 0.8210
66.4500 15.7784 0.8230
66.4700 15.7651 0.8196
66.4900 15.7517 0.8213
66.5100 15.7383 0.8195
66.5300 15.7250 0.8203
66.5500 15.7116 0.8167
66.5700 15.6983 0.8200
66.5900 15.6849 0.8153
66.6100 15.6716 0.8178
66.6300 15.6583 0.8148
66.6500 15.6450 0.8158
66.6700 15.6317 0.8136
66.6900 15.6183 0.8141
66.7100 15.6050 0.8132
66.7300 15.5917 0.8119
66.7500 15.5784 0.8130
66.7700 15.5650 0.8101
66.7900 15.5517 0.8116
66.8100 15.5384 0.8086
66.8300 15.5250 0.8107
66.8500 15.5117 0.8062
66.8700 15.4983 0.8105
66.8900 15.4850 0.8055
66.9100 15.4716 0.8076
66.9300 15.4583 0.8049
66.9500 15.4450 0.8063
66.9700 15.4316 0.8044
66.9900 15.4183 0.8042
67.0100 15.4050 0.8036
67.0300 15.3917 0.8022
67.0500 15.3784 0.8031
67.0700 15.3651 0.8009
67.0900 15.3518 0.8013
67.1100 15.3384 0.7996
67.1300 15.3250 0.8008
67.1500 15.3117 0.7974
67.1700 15.2983 0.7999
67.1900 15.2850 0.7963
67.2100 15.2717 0.7982
67.2300 15.2583 0.7952
67.2500 15.2450 0.7971
67.2700 15.2317 0.7933
67.2900 15.2183 0.7958
67.3100 15.2050 0.7930
67.3300 15.1916 0.7931
67.3500 15.1783 0.7926
67.3700 15.1650 0.7913
67.3900 15.1517 0.7918
67.4100 15.1384 0.7902
67.4300 15.1251 0.7915
67.4500 15.1118 0.7870
67.4700 15.0984 0.7907
67.4900 15.0851 0.7860
67.5100 15.0717 0.7897
67.5300 15.0584 0.7847
67.5500 15.0450 0.7880
67.5700 15.0317 0.7827
67.5900 15.0183 0.7879
67.6100 15.0050 0.7824
67.6300 14.9917 0.7854
67.6500 14.9783 0.7815
67.6700 14.9650 0.7836
67.6900 14.9516 0.7810
67.7100 14.9383 0.7819
67.7300 14.9250 0.7811
67.7500 14.9117 0.7791
67.7700 14.8983 0.7802
67.7900 14.8850 0.7778
67.8100 14.8717 0.7787
67.8300 14.8584 0.7763
67.8500 14.8451 0.7790
67.8700 14.8317 0.7741
67.8900 14.8184 0.7773
67.9100 14.8051 0.7728
67.9300 14.7917 0.7757
67.9500 14.7783 0.7721
67.9700 14.7650 0.7742
67.9900 14.7516 0.7711
68.0100 14.7383 0.7723
68.0300 14.7249 0.7709
68.0500 14.7116 0.7703
68.0700 14.6983 0.7698
68.0900 14.6850 0.7684
68.1100 14.6717 0.7685
68.1300 14.6583 0.7672
68.1500 14.6450 0.7685
68.1700 14.6318 0.7646
68.1900 14.6184 0.7670
68.2100 14.6051 0.7633
68.2300 14.5917 0.7662
68.2500 14.5784 0.7619
68.2700 14.5650 0.7653
68.2900 14.5517 0.7603
68.3100 14.5383 0.7630
68.3300 14.5250 0.7606
68.3500 14.5116 0.7612
68.3700 14.4983 0.7594
68.3900 14.4850 0.7593
68.4100 14.4716 0.7579
68.4300 14.4583 0.7583
68.4500 14.4450 0.7576
68.4700 14.4317 0.7557
68.4900 14.4184 0.7575
68.5100 14.4050 0.7539
68.5300 14.3918 0.7552
68.5500 14.3785 0.7526
68.5700 14.3651 0.7550
68.5900 14.3517 0.7511
68.6100 14.3384 0.7530
68.6300 14.3250 0.7502
68.6500 14.3117 0.7514
68.6700 14.2983 0.7495
68.6900 14.2849 0.7502
68.7100 14.2716 0.7480
68.7300 14.2583 0.7489
68.7500 14.2450 0.7470
68.7700 14.2316 0.7472
68.7900 14.2183 0.7460
68.8100 14.2050 0.7452
68.8300 14.1917 0.7460
68.8500 14.1784 0.7436
68.8700 14.1650 0.7456
68.8900 14.1518 0.7415
68.9100 14.1384 0.7437
68.9300 14.1251 0.7405
68.9500 14.1117 0.7421
68.9700 14.0984 0.7392
68.9900 14.0850 0.7415
69.0100 14.0717 0.7371
69.0300 14.0583 0.7400
69.0500 14.0450 0.7369
69.0700 14.0317 0.7382
69.0900 14.0184 0.7351
69.1100 14.0050 0.7369
69.1300 13.9916 0.7349
69.1500 13.9783 0.7347
69.1700 13.9650 0.7343
69.1900 13.9517 0.7327
69.2100 13.9383 0.7338
69.2300 13.9250 0.7316
69.2500 13.9117 0.7323
69.2700 13.8984 0.7299
69.2900 13.8851 0.7319
69.3100 13.8717 0.7283
69.3300 13.8584 0.7299
69.3500 13.8450 0.7279
69.3700 13.8317 0.7289
69.3900 13.8183 0.7257
69.4100 13.8050 0.7284
69.4300 13.7916 0.7248
69.4500 13.7783 0.7255
69.4700 13.7650 0.7251
69.4900 13.7516 0.7234
69.5100 13.7383 0.7237
69.5300 13.7250 0.7221
69.5500 13.7117 0.7228
69.5700 13.6983 0.7206
69.5900 13.6850 0.7231
69.6100 13.6717 0.7187
69.6300 13.6584 0.7212
69.6500 13.6450 0.7175
69.6700 13.6317 0.7201
69.6900 13.6184 0.7155
69.7100 13.6051 0.7188
69.7300 13.5917 0.7144
69.7500 13.5783 0.7170
69.7700 13.5650 0.7141
69.7900 13.5517 0.7151
69.8100 13.5383 0.7130
69.8300 13.5250 0.7129
69.8500 13.5116 0.7129
69.8700 13.4983 0.7109
69.8900 13.4850 0.7125
69.9100 13.4717 0.7097
69.9300 13.4584 0.7097
69.9500 13.4450 0.7094
69.9700 13.4317 0.7089
69.9900 13.4184 0.7068
70.0100 13.4051 0.7087
70.0300 13.3917 0.7053
70.0500 13.3784 0.7071
70.0700 13.3651 0.7044
70.0900 13.3517 0.7060
70.1100 13.3383 0.7020
70.1300 13.3250 0.7061
70.1500 13.3116 0.7007
70.1700 13.2983 0.7034
70.1900 13.2850 0.7003
70.2100 13.2717 0.7020
70.2300 13.2583 0.6989
70.2500 13.2450 0.7006
70.2700 13.2317 0.6985
70.2900 13.2184 0.6982
70.3100 13.2051 0.6981
70.3300 13.1917 0.6965
70.3500 13.1784 0.6978
70.3700 13.1651 0.6945
70.3900 13.1517 0.6967
70.4100 13.1384 0.6921
70.4300 13.1250 0.6954
70.4500 13.1117 0.6917
70.4700 13.0983 0.6928
70.4900 13.0849 0.6920
70.5100 13.0716 0.6914
70.5300 13.0583 0.6902
70.5500 13.0450 0.6898
70.5700 13.0316 0.6900
70.5900 13.0183 0.6879
70.6100 13.0050 0.6890
70.6300 12.9917 0.6866
70.6500 12.9784 0.6870
70.6700 12.9650 0.6855
70.6900 12.9517 0.6868
70.7100 12.9384 0.6832
70.7300 12.9250 0.6856
70.7500 12.9117 0.6824
70.7700 12.8983 0.6838
70.7900 12.8851 0.6817
70.8100 12.8717 0.6819
70.8300 12.8583 0.6797
70.8500 12.8450 0.6818
70.8700 12.8316 0.6787
70.8900 12.8183 0.6801
70.9100 12.8050 0.6779
70.9300 12.7916 0.6787
70.9500 12.7783 0.6762
70.9700 12.7650 0.6770
70.9900 12.7517 0.6760
71.0100 12.7384 0.6746
71.0300 12.7250 0.6753
71.0500 12.7117 0.6727
71.0700 12.6984 0.6740
71.0900 12.6850 0.6715
71.1100 12.6717 0.6737
71.1300 12.6583 0.6693
71.1500 12.6450 0.6726
71.1700 12.6317 0.6684
71.1900 12.6183 0.6707
71.2100 12.6050 0.6674
71.2300 12.5917 0.6697
71.2500 12.5784 0.6654
71.2700 12.5650 0.6678
71.2900 12.5517 0.6660
71.3100 12.5383 0.6646
71.3300 12.5250 0.6664
71.3500 12.5117 0.6628
71.3700 12.4983 0.6650
71.3900 12.4850 0.6617
71.4100 12.4717 0.6646
71.4300 12.4584 0.6592
71.4500 12.4451 0.6634
71.4700 12.4317 0.6589
71.4900 12.4184 0.6605
71.5100 12.4051 0.6582
71.5300 12.3917 0.6595
71.5500 12.3784 0.6562
71.5700 12.3650 0.6577
71.5900 12.3516 0.6565
71.6100 12.3383 0.6551
71.6300 12.3250 0.6558
71.6500 12.3116 0.6540
71.6700 12.2983 0.6541
71.6900 12.2850 0.6528
71.7100 12.2717 0.6533
71.7300 12.2583 0.6513
71.7500 12.2450 0.6523
71.7700 12.2317 0.6506
71.7900 12.2184 0.6498
71.8100 12.2051 0.6491
71.8300 12.1917 0.6500
71.8500 12.1783 0.6464
71.8700 12.1650 0.6489
71.8900 12.1517 0.6451
71.9100 12.1384 0.6476
71.9300 12.1250 0.6437
71.9500 12.1116 0.6468
71.9700 12.0983 0.6422
71.9900 12.0850 0.6448
72.0100 12.0716 0.6424
72.0300 12.0583 0.6423
72.0500 12.0450 0.6419
72.0700 12.0317 0.6407
72.0900 12.0183 0.6398
72.1100 12.0050 0.6406
72.1300 11.9917 0.6392
72.1500 11.9784 0.6378
72.1700 11.9651 0.6379
72.1900 11.9517 0.6376
72.2100 11.9384 0.6359
72.2300 11.9250 0.6360
72.2500 11.9117 0.6349
72.2700 11.8984 0.6339
72.2900 11.8850 0.6340
72.3100 11.8717 0.6332
72.3300 11.8583 0.6324
72.3500 11.8450 0.6313
72.3700 11.8316 0.6320
72.3900 11.8183 0.6294
72.4100 11.8050 0.6312
72.4300 11.7917 0.6278
72.4500 11.7783 0.6299
72.4700 11.7650 0.6263
72.4900 11.7517 0.6288
72.5100 11.7384 0.6254
72.5300 11.7251 0.6266
72.5500 11.7117 0.6253
72.5700 11.6984 0.6247
72.5900 11.6851 0.6238
72.6100 11.6717 0.6231
72.6300 11.6584 0.6229
72.6500 11.6450 0.6214
72.6700 11.6317 0.6233
72.6900 11.6184 0.6182
72.7100 11.6051 0.6217
72.7300 11.5917 0.6173
72.7500 11.5783 0.6216
72.7700 11.5650 0.6167
72.7900 11.5517 0.6191
72.8100 11.5384 0.6156
72.8300 11.5250 0.6170
72.8500 11.5117 0.6161
72.8700 11.4984 0.6138
72.8900 11.4851 0.6153
72.9100 11.4717 0.6127
72.9300 11.4583 0.6141
72.9500 11.4450 0.6107
72.9700 11.4317 0.6141
72.9900 11.4184 0.6083
73.0100 11.4050 0.6122
73.0300 11.3917 0.6086
73.0500 11.3783 0.6102
73.0700 11.3650 0.6071
73.0900 11.3516 0.6085
73.1100 11.3383 0.6061
73.1300 11.3250 0.6069
73.1500 11.3117 0.6055
73.1700 11.2983 0.6051
73.1900 11.2850 0.6048
73.2100 11.2717 0.6040
73.2300 11.2584 0.6032
73.2500 11.2451 0.6018
73.2700 11.2317 0.6025
73.2900 11.2184 0.6007
73.3100 11.2050 0.6006
73.3300 11.1917 0.6000
73.3500 11.1784 0.5992
73.3700 11.1650 0.5975
73.3900 11.1517 0.5999
73.4100 11.1384 0.5952
73.4300 11.1250 0.5983
73.4500 11.1117 0.5949
73.4700 11.0983 0.5966
73.4900 11.0850 0.5937
73.5100 11.0716 0.5948
73.5300 11.0583 0.5932
73.5500 11.0450 0.5921
73.5700 11.0317 0.5934
73.5900 11.0184 0.5899
73.6100 11.0051 0.5915
73.6300 10.9917 0.5887
73.6500 10.9784 0.5910
73.6700 10.9651 0.5863
73.6900 10.9518 0.5905
73.7100 10.9384 0.5846
73.7300 10.9250 0.5890
73.7500 10.9116 0.5844
73.7700 10.8983 0.5872
73.7900 10.8850 0.5825
73.8100 10.8716 0.5856
73.8300 10.8583 0.5828
73.8500 10.8450 0.5825
73.8700 10.8317 0.5825
73.8900 10.8184 0.5807
73.9100 10.8050 0.5811
73.9300 10.7917 0.5801
73.9500 10.7784 0.5796
73.9700 10.7651 0.5773
73.9900 10.7517 0.5800
74.0100 10.7384 0.5756
74.0300 10.7250 0.5779
74.0500 10.7117 0.5749
74.0700 10.6984 0.5764
74.0900 10.6850 0.5729
74.1100 10.6716 0.5758
74.1300 10.6583 0.5719
74.1500 10.6450 0.5732
74.1700 10.6316 0.5712
74.1900 10.6183 0.5728
74.2100 10.6050 0.5690
74.2300 10.5917 0.5715
74.2500 10.5784 0.5680
74.2700 10.5650 0.5694
74.2900 10.5517 0.5677
74.3100 10.5384 0.5672
74.3300 10.5251 0.5665
74.3500 10.5117 0.5655
74.3700 10.4983 0.5661
74.3900 10.4850 0.5635
74.4100 10.4717 0.5654
74.4300 10.4583 0.5612
74.4500 10.4450 0.5638
74.4700 10.4316 0.5602
74.4900 10.4183 0.5626
74.5100 10.4050 0.5589
74.5300 10.3917 0.5606
74.5500 10.3783 0.5588
74.5700 10.3650 0.5588
74.5900 10.3517 0.5573
74.6100 10.3384 0.5568
74.6300 10.3250 0.5572
74.6500 10.3117 0.5557
74.6700 10.2984 0.5562
74.6900 10.2851 0.5526
74.7100 10.2717 0.5556
74.7300 10.2584 0.5519
74.7500 10.2450 0.5530
74.7700 10.2317 0.5512
74.7900 10.2184 0.5521
74.8100 10.2050 0.5486
74.8300 10.1916 0.5508
74.8500 10.1783 0.5489
74.8700 10.1650 0.5478
74.8900 10.1516 0.5477
74.9100 10.1383 0.5472
74.9300 10.1250 0.5457
74.9500 10.1117 0.5466
74.9700 10.0983 0.5445
74.9900 10.0850 0.5441
75.0100 10.0717 0.5444
75.0300 10.0584 0.5426
75.0500 10.0451 0.5427
75.0700 10.0317 0.5414
75.0900 10.0184 0.5431
75.1100 10.0051 0.5384
75.1300 9.9918 0.5411
75.1500 9.9784 0.5370
75.1700 9.9650 0.5403
75.1900 9.9516 0.5355
75.2100 9.9383 0.5401
75.2300 9.9250 0.5328
75.2500 9.9116 0.5383
75.2700 9.8982 0.5331
75.2900 9.8849 0.5360
75.3100 9.8717 0.5332
75.3300 9.8584 0.5338
75.3500 9.8450 0.5319
75.3700 9.8317 0.5316
75.3900 9.8184 0.5312
75.4100 9.8051 0.5288
75.4300 9.7917 0.5311
75.4500 9.7784 0.5279
75.4700 9.7650 0.5286
75.4900 9.7517 0.5267
75.5100 9.7384 0.5281
75.5300 9.7250 0.5242
75.5500 9.7116 0.5272
75.5700 9.6983 0.5236
75.5900 9.6850 0.5243
75.6100 9.6716 0.5228
75.6300 9.6583 0.5235
75.6500 9.6450 0.5218
75.6700 9.6317 0.5218
75.6900 9.6184 0.5206
75.7100 9.6050 0.5193
75.7300 9.5917 0.5198
75.7500 9.5784 0.5191
75.7700 9.5651 0.5166
75.7900 9.5518 0.5177
75.8100 9.5384 0.5171
75.8300 9.5251 0.5148
75.8500 9.5117 0.5161
75.8700 9.4983 0.5136
75.8900 9.4850 0.5143
75.9100 9.4716 0.5120
75.9300 9.4583 0.5138
75.9500 9.4450 0.5095
75.9700 9.4317 0.5120
75.9900 9.4183 0.5095
76.0100 9.4050 0.5096
76.0300 9.3917 0.5084
76.0500 9.3784 0.5088
76.0700 9.3650 0.5064
76.0900 9.3517 0.5072
76.1100 9.3384 0.5067
76.1300 9.3251 0.5045
76.1500 9.3118 0.5065
76.1700 9.2984 0.5026
76.1900 9.2850 0.5050
76.2100 9.2717 0.5006
76.2300 9.2584 0.5045
76.2500 9.2450 0.4988
76.2700 9.2317 0.5028
76.2900 9.2183 0.4982
76.3100 9.2050 0.4997
76.3300 9.1916 0.4970
76.3500 9.1783 0.4990
76.3700 9.1649 0.4958
76.3900 9.1516 0.4974
76.4100 9.1383 0.4956
76.4300 9.1250 0.4942
76.4500 9.1116 0.4950
76.4700 9.0983 0.4933
76.4900 9.0850 0.4932
76.5100 9.0717 0.4915
76.5300 9.0584 0.4929
76.5500 9.0450 0.4894
76.5700 9.0317 0.4909
76.5900 9.0184 0.4887
76.6100 9.0050 0.4892
76.6300 8.9916 0.4869
76.6500 8.9783 0.4889
76.6700 8.9650 0.4850
76.6900 8.9517 0.4859
76.7100 8.9383 0.4841
76.7300 8.9250 0.4857
76.7500 8.9117 0.4826
76.7700 8.8983 0.4846
76.7900 8.8850 0.4811
76.8100 8.8717 0.4825
76.8300 8.8583 0.4811
76.8500 8.8450 0.4796
76.8700 8.8317 0.4802
76.8900 8.8184 0.4783
76.9100 8.8050 0.4785
76.9300 8.7917 0.4756
76.9500 8.7784 0.4791
76.9700 8.7650 0.4731
76.9900 8.7517 0.4777
77.0100 8.7383 0.4729
77.0300 8.7250 0.4749
77.0500 8.7117 0.4720
77.0700 8.6983 0.4742
77.0900 8.6850 0.4711
77.1100 8.6717 0.4716
77.1300 8.6584 0.4711
77.1500 8.6450 0.4688
77.1700 8.6317 0.4701
77.1900 8.6184 0.4673
77.2100 8.6051 0.4689
77.2300 8.5918 0.4653
77.2500 8.5784 0.4678
77.2700 8.5651 0.4639
77.2900 8.5517 0.4662
77.3100 8.5384 0.4630
77.3300 8.5250 0.4641
77.3500 8.5116 0.4618
77.3700 8.4983 0.4636
77.3900 8.4850 0.4597
77.4100 8.4717 0.4615
77.4300 8.4583 0.4588
77.4500 8.4450 0.4599
77.4700 8.4317 0.4574
77.4900 8.4184 0.4587
77.5100 8.4050 0.4561
77.5300 8.3917 0.4564
77.5500 8.3784 0.4567
77.5700 8.3651 0.4542
77.5900 8.3518 0.4547
77.6100 8.3384 0.4532
77.6300 8.3250 0.4534
77.6500 8.3117 0.4505
77.6700 8.2984 0.4531
77.6900 8.2850 0.4477
77.7100 8.2716 0.4519
77.7300 8.2583 0.4468
77.7500 8.2450 0.4499
77.7700 8.2317 0.4454
77.7900 8.2183 0.4485
77.8100 8.2050 0.4448
77.8300 8.1917 0.4454
77.8500 8.1784 0.4450
77.8700 8.1650 0.4438
77.8900 8.1517 0.4439
77.9100 8.1384 0.4429
77.9300 8.1251 0.4425
77.9500 8.1117 0.4408
77.9700 8.0984 0.4417
77.9900 8.0850 0.4388
78.0100 8.0717 0.4402
78.0300 8.0584 0.4374
78.0500 8.0450 0.4385
78.0700 8.0317 0.4357
78.0900 8.0183 0.4380
78.1100 8.0050 0.4348
78.1300 7.9917 0.4349
78.1500 7.9783 0.4347
78.1700 7.9650 0.4332
78.1900 7.9517 0.4324
78.2100 7.9384 0.4324
78.2300 7.9251 0.4316
78.2500 7.9117 0.4300
78.2700 7.8984 0.4308
78.2900 7.8850 0.4287
78.3100 7.8717 0.4293
78.3300 7.8584 0.4275
78.3500 7.8450 0.4282
78.3700 7.8317 0.4253
78.3900 7.8184 0.4269
78.4100 7.8050 0.4245
78.4300 7.7917 0.4247
78.4500 7.7783 0.4235
78.4700 7.7650 0.4239
78.4900 7.7517 0.4206
78.5100 7.7383 0.4235
78.5300 7.7250 0.4200
78.5500 7.7117 0.4207
78.5700 7.6984 0.4192
78.5900 7.6850 0.4195
78.6100 7.6717 0.4169
78.6300 7.6583 0.4175
78.6500 7.6451 0.4172
78.6700 7.6317 0.4141
78.6900 7.6184 0.4170
78.7100 7.6050 0.4133
78.7300 7.5917 0.4149
78.7500 7.5784 0.4117
78.7700 7.5650 0.4134
78.7900 7.5517 0.4092
78.8100 7.5383 0.4131
78.8300 7.5250 0.4082
78.8500 7.5116 0.4102
78.8700 7.4983 0.4080
78.8900 7.4849 0.4086
78.9100 7.4716 0.4060
78.9300 7.4583 0.4073
78.9500 7.4450 0.4061
78.9700 7.4317 0.4048
78.9900 7.4183 0.4052
79.0100 7.4050 0.4033
79.0300 7.3917 0.4036
79.0500 7.3784 0.4015
79.0700 7.3650 0.4028
79.0900 7.3517 0.3998
79.1100 7.3384 0.4010
79.1300 7.3251 0.3982
79.1500 7.3117 0.3990
79.1700 7.2983 0.3968
79.1900 7.2850 0.3981
79.2100 7.2716 0.3945
79.2300 7.2583 0.3964
79.2500 7.2449 0.3947
79.2700 7.2316 0.3938
79.2900 7.2183 0.3934
79.3100 7.2050 0.3927
79.3300 7.1917 0.3914
79.3500 7.1784 0.3914
79.3700 7.1651 0.3910
79.3900 7.1517 0.3882
79.4100 7.1384 0.3901
79.4300 7.1250 0.3883
79.4500 7.1117 0.3877
79.4700 7.0984 0.3862
79.4900 7.0850 0.3868
79.5100 7.0717 0.3844
79.5300 7.0583 0.3866
79.5500 7.0450 0.3826
79.5700 7.0317 0.3839
79.5900 7.0183 0.3813
79.6100 7.0050 0.3828
79.6300 6.9916 0.3797
79.6500 6.9783 0.3811
79.6700 6.9650 0.3795
79.6900 6.9517 0.3781
79.7100 6.9384 0.3788
79.7300 6.9251 0.3777
79.7500 6.9117 0.3768
79.7700 6.8984 0.3757
79.7900 6.8850 0.3769
79.8100 6.8717 0.3731
79.8300 6.8584 0.3759
79.8500 6.8451 0.3714
79.8700 6.8317 0.3746
79.8900 6.8183 0.3703
79.9100 6.8050 0.3730
79.9300 6.7917 0.3678
79.9500 6.7784 0.3713
79.9700 6.7650 0.3675
79.9900 6.7516 0.3683
80.0100 6.7383 0.3673
80.0300 6.7250 0.3672
80.0500 6.7117 0.3640
80.0700 6.6983 0.3665
80.0900 6.6850 0.3639
80.1100 6.6717 0.3635
80.1300 6.6584 0.3629
80.1500 6.6450 0.3623
80.1700 6.6317 0.3618
80.1900 6.6184 0.3598
80.2100 6.6051 0.3612
80.2300 6.5917 0.3571
80.2500 6.5783 0.3605
80.2700 6.5650 0.3574
80.2900 6.5517 0.3577
80.3100 6.5383 0.3552
80.3300 6.5250 0.3568
80.3500 6.5116 0.3531
80.3700 6.4983 0.3556
80.3900 6.4850 0.3528
80.4100 6.4717 0.3532
80.4300 6.4583 0.3518
80.4500 6.4450 0.3517
80.4700 6.4317 0.3507
80.4900 6.4184 0.3494
80.5100 6.4050 0.3509
80.5300 6.3917 0.3466
80.5500 6.3784 0.3495
80.5700 6.3650 0.3457
80.5900 6.3517 0.3472
80.6100 6.3383 0.3442
80.6300 6.3250 0.3460
80.6500 6.3117 0.3422
80.6700 6.2983 0.3451
80.6900 6.2850 0.3413
80.7100 6.2716 0.3432
80.7300 6.2583 0.3400
80.7500 6.2450 0.3417
80.7700 6.2317 0.3383
80.7900 6.2183 0.3398
80.8100 6.2050 0.3386
80.8300 6.1918 0.3359
80.8500 6.1785 0.3365
80.8700 6.1651 0.3351
80.8900 6.1517 0.3357
80.9100 6.1384 0.3337
80.9300 6.1251 0.3349
80.9500 6.1117 0.3308
80.9700 6.0983 0.3338
80.9900 6.0850 0.3297
81.0100 6.0717 0.3319
81.0300 6.0583 0.3280
81.0500 6.0450 0.3312
81.0700 6.0316 0.3259
81.0900 6.0183 0.3300
81.1100 6.0050 0.3259
81.1300 5.9917 0.3280
81.1500 5.9784 0.3242
81.1700 5.9651 0.3264
81.1900 5.9518 0.3227
81.2100 5.9384 0.3240
81.2300 5.9251 0.3225
81.2500 5.9117 0.3221
81.2700 5.8984 0.3207
81.2900 5.8851 0.3205
81.3100 5.8717 0.3194
81.3300 5.8583 0.3181
81.3500 5.8449 0.3202
81.3700 5.8316 0.3158
81.3900 5.8183 0.3182
81.4100 5.8049 0.3152
81.4300 5.7916 0.3168
81.4500 5.7783 0.3132
81.4700 5.7650 0.3153
81.4900 5.7517 0.3123
81.5100 5.7384 0.3130
81.5300 5.7251 0.3123
81.5500 5.7118 0.3107
81.5700 5.6984 0.3099
81.5900 5.6850 0.3095
81.6100 5.6717 0.3085
81.6300 5.6583 0.3075
81.6500 5.6450 0.3086
81.6700 5.6316 0.3057
81.6900 5.6183 0.3071
81.7100 5.6050 0.3041
81.7300 5.5917 0.3058
81.7500 5.5783 0.3020
81.7700 5.5650 0.3043
81.7900 5.5516 0.3002
81.8100 5.5383 0.3021
81.8300 5.5250 0.2995
81.8500 5.5117 0.3008
81.8700 5.4983 0.2982
81.8900 5.4850 0.3004
81.9100 5.4717 0.2968
81.9300 5.4584 0.2976
81.9500 5.4451 0.2965
81.9700 5.4317 0.2959
81.9900 5.4184 0.2956
82.0100 5.4050 0.2940
82.0300 5.3917 0.2950
82.0500 5.3783 0.2908
82.0700 5.3650 0.2946
82.0900 5.3517 0.2883
82.1100 5.3383 0.2920
82.1300 5.3250 0.2878
82.1500 5.3116 0.2907
82.1700 5.2983 0.2862
82.1900 5.2850 0.2902
82.2100 5.2717 0.2852
82.2300 5.2583 0.2883
82.2500 5.2450 0.2847
82.2700 5.2317 0.2855
82.2900 5.2184 0.2827
82.3100 5.2051 0.2833
82.3300 5.1917 0.2817
82.3500 5.1784 0.2805
82.3700 5.1651 0.2810
82.3900 5.1517 0.2781
82.4100 5.1383 0.2795
82.4300 5.1250 0.2776
82.4500 5.1117 0.2781
82.4700 5.0983 0.2759
82.4900 5.0850 0.2764
82.5100 5.0716 0.2751
82.5300 5.0583 0.2755
82.5500 5.0450 0.2737
82.5700 5.0317 0.2751
82.5900 5.0183 0.2715
82.6100 5.0050 0.2739
82.6300 4.9918 0.2696
82.6500 4.9784 0.2710
82.6700 4.9651 0.2694
82.6900 4.9517 0.2685
82.7100 4.9384 0.2674
82.7300 4.9250 0.2675
82.7500 4.9117 0.2664
82.7700 4.8983 0.2652
82.7900 4.8849 0.2663
82.8100 4.8716 0.2640
82.8300 4.8583 0.2656
82.8500 4.8450 0.2623
82.8700 4.8316 0.2651
82.8900 4.8183 0.2592
82.9100 4.8050 0.2632
82.9300 4.7917 0.2582
82.9500 4.7784 0.2600
82.9700 4.7650 0.2582
82.9900 4.7517 0.2585
83.0100 4.7384 0.2565
83.0300 4.7251 0.2570
83.0500 4.7117 0.2558
83.0700 4.6984 0.2537
83.0900 4.6850 0.2547
83.1100 4.6717 0.2521
83.1300 4.6583 0.2527
83.1500 4.6449 0.2504
83.1700 4.6316 0.2533
83.1900 4.6183 0.2486
83.2100 4.6050 0.2532
83.2300 4.5916 0.2476
83.2500 4.5783 0.2498
83.2700 4.5650 0.2461
83.2900 4.5517 0.2481
83.3100 4.5384 0.2446
83.3300 4.5251 0.2470
83.3500 4.5118 0.2438
83.3700 4.4985 0.2440
83.3900 4.4851 0.2416
83.4100 4.4717 0.2428
83.4300 4.4584 0.2404
83.4500 4.4450 0.2416
83.4700 4.4317 0.2400
83.4900 4.4183 0.2384
83.5100 4.4050 0.2390
83.5300 4.3917 0.2383
83.5500 4.3784 0.2381
83.5700 4.3650 0.2375
83.5900 4.3516 0.2374
83.6100 4.3383 0.2342
83.6300 4.3250 0.2357
83.6500 4.3117 0.2328
83.6700 4.2983 0.2328
83.6900 4.2850 0.2313
83.7100 4.2717 0.2316
83.7300 4.2584 0.2283
83.7500 4.2451 0.2302
83.7700 4.2317 0.2276
83.7900 4.2184 0.2271
83.8100 4.2050 0.2269
83.8300 4.1917 0.2263
83.8500 4.1783 0.2279
83.8700 4.1650 0.2258
83.8900 4.1516 0.2280
83.9100 4.1383 0.2223
83.9300 4.1250 0.2259
83.9500 4.1116 0.2210
83.9700 4.0983 0.2230
83.9900 4.0850 0.2198
84.0100 4.0717 0.2206
84.0300 4.0583 0.2179
84.0500 4.0450 0.2187
84.0700 4.0317 0.2174
84.0900 4.0184 0.2171
84.1100 4.0051 0.2178
84.1300 3.9917 0.2164
84.1500 3.9783 0.2164
84.1700 3.9650 0.2142
84.1900 3.9517 0.2154
84.2100 3.9383 0.2118
84.2300 3.9250 0.2139
84.2500 3.9117 0.2110
84.2700 3.8983 0.2107
84.2900 3.8850 0.2089
84.3100 3.8716 0.2095
84.3300 3.8583 0.2066
84.3500 3.8450 0.2101
84.3700 3.8317 0.2071
84.3900 3.8183 0.2086
84.4100 3.8050 0.2058
84.4300 3.7917 0.2070
84.4500 3.7784 0.2035
84.4700 3.7651 0.2055
84.4900 3.7517 0.2030
84.5100 3.7384 0.2025
84.5300 3.7251 0.2024
84.5500 3.7117 0.2011
84.5700 3.6983 0.2018
84.5900 3.6849 0.1991
84.6100 3.6716 0.1993
84.6300 3.6583 0.1969
84.6500 3.6450 0.1974
84.6700 3.6316 0.1951
84.6900 3.6183 0.1955
84.7100 3.6050 0.1929
84.7300 3.5917 0.1948
84.7500 3.5784 0.1922
84.7700 3.5650 0.1949
84.7900 3.5518 0.1935
84.8100 3.5384 0.1921
84.8300 3.5251 0.1917
84.8500 3.5117 0.1898
84.8700 3.4984 0.1890
84.8900 3.4850 0.1883
84.9100 3.4717 0.1868
84.9300 3.4583 0.1858
84.9500 3.4450 0.1855
84.9700 3.4316 0.1837
84.9900 3.4183 0.1843
85.0100 3.4050 0.1832
85.0300 3.3917 0.1861
85.0500 3.3783 0.1824
85.0700 3.3650 0.1835
85.0900 3.3517 0.1808
85.1100 3.3384 0.1818
85.1300 3.3250 0.1795
85.1500 3.3117 0.1800
85.1700 3.2984 0.1778
85.1900 3.2851 0.1783
85.2100 3.2717 0.1765
85.2300 3.2584 0.1765
85.2500 3.2450 0.1749
85.2700 3.2317 0.1753
85.2900 3.2184 0.1735
85.3100 3.2050 0.1727
85.3300 3.1917 0.1726
85.3500 3.1784 0.1692
85.3700 3.1650 0.1716
85.3900 3.1516 0.1688
85.4100 3.1383 0.1717
85.4300 3.1250 0.1674
85.4500 3.1117 0.1705
85.4700 3.0984 0.1650
85.4900 3.0850 0.1682
85.5100 3.0717 0.1638
85.5300 3.0584 0.1646
85.5500 3.0451 0.1618
85.5700 3.0317 0.1636
85.5900 3.0183 0.1624
85.6100 3.0050 0.1613
85.6300 2.9917 0.1627
85.6500 2.9783 0.1587
85.6700 2.9650 0.1614
85.6900 2.9517 0.1569
85.7100 2.9384 0.1593
85.7300 2.9250 0.1542
85.7500 2.9117 0.1574
85.7700 2.8983 0.1537
85.7900 2.8850 0.1562
85.8100 2.8717 0.1539
85.8300 2.8583 0.1550
85.8500 2.8450 0.1527
85.8700 2.8317 0.1532
85.8900 2.8184 0.1507
85.9100 2.8051 0.1504
85.9300 2.7917 0.1496
85.9500 2.7784 0.1479
85.9700 2.7651 0.1466
85.9900 2.7517 0.1465
86.0100 2.7384 0.1470
86.0300 2.7250 0.1469
86.0500 2.7116 0.1479
86.0700 2.6983 0.1440
86.0900 2.6850 0.1447
86.1100 2.6716 0.1408
86.1300 2.6583 0.1433
86.1500 2.6450 0.1389
86.1700 2.6317 0.1420
86.1900 2.6183 0.1374
86.2100 2.6050 0.1403
86.2300 2.5917 0.1369
86.2500 2.5784 0.1378
86.2700 2.5651 0.1338
86.2900 2.5517 0.1357
86.3100 2.5383 0.1336
86.3300 2.5250 0.1334
86.3500 2.5117 0.1356
86.3700 2.4984 0.1320
86.3900 2.4850 0.1336
86.4100 2.4716 0.1292
86.4300 2.4583 0.1312
86.4500 2.4450 0.1264
86.4700 2.4316 0.1296
86.4900 2.4183 0.1256
86.5100 2.4050 0.1281
86.5300 2.3917 0.1246
86.5500 2.3784 0.1262
86.5700 2.3650 0.1224
86.5900 2.3517 0.1231
86.6100 2.3384 0.1209
86.6300 2.3251 0.1209
86.6500 2.3117 0.1204
86.6700 2.2984 0.1203
86.6900 2.2850 0.1212
86.7100 2.2717 0.1192
86.7300 2.2584 0.1187
86.7500 2.2450 0.1163
86.7700 2.2317 0.1167
86.7900 2.2183 0.1140
86.8100 2.2050 0.1144
86.8300 2.1916 0.1121
86.8500 2.1783 0.1139
86.8700 2.1650 0.1102
86.8900 2.1517 0.1127
86.9100 2.1383 0.1088
86.9300 2.1250 0.1116
86.9500 2.1117 0.1094
86.9700 2.0984 0.1100
86.9900 2.0851 0.1065
87.0100 2.0717 0.1075
87.0300 2.0583 0.1049
87.0500 2.0450 0.1037
87.0700 2.0317 0.1031
87.0900 2.0184 0.1017
87.1100 2.0050 0.1022
87.1300 1.9916 0.1007
87.1500 1.9784 0.1011
87.1700 1.9650 0.0970
87.1900 1.9517 0.0999
87.2100 1.9383 0.0952
87.2300 1.9250 0.0979
87.2500 1.9117 0.0947
87.2700 1.8984 0.0977
87.2900 1.8850 0.0965
87.3100 1.8717 0.0967
87.3300 1.8584 0.0945
87.3500 1.8450 0.0925
87.3700 1.8317 0.0919
87.3900 1.8184 0.0913
87.4100 1.8051 0.0915
87.4300 1.7917 0.0912
87.4500 1.7784 0.0904
87.4700 1.7650 0.0873
87.4900 1.7517 0.0887
87.5100 1.7383 0.0853
87.5300 1.7250 0.0867
87.5500 1.7117 0.0854
87.5700 1.6983 0.0858
87.5900 1.6850 0.0827
87.6100 1.6717 0.0827
87.6300 1.6584 0.0823
87.6500 1.6450 0.0803
87.6700 1.6317 0.0806
87.6900 1.6184 0.0789
87.7100 1.6051 0.0776
87.7300 1.5917 0.0781
87.7500 1.5784 0.0788
87.7700 1.5650 0.0773
87.7900 1.5517 0.0764
87.8100 1.5384 0.0734
87.8300 1.5250 0.0743
87.8500 1.5117 0.0731
87.8700 1.4984 0.0749
87.8900 1.4850 0.0699
87.9100 1.4717 0.0725
87.9300 1.4583 0.0681
87.9500 1.4449 0.0705
87.9700 1.4316 0.0674
87.9900 1.4183 0.0702
88.0100 1.4050 0.0662
88.0300 1.3917 0.0672
88.0500 1.3784 0.0646
88.0700 1.3651 0.0647
88.0900 1.3518 0.0642
88.1100 1.3384 0.0629
88.1300 1.3250 0.0624
88.1500 1.3117 0.0594
88.1700 1.2984 0.0618
88.1900 1.2850 0.0570
88.2100 1.2717 0.0598
88.2300 1.2583 0.0562
88.2500 1.2450 0.0580
88.2700 1.2316 0.0550
88.2900 1.2183 0.0563
88.3100 1.2049 0.0534
88.3300 1.1917 0.0542
88.3500 1.1784 0.0523
88.3700 1.1650 0.0526
88.3900 1.1517 0.0502
88.4100 1.1384 0.0506
88.4300 1.1251 0.0477
88.4500 1.1117 0.0483
88.4700 1.0984 0.0472
88.4900 1.0850 0.0467
88.5100 1.0717 0.0458
88.5300 1.0584 0.0451
88.5500 1.0450 0.0440
88.5700 1.0316 0.0432
88.5900 1.0183 0.0424
88.6100 1.0050 0.0417
88.6300 0.9916 0.0411
88.6500 0.9783 0.0419
88.6700 0.9650 0.0443
88.6900 0.9517 0.0438
88.7100 0.9384 0.0446
88.7300 0.9250 0.0413
88.7500 0.9117 0.0416
88.7700 0.8984 0.0386
88.7900 0.8851 0.0389
88.8100 0.8718 0.0360
88.8300 0.8584 0.0377
88.8500 0.8450 0.0344
88.8700 0.8317 0.0343
88.8900 0.8183 0.0330
88.9100 0.8050 0.0318
88.9300 0.7916 0.0318
88.9500 0.7783 0.0299
88.9700 0.7650 0.0291
88.9900 0.7517 0.0267
89.0100 0.7383 0.0281
89.0300 0.7250 0.0237
89.0500 0.7117 0.0256
89.0700 0.6984 0.0223
89.0900 0.6850 0.0232
89.1100 0.6717 0.0204
89.1300 0.6584 0.0208
89.1500 0.6451 0.0184
89.1700 0.6318 0.0183
89.1900 0.6184 0.0174
89.2100 0.6050 0.0162
89.2300 0.5917 0.0140
89.2500 0.5783 0.0141
89.2700 0.5650 0.0122
89.2900 0.5516 0.0111
89.3100 0.5383 0.0107
89.3300 0.5250 0.0085
89.3500 0.5117 0.0074
89.3700 0.4983 0.0065
89.3900 0.4849 0.0067
89.4100 0.4716 0.0035
89.4300 0.4583 0.0046
89.4500 0.4450 0.0011
89.4700 0.4317 0.0023
89.4900 0.4184 -0.0014
89.5100 0.4051 -0.0004
89.5300 0.3917 -0.0039
89.5500 0.3784 -0.0011
89.5700 0.3651 -0.0056
89.5900 0.3517 -0.0051
89.6100 0.3384 -0.0074
89.6300 0.3250 -0.0070
89.6500 0.3116 -0.0088
89.6700 0.2983 -0.0102
89.6900 0.2850 -0.0102
89.7100 0.2716 -0.0131
89.7300 0.2583 -0.0114
89.7500 0.2449 -0.0151
89.7700 0.2316 -0.0127
89.7900 0.2183 -0.0166
89.8100 0.2050 -0.0150
89.8300 0.1917 -0.0184
89.8500 0.1784 -0.0159
89.8700 0.1651 -0.0202
89.8900 0.1517 -0.0183
89.9100 0.1384 -0.0210
89.9300 0.1250 -0.0202
89.9500 0.1117 -0.0220
89.9700 0.0984 -0.0224
89.9900 0.0850 -0.0232
90.0100 0.0716 -0.0249
90.0300 0.0583 -0.0236
90.0500 0.0450 -0.0260
90.0700 0.0317 -0.0255
90.0900 0.0183 -0.0267
90.1100 0.0050 -0.0253
90.1180 -0.0002 -0.0235
