Raw Data
Time Displacement Force
(s) (mm) (N)
0.0000 0.0000 -0.0356
0.0200 0.0001 -0.0294
0.0400 0.0018 -0.0227
0.0600 0.0089 -0.0220
0.0800 0.0204 -0.0358
0.1000 0.0327 -0.0308
0.1200 0.0453 -0.0341
0.1400 0.0587 -0.0313
0.1600 0.0729 -0.0332
0.1800 0.0871 -0.0339
0.2000 0.1011 -0.0339
0.2200 0.1147 -0.0337
0.2400 0.1281 -0.0325
0.2600 0.1414 -0.0337
0.2800 0.1547 -0.0307
0.3000 0.1680 -0.0321
0.3200 0.1814 -0.0272
0.3400 0.1948 -0.0294
0.3600 0.2081 -0.0248
0.3800 0.2214 -0.0274
0.4000 0.2347 -0.0219
0.4200 0.2481 -0.0250
0.4400 0.2614 -0.0206
0.4600 0.2747 -0.0224
0.4800 0.2881 -0.0180
0.5000 0.3015 -0.0204
0.5200 0.3149 -0.0147
0.5400 0.3282 -0.0166
0.5600 0.3415 -0.0124
0.5800 0.3548 -0.0122
0.6000 0.3682 -0.0096
0.6200 0.3815 -0.0084
0.6400 0.3948 -0.0070
0.6600 0.4081 -0.0038
0.6800 0.4214 -0.0051
0.7000 0.4347 0.0009
0.7200 0.4481 -0.0013
0.7400 0.4614 0.0046
0.7600 0.4747 0.0031
0.7800 0.4881 0.0077
0.8000 0.5014 0.0063
0.8200 0.5148 0.0111
0.8400 0.5281 0.0114
0.8600 0.5415 0.0131
0.8800 0.5549 0.0166
0.9000 0.5682 0.0157
0.9200 0.5815 0.0206
0.9400 0.5948 0.0191
0.9600 0.6082 0.0252
0.9800 0.6215 0.0218
1.0000 0.6348 0.0283
1.0200 0.6481 0.0260
1.0400 0.6614 0.0316
1.0600 0.6748 0.0298
1.0800 0.6881 0.0353
1.1000 0.7014 0.0338
1.1200 0.7147 0.0390
1.1400 0.7281 0.0382
1.1600 0.7414 0.0406
1.1800 0.7547 0.0421
1.2000 0.7681 0.0446
1.2200 0.7814 0.0450
1.2400 0.7948 0.0483
1.2600 0.8082 0.0485
1.2800 0.8214 0.0516
1.3000 0.8348 0.0533
1.3200 0.8481 0.0546
1.3400 0.8615 0.0566
1.3600 0.8748 0.0575
1.3800 0.8882 0.0608
1.4000 0.9015 0.0603
1.4200 0.9149 0.0649
1.4400 0.9282 0.0637
1.4600 0.9414 0.0678
1.4800 0.9547 0.0676
1.5000 0.9680 0.0713
1.5200 0.9814 0.0705
1.5400 0.9947 0.0738
1.5600 1.0080 0.0749
1.5800 1.0214 0.0757
1.6000 1.0348 0.0795
1.6200 1.0482 0.0783
1.6400 1.0615 0.0827
1.6600 1.0748 0.0814
1.6800 1.0882 0.0871
1.7000 1.1016 0.0840
1.7200 1.1149 0.0904
1.7400 1.1281 0.0879
1.7600 1.1414 0.0923
1.7800 1.1548 0.0929
1.8000 1.1681 0.0941
1.8200 1.1814 0.0963
1.8400 1.1947 0.0980
1.8600 1.2080 0.0997
1.8800 1.2214 0.1006
1.9000 1.2348 0.1032
1.9200 1.2481 0.1031
1.9400 1.2615 0.1060
1.9600 1.2749 0.1062
1.9800 1.2882 0.1099
2.0000 1.3015 0.1086
2.0200 1.3148 0.1130
2.0400 1.3282 0.1126
2.0600 1.3415 0.1150
2.0800 1.3548 0.1169
2.1000 1.3681 0.1179
2.1200 1.3814 0.1190
2.1400 1.3948 0.1217
2.1600 1.4081 0.1214
2.1800 1.4214 0.1242
2.2000 1.4347 0.1256
2.2200 1.4481 0.1272
2.2400 1.4614 0.1274
2.2600 1.4748 0.1305
2.2800 1.4881 0.1314
2.3000 1.5015 0.1321
2.3200 1.5149 0.1348
2.3400 1.5282 0.1350
2.3600 1.5415 0.1375
2.3800 1.5548 0.1376
2.4000 1.5682 0.1404
2.4200 1.5815 0.1398
2.4400 1.5948 0.1436
2.4600 1.6081 0.1433
2.4800 1.6214 0.1458
2.5000 1.6348 0.1464
2.5200 1.6481 0.1484
2.5400 1.6614 0.1492
2.5600 1.6747 0.1507
2.5800 1.6880 0.1531
2.6000 1.7014 0.1518
2.6200 1.7148 0.1568
2.6400 1.7281 0.1545
2.6600 1.7415 0.1595
2.6800 1.7549 0.1570
2.7000 1.7682 0.1628
2.7200 1.7815 0.1591
2.7400 1.7948 0.1653
2.7600 1.8082 0.1630
2.7800 1.8215 0.1673
2.8000 1.8348 0.1664
2.8200 1.8481 0.1702
2.8400 1.8614 0.1689
2.8600 1.8748 0.1720
2.8800 1.8881 0.1729
2.9000 1.9014 0.1739
2.9200 1.9147 0.1756
2.9400 1.9281 0.1769
2.9600 1.9415 0.1778
2.9800 1.9548 0.1787
3.0000 1.9681 0.1811
3.0200 1.9814 0.1817
3.0400 1.9948 0.1829
3.0600 2.0082 0.1848
3.0800 2.0215 0.1858
3.1000 2.0348 0.1873
3.1200 2.0481 0.1895
3.1400 2.0615 0.1893
3.1600 2.0749 0.1926
3.1800 2.0881 0.1921
3.2000 2.1014 0.1949
3.2200 2.1148 0.1945
3.2400 2.1282 0.1978
3.2600 2.1415 0.1970
3.2800 2.1548 0.1998
3.3000 2.1681 0.2012
3.3200 2.1814 0.2013
3.3400 2.1948 0.2035
3.3600 2.2081 0.2040
3.3800 2.2214 0.2065
3.4000 2.2348 0.2059
3.4200 2.2482 0.2098
3.4400 2.2615 0.2075
3.4600 2.2748 0.2120
3.4800 2.2881 0.2107
3.5000 2.3015 0.2136
3.5200 2.3148 0.2138
3.5400 2.3281 0.2159
3.5600 2.3414 0.2160
3.5800 2.3548 0.2181
3.6000 2.3681 0.2191
3.6200 2.3814 0.2194
3.6400 2.3947 0.2224
3.6600 2.4080 0.2221
3.6800 2.4214 0.2246
3.7000 2.4347 0.2241
3.7200 2.4480 0.2274
3.7400 2.4614 0.2269
3.7600 2.4748 0.2295
3.7800 2.4882 0.2288
3.8000 2.5015 0.2320
3.8200 2.5149 0.2314
3.8400 2.5282 0.2348
3.8600 2.5415 0.2337
3.8800 2.5548 0.2367
3.9000 2.5681 0.2365
3.9200 2.5814 0.2384
3.9400 2.5948 0.2385
3.9600 2.6081 0.2404
3.9800 2.6214 0.2419
4.0000 2.6347 0.2428
4.0200 2.6481 0.2444
4.0400 2.6615 0.2451
4.0600 2.6748 0.2465
4.0800 2.6881 0.2470
4.1000 2.7015 0.2499
4.1200 2.7148 0.2482
4.1400 2.7282 0.2531
4.1600 2.7415 0.2500
4.1800 2.7548 0.2557
4.2000 2.7681 0.2529
4.2200 2.7815 0.2572
4.2400 2.7948 0.2550
4.2600 2.8081 0.2594
4.2800 2.8214 0.2583
4.3000 2.8348 0.2609
4.3200 2.8481 0.2609
4.3400 2.8614 0.2631
4.3600 2.8747 0.2632
4.3800 2.8881 0.2648
4.4000 2.9014 0.2661
4.4200 2.9148 0.2657
4.4400 2.9281 0.2693
4.4600 2.9415 0.2675
4.4800 2.9548 0.2713
4.5000 2.9682 0.2710
4.5200 2.9815 0.2733
4.5400 2.9948 0.2726
4.5600 3.0081 0.2756
4.5800 3.0215 0.2754
4.6000 3.0349 0.2765
4.6200 3.0481 0.2782
4.6400 3.0614 0.2789
4.6600 3.0748 0.2802
4.6800 3.0881 0.2809
4.7000 3.1014 0.2826
4.7200 3.1147 0.2829
4.7400 3.1281 0.2854
4.7600 3.1414 0.2845
4.7800 3.1548 0.2871
4.8000 3.1681 0.2869
4.8200 3.1814 0.2899
4.8400 3.1948 0.2884
4.8600 3.2082 0.2920
4.8800 3.2215 0.2909
4.9000 3.2348 0.2937
4.9200 3.2481 0.2936
4.9400 3.2615 0.2965
4.9600 3.2748 0.2947
4.9800 3.2881 0.2994
5.0000 3.3014 0.2974
5.0200 3.3148 0.3007
5.0400 3.3281 0.3002
5.0600 3.3414 0.3025
5.0800 3.3548 0.3018
5.1000 3.3681 0.3041
5.1200 3.3814 0.3050
5.1400 3.3948 0.3056
5.1600 3.4081 0.3080
5.1800 3.4214 0.3071
5.2000 3.4348 0.3099
5.2200 3.4482 0.3090
5.2400 3.4615 0.3122
5.2600 3.4748 0.3110
5.2800 3.4881 0.3143
5.3000 3.5015 0.3134
5.3200 3.5149 0.3153
5.3400 3.5282 0.3165
5.3600 3.5415 0.3175
5.3800 3.5548 0.3175
5.4000 3.5681 0.3186
5.4200 3.5815 0.3206
5.4400 3.5948 0.3195
5.4600 3.6081 0.3227
5.4800 3.6214 0.3221
5.5000 3.6347 0.3241
5.5200 3.6480 0.3237
5.5400 3.6614 0.3262
5.5600 3.6748 0.3248
5.5800 3.6882 0.3286
5.6000 3.7015 0.3269
5.6200 3.7148 0.3302
5.6400 3.7282 0.3302
5.6600 3.7415 0.3321
5.6800 3.7549 0.3313
5.7000 3.7682 0.3346
5.7200 3.7814 0.3342
5.7400 3.7948 0.3360
5.7600 3.8081 0.3365
5.7800 3.8214 0.3373
5.8000 3.8347 0.3396
5.8200 3.8481 0.3389
5.8400 3.8614 0.3420
5.8600 3.8747 0.3399
5.8800 3.8881 0.3440
5.9000 3.9014 0.3416
5.9200 3.9148 0.3461
5.9400 3.9282 0.3427
5.9600 3.9415 0.3495
5.9800 3.9548 0.3438
6.0000 3.9682 0.3506
6.0200 3.9815 0.3471
6.0400 3.9948 0.3515
6.0600 4.0081 0.3507
6.0800 4.0214 0.3522
6.1000 4.0347 0.3534
6.1200 4.0481 0.3534
6.1400 4.0614 0.3558
6.1600 4.0747 0.3545
6.1800 4.0881 0.3591
6.2000 4.1014 0.3556
6.2200 4.1148 0.3609
6.2400 4.1281 0.3576
6.2600 4.1415 0.3633
6.2800 4.1548 0.3588
6.3000 4.1682 0.3644
6.3200 4.1815 0.3607
6.3400 4.1948 0.3660
6.3600 4.2081 0.3638
6.3800 4.2215 0.3671
6.4000 4.2348 0.3659
6.4200 4.2482 0.3680
6.4400 4.2615 0.3699
6.4600 4.2748 0.3689
6.4800 4.2882 0.3713
6.5000 4.3015 0.3706
6.5200 4.3148 0.3735
6.5400 4.3281 0.3722
6.5600 4.3414 0.3754
6.5800 4.3548 0.3731
6.6000 4.3681 0.3778
6.6200 4.3814 0.3749
6.6400 4.3947 0.3795
6.6600 4.4081 0.3775
6.6800 4.4215 0.3808
6.7000 4.4348 0.3801
6.7200 4.4481 0.3815
6.7400 4.4615 0.3831
6.7600 4.4749 0.3821
6.7800 4.4882 0.3854
6.8000 4.5015 0.3837
6.8200 4.5148 0.3878
6.8400 4.5281 0.3845
6.8600 4.5415 0.3908
6.8800 4.5548 0.3852
6.9000 4.5681 0.3935
6.9200 4.5814 0.3869
6.9400 4.5947 0.3946
6.9600 4.6081 0.3890
6.9800 4.6214 0.3966
7.0000 4.6348 0.3909
7.0200 4.6481 0.3967
7.0400 4.6615 0.3946
7.0600 4.6748 0.3968
7.0800 4.6882 0.3972
7.1000 4.7015 0.3978
7.1200 4.7149 0.3997
7.1400 4.7282 0.3981
7.1600 4.7415 0.4029
7.1800 4.7548 0.3983
7.2000 4.7682 0.4050
7.2200 4.7815 0.4000
7.2400 4.7948 0.4071
7.2600 4.8081 0.4012
7.2800 4.8214 0.4093
7.3000 4.8348 0.4027
7.3200 4.8481 0.4097
7.3400 4.8614 0.4071
7.3600 4.8748 0.4094
7.3800 4.8881 0.4093
7.4000 4.9015 0.4101
7.4200 4.9148 0.4125
7.4400 4.9281 0.4108
7.4600 4.9415 0.4158
7.4800 4.9549 0.4121
7.5000 4.9682 0.4178
7.5200 4.9815 0.4134
7.5400 4.9948 0.4193
7.5600 5.0081 0.4154
7.5800 5.0215 0.4212
7.6000 5.0348 0.4179
7.6200 5.0481 0.4217
7.6400 5.0614 0.4202
7.6600 5.0748 0.4232
7.6800 5.0881 0.4218
7.7000 5.1014 0.4246
7.7200 5.1148 0.4244
7.7400 5.1282 0.4250
7.7600 5.1415 0.4269
7.7800 5.1549 0.4265
7.8000 5.1682 0.4289
7.8200 5.1815 0.4277
7.8400 5.1949 0.4310
7.8600 5.2082 0.4281
7.8800 5.2215 0.4342
7.9000 5.2347 0.4294
7.9200 5.2481 0.4355
7.9400 5.2614 0.4310
7.9600 5.2747 0.4371
7.9800 5.2881 0.4333
8.0000 5.3014 0.4382
8.0200 5.3148 0.4358
8.0400 5.3281 0.4380
8.0600 5.3414 0.4390
8.0800 5.3548 0.4391
8.1000 5.3682 0.4406
8.1200 5.3815 0.4401
8.1400 5.3948 0.4431
8.1600 5.4081 0.4405
8.1800 5.4215 0.4456
8.2000 5.4349 0.4420
8.2200 5.4482 0.4466
8.2400 5.4614 0.4436
8.2600 5.4747 0.4485
8.2800 5.4881 0.4455
8.3000 5.5014 0.4499
8.3200 5.5147 0.4474
8.3400 5.5280 0.4500
8.3600 5.5414 0.4505
8.3800 5.5547 0.4511
8.4000 5.5681 0.4525
8.4200 5.5814 0.4528
8.4400 5.5948 0.4543
8.4600 5.6081 0.4535
8.4800 5.6215 0.4562
8.5000 5.6348 0.4549
8.5200 5.6481 0.4577
8.5400 5.6615 0.4560
8.5600 5.6748 0.4593
8.5800 5.6882 0.4572
8.6000 5.7015 0.4612
8.6200 5.7148 0.4593
8.6400 5.7282 0.4617
8.6600 5.7415 0.4610
8.6800 5.7548 0.4638
8.7000 5.7681 0.4623
8.7200 5.7814 0.4651
8.7400 5.7947 0.4642
8.7600 5.8081 0.4656
8.7800 5.8214 0.4665
8.8000 5.8347 0.4675
8.8200 5.8481 0.4679
8.8400 5.8615 0.4684
8.8600 5.8749 0.4708
8.8800 5.8882 0.4685
8.9000 5.9015 0.4737
8.9200 5.9149 0.4704
8.9400 5.9282 0.4741
8.9600 5.9415 0.4724
8.9800 5.9548 0.4758
9.0000 5.9681 0.4744
9.0200 5.9815 0.4761
9.0400 5.9948 0.4768
9.0600 6.0080 0.4777
9.0800 6.0214 0.4788
9.1000 6.0347 0.4781
9.1200 6.0481 0.4801
9.1400 6.0614 0.4791
9.1600 6.0748 0.4836
9.1800 6.0881 0.4793
9.2000 6.1015 0.4852
9.2200 6.1148 0.4819
9.2400 6.1281 0.4855
9.2600 6.1415 0.4840
9.2800 6.1549 0.4872
9.3000 6.1682 0.4853
9.3200 6.1815 0.4885
9.3400 6.1948 0.4879
9.3600 6.2081 0.4892
9.3800 6.2215 0.4888
9.4000 6.2348 0.4907
9.4200 6.2481 0.4902
9.4400 6.2614 0.4924
9.4600 6.2747 0.4924
9.4800 6.2881 0.4922
9.5000 6.3014 0.4946
9.5200 6.3148 0.4942
9.5400 6.3281 0.4952
9.5600 6.3415 0.4959
9.5800 6.3549 0.4976
9.6000 6.3682 0.4959
9.6200 6.3815 0.4997
9.6400 6.3949 0.4983
9.6600 6.4082 0.5002
9.6800 6.4215 0.5006
9.7000 6.4348 0.5022
9.7200 6.4481 0.5016
9.7400 6.4614 0.5033
9.7600 6.4748 0.5040
9.7800 6.4880 0.5026
9.8000 6.5014 0.5074
9.8200 6.5147 0.5044
9.8400 6.5281 0.5082
9.8600 6.5414 0.5052
9.8800 6.5548 0.5106
9.9000 6.5681 0.5053
9.9200 6.5815 0.5112
9.9400 6.5949 0.5079
9.9600 6.6082 0.5115
9.9800 6.6215 0.5096
10.0000 6.6349 0.5128
10.0200 6.6482 0.5106
10.0400 6.6615 0.5137
10.0600 6.6748 0.5136
10.0800 6.6881 0.5144
10.1000 6.7015 0.5151
10.1200 6.7148 0.5156
10.1400 6.7281 0.5171
10.1600 6.7414 0.5161
10.1800 6.7548 0.5202
10.2000 6.7681 0.5168
10.2200 6.7814 0.5206
10.2400 6.7948 0.5190
10.2600 6.8081 0.5215
10.2800 6.8215 0.5209
10.3000 6.8348 0.5232
10.3200 6.8481 0.5221
10.3400 6.8614 0.5248
10.3600 6.8748 0.5244
10.3800 6.8882 0.5251
10.4000 6.9015 0.5254
10.4200 6.9148 0.5277
10.4400 6.9281 0.5268
10.4600 6.9414 0.5281
10.4800 6.9548 0.5292
10.5000 6.9681 0.5289
10.5200 6.9814 0.5309
10.5400 6.9947 0.5301
10.5600 7.0081 0.5326
10.5800 7.0214 0.5312
10.6000 7.0348 0.5345
10.6200 7.0481 0.5319
10.6400 7.0615 0.5357
10.6600 7.0748 0.5337
10.6800 7.0881 0.5367
10.7000 7.1015 0.5351
10.7200 7.1148 0.5381
10.7400 7.1282 0.5369
10.7600 7.1415 0.5387
10.7800 7.1548 0.5404
10.8000 7.1681 0.5385
10.8200 7.1815 0.5416
10.8400 7.1948 0.5402
10.8600 7.2081 0.5438
10.8800 7.2214 0.5406
10.9000 7.2347 0.5455
10.9200 7.2481 0.5417
10.9400 7.2614 0.5456
10.9600 7.2747 0.5446
10.9800 7.2881 0.5466
11.0000 7.3015 0.5454
11.0200 7.3149 0.5476
11.0400 7.3282 0.5470
11.0600 7.3415 0.5488
11.0800 7.3549 0.5499
11.1000 7.3682 0.5487
11.1200 7.3815 0.5516
11.1400 7.3948 0.5498
11.1600 7.4081 0.5535
11.1800 7.4214 0.5506
11.2000 7.4348 0.5556
11.2200 7.4481 0.5518
11.2400 7.4614 0.5563
11.2600 7.4747 0.5541
11.2800 7.4881 0.5568
11.3000 7.5015 0.5557
11.3200 7.5148 0.5583
11.3400 7.5282 0.5567
11.3600 7.5415 0.5591
11.3800 7.5549 0.5589
11.4000 7.5682 0.5594
11.4200 7.5815 0.5608
11.4400 7.5948 0.5602
11.4600 7.6082 0.5628
11.4800 7.6215 0.5603
11.5000 7.6348 0.5656
11.5200 7.6481 0.5617
11.5400 7.6615 0.5661
11.5600 7.6748 0.5639
11.5800 7.6881 0.5668
11.6000 7.7014 0.5646
11.6200 7.7147 0.5684
11.6400 7.7281 0.5658
11.6600 7.7414 0.5687
11.6800 7.7548 0.5684
11.7000 7.7681 0.5699
11.7200 7.7815 0.5700
11.7400 7.7948 0.5701
11.7600 7.8081 0.5725
11.7800 7.8215 0.5698
11.8000 7.8348 0.5752
11.8200 7.8482 0.5702
11.8400 7.8615 0.5762
11.8600 7.8748 0.5724
11.8800 7.8881 0.5773
11.9000 7.9014 0.5735
11.9200 7.9148 0.5792
11.9400 7.9281 0.5754
11.9600 7.9414 0.5792
11.9800 7.9547 0.5775
12.0000 7.9681 0.5800
12.0200 7.9815 0.5791
12.0400 7.9948 0.5805
12.0600 8.0081 0.5813
12.0800 8.0215 0.5798
12.1000 8.0348 0.5836
12.1200 8.0481 0.5810
12.1400 8.0615 0.5849
12.1600 8.0748 0.5827
12.1800 8.0882 0.5861
12.2000 8.1015 0.5839
12.2200 8.1148 0.5881
12.2400 8.1281 0.5850
12.2600 8.1415 0.5883
12.2800 8.1548 0.5871
12.3000 8.1681 0.5898
12.3200 8.1814 0.5884
12.3400 8.1947 0.5909
12.3600 8.2081 0.5906
12.3800 8.2214 0.5905
12.4000 8.2348 0.5931
12.4200 8.2481 0.5917
12.4400 8.2615 0.5938
12.4600 8.2748 0.5924
12.4800 8.2882 0.5960
12.5000 8.3015 0.5931
12.5200 8.3148 0.5975
12.5400 8.3282 0.5955
12.5600 8.3415 0.5972
12.5800 8.3548 0.5975
12.6000 8.3681 0.5992
12.6200 8.3815 0.5976
12.6400 8.3948 0.5994
12.6600 8.4081 0.5995
12.6800 8.4214 0.6002
12.7000 8.4347 0.6016
12.7200 8.4481 0.6014
12.7400 8.4614 0.6024
12.7600 8.4747 0.6020
12.7800 8.4881 0.6055
12.8000 8.5015 0.6023
12.8200 8.5149 0.6071
12.8400 8.5282 0.6037
12.8600 8.5415 0.6077
12.8800 8.5548 0.6052
12.9000 8.5682 0.6090
12.9200 8.5815 0.6056
12.9400 8.5948 0.6110
12.9600 8.6081 0.6073
12.9800 8.6215 0.6109
13.0000 8.6348 0.6096
13.0200 8.6481 0.6124
13.0400 8.6614 0.6105
13.0600 8.6747 0.6129
13.0800 8.6881 0.6135
13.1000 8.7014 0.6124
13.1200 8.7147 0.6150
13.1400 8.7281 0.6136
13.1600 8.7415 0.6161
13.1800 8.7549 0.6152
13.2000 8.7682 0.6178
13.2200 8.7815 0.6158
13.2400 8.7948 0.6186
13.2600 8.8082 0.6173
13.2800 8.8215 0.6188
13.3000 8.8348 0.6189
13.3200 8.8481 0.6206
13.3400 8.8614 0.6199
13.3600 8.8748 0.6212
13.3800 8.8881 0.6221
13.4000 8.9014 0.6212
13.4200 8.9147 0.6247
13.4400 8.9281 0.6223
13.4600 8.9415 0.6249
13.4800 8.9548 0.6228
13.5000 8.9681 0.6267
13.5200 8.9815 0.6241
13.5400 8.9948 0.6274
13.5600 9.0081 0.6265
13.5800 9.0215 0.6286
13.6000 9.0348 0.6270
13.6200 9.0482 0.6306
13.6400 9.0615 0.6274
13.6600 9.0748 0.6323
13.6800 9.0881 0.6300
13.7000 9.1015 0.6311
13.7200 9.1148 0.6317
13.7400 9.1281 0.6325
13.7600 9.1414 0.6332
13.7800 9.1547 0.6335
13.8000 9.1681 0.6357
13.8200 9.1814 0.6330
13.8400 9.1947 0.6371
13.8600 9.2081 0.6347
13.8800 9.2214 0.6386
13.9000 9.2348 0.6350
13.9200 9.2482 0.6406
13.9400 9.2615 0.6357
13.9600 9.2748 0.6412
13.9800 9.2882 0.6378
14.0000 9.3015 0.6415
14.0200 9.3148 0.6402
14.0400 9.3281 0.6423
14.0600 9.3415 0.6420
14.0800 9.3548 0.6422
14.1000 9.3681 0.6444
14.1200 9.3814 0.6429
14.1400 9.3947 0.6460
14.1600 9.4081 0.6443
14.1800 9.4214 0.6454
14.2000 9.4347 0.6449
14.2200 9.4481 0.6483
14.2400 9.4615 0.6455
14.2600 9.4748 0.6491
14.2800 9.4882 0.6481
14.3000 9.5015 0.6486
14.3200 9.5148 0.6501
14.3400 9.5282 0.6505
14.3600 9.5415 0.6514
14.3800 9.5548 0.6513
14.4000 9.5681 0.6530
14.4200 9.5815 0.6518
14.4400 9.5948 0.6540
14.4600 9.6081 0.6538
14.4800 9.6214 0.6549
14.5000 9.6347 0.6544
14.5200 9.6481 0.6565
14.5400 9.6614 0.6545
14.5600 9.6748 0.6582
14.5800 9.6881 0.6563
14.6000 9.7014 0.6584
14.6200 9.7148 0.6571
14.6400 9.7281 0.6601
14.6600 9.7415 0.6582
14.6800 9.7548 0.6604
14.7000 9.7682 0.6611
14.7200 9.7816 0.6603
14.7400 9.7948 0.6619
14.7600 9.8081 0.6617
14.7800 9.8215 0.6635
14.8000 9.8348 0.6620
14.8200 9.8481 0.6666
14.8400 9.8614 0.6621
14.8600 9.8747 0.6668
14.8800 9.8881 0.6647
14.9000 9.9014 0.6675
14.9200 9.9147 0.6656
14.9400 9.9281 0.6693
14.9600 9.9415 0.6670
14.9800 9.9549 0.6685
15.0000 9.9682 0.6698
15.0200 9.9815 0.6685
15.0400 9.9948 0.6716
15.0600 10.0082 0.6693
15.0800 10.0215 0.6728
15.1000 10.0348 0.6700
15.1200 10.0481 0.6750
15.1400 10.0614 0.6712
15.1600 10.0747 0.6752
15.1800 10.0881 0.6740
15.2000 10.1014 0.6760
15.2200 10.1147 0.6747
15.2400 10.1281 0.6771
15.2600 10.1414 0.6761
15.2800 10.1548 0.6772
15.3000 10.1681 0.6783
15.3200 10.1815 0.6774
15.3400 10.1949 0.6790
15.3600 10.2082 0.6791
15.3800 10.2215 0.6807
15.4000 10.2348 0.6801
15.4200 10.2482 0.6824
15.4400 10.2615 0.6798
15.4600 10.2748 0.6833
15.4800 10.2881 0.6823
15.5000 10.3014 0.6847
15.5200 10.3148 0.6820
15.5400 10.3281 0.6873
15.5600 10.3414 0.6835
15.5800 10.3547 0.6876
15.6000 10.3681 0.6853
15.6200 10.3814 0.6876
15.6400 10.3948 0.6859
15.6600 10.4081 0.6885
15.6800 10.4215 0.6886
15.7000 10.4348 0.6886
15.7200 10.4482 0.6908
15.7400 10.4615 0.6883
15.7600 10.4748 0.6920
15.7800 10.4881 0.6895
15.8000 10.5015 0.6931
15.8200 10.5148 0.6909
15.8400 10.5282 0.6950
15.8600 10.5415 0.6909
15.8800 10.5548 0.6952
15.9000 10.5682 0.6931
15.9200 10.5814 0.6957
15.9400 10.5947 0.6944
15.9600 10.6080 0.6969
15.9800 10.6214 0.6961
16.0000 10.6347 0.6959
16.0200 10.6481 0.6987
16.0400 10.6614 0.6972
16.0600 10.6748 0.6992
16.0800 10.6882 0.6982
16.1000 10.7015 0.7003
16.1200 10.7148 0.6998
16.1400 10.7282 0.7024
16.1600 10.7415 0.7012
16.1800 10.7549 0.7027
16.2000 10.7681 0.7029
16.2200 10.7814 0.7041
16.2400 10.7948 0.7035
16.2600 10.8081 0.7048
16.2800 10.8214 0.7051
16.3000 10.8347 0.7046
16.3200 10.8480 0.7064
16.3400 10.8614 0.7064
16.3600 10.8747 0.7066
16.3800 10.8881 0.7081
16.4000 10.9014 0.7076
16.4200 10.9148 0.7080
16.4400 10.9282 0.7100
16.4600 10.9415 0.7093
16.4800 10.9548 0.7106
16.5000 10.9682 0.7103
16.5200 10.9815 0.7129
16.5400 10.9948 0.7100
16.5600 11.0081 0.7148
16.5800 11.0214 0.7115
16.6000 11.0348 0.7140
16.6200 11.0481 0.7131
16.6400 11.0614 0.7158
16.6600 11.0747 0.7141
16.6800 11.0881 0.7168
16.7000 11.1014 0.7151
16.7200 11.1148 0.7160
16.7400 11.1281 0.7176
16.7600 11.1414 0.7174
16.7800 11.1548 0.7185
16.8000 11.1682 0.7176
16.8200 11.1815 0.7211
16.8400 11.1948 0.7178
16.8600 11.2082 0.7220
16.8800 11.2215 0.7196
16.9000 11.2348 0.7227
16.9200 11.2481 0.7222
16.9400 11.2615 0.7228
16.9600 11.2748 0.7233
16.9800 11.2881 0.7236
17.0000 11.3014 0.7252
17.0200 11.3147 0.7235
17.0400 11.3280 0.7273
17.0600 11.3414 0.7246
17.0800 11.3548 0.7271
17.1000 11.3681 0.7263
17.1200 11.3815 0.7298
17.1400 11.3948 0.7263
17.1600 11.4082 0.7304
17.1800 11.4215 0.7286
17.2000 11.4348 0.7310
17.2200 11.4482 0.7294
17.2400 11.4615 0.7319
17.2600 11.4748 0.7289
17.2800 11.4881 0.7330
17.3000 11.5014 0.7307
17.3200 11.5148 0.7333
17.3400 11.5281 0.7321
17.3600 11.5414 0.7348
17.3800 11.5548 0.7328
17.4000 11.5681 0.7354
17.4200 11.5815 0.7354
17.4400 11.5948 0.7348
17.4600 11.6081 0.7372
17.4800 11.6214 0.7360
17.5000 11.6348 0.7383
17.5200 11.6482 0.7363
17.5400 11.6615 0.7410
17.5600 11.6748 0.7365
17.5800 11.6881 0.7414
17.6000 11.7015 0.7383
17.6200 11.7148 0.7409
17.6400 11.7281 0.7399
17.6600 11.7414 0.7423
17.6800 11.7548 0.7402
17.7000 11.7681 0.7428
17.7200 11.7814 0.7428
17.7400 11.7947 0.7420
17.7600 11.8081 0.7447
17.7800 11.8214 0.7427
17.8000 11.8348 0.7450
17.8200 11.8481 0.7435
17.8400 11.8614 0.7480
17.8600 11.8748 0.7437
17.8800 11.8882 0.7487
17.9000 11.9015 0.7458
17.9200 11.9148 0.7491
17.9400 11.9281 0.7479
17.9600 11.9415 0.7498
17.9800 11.9548 0.7487
18.0000 11.9681 0.7513
18.0200 11.9814 0.7497
18.0400 11.9948 0.7515
18.0600 12.0081 0.7504
18.0800 12.0214 0.7534
18.1000 12.0347 0.7514
18.1200 12.0481 0.7539
18.1400 12.0614 0.7541
18.1600 12.0747 0.7532
18.1800 12.0881 0.7558
18.2000 12.1014 0.7548
18.2200 12.1148 0.7566
18.2400 12.1282 0.7554
18.2600 12.1416 0.7586
18.2800 12.1549 0.7558
18.3000 12.1682 0.7598
18.3200 12.1816 0.7572
18.3400 12.1949 0.7598
18.3600 12.2082 0.7583
18.3800 12.2214 0.7621
18.4000 12.2348 0.7598
18.4200 12.2481 0.7615
18.4400 12.2614 0.7630
18.4600 12.2747 0.7609
18.4800 12.2881 0.7649
18.5000 12.3014 0.7626
18.5200 12.3148 0.7654
18.5400 12.3281 0.7634
18.5600 12.3415 0.7673
18.5800 12.3548 0.7637
18.6000 12.3682 0.7674
18.6200 12.3815 0.7660
18.6400 12.3948 0.7675
18.6600 12.4081 0.7671
18.6800 12.4215 0.7684
18.7000 12.4348 0.7681
18.7200 12.4481 0.7684
18.7400 12.4614 0.7716
18.7600 12.4748 0.7685
18.7800 12.4881 0.7719
18.8000 12.5014 0.7698
18.8200 12.5147 0.7725
18.8400 12.5281 0.7706
18.8600 12.5414 0.7745
18.8800 12.5548 0.7715
18.9000 12.5681 0.7748
18.9200 12.5814 0.7737
18.9400 12.5948 0.7743
18.9600 12.6082 0.7748
18.9800 12.6215 0.7760
19.0000 12.6348 0.7753
19.0200 12.6481 0.7764
19.0400 12.6615 0.7775
19.0600 12.6748 0.7765
19.0800 12.6881 0.7786
19.1000 12.7014 0.7784
19.1200 12.7148 0.7797
19.1400 12.7281 0.7783
19.1600 12.7414 0.7815
19.1800 12.7547 0.7790
19.2000 12.7680 0.7827
19.2200 12.7814 0.7810
19.2400 12.7948 0.7835
19.2600 12.8081 0.7811
19.2800 12.8214 0.7860
19.3000 12.8348 0.7817
19.3200 12.8482 0.7859
19.3400 12.8615 0.7848
19.3600 12.8748 0.7859
19.3800 12.8881 0.7860
19.4000 12.9015 0.7873
19.4200 12.9148 0.7876
19.4400 12.9281 0.7868
19.4600 12.9414 0.7911
19.4800 12.9548 0.7867
19.5000 12.9681 0.7918
19.5200 12.9815 0.7885
19.5400 12.9948 0.7924
19.5600 13.0081 0.7894
19.5800 13.0214 0.7943
19.6000 13.0348 0.7900
19.6200 13.0481 0.7938
19.6400 13.0614 0.7918
19.6600 13.0748 0.7938
19.6800 13.0882 0.7927
19.7000 13.1015 0.7940
19.7200 13.1148 0.7957
19.7400 13.1281 0.7937
19.7600 13.1415 0.7980
19.7800 13.1549 0.7942
19.8000 13.1682 0.7992
19.8200 13.1815 0.7966
19.8400 13.1948 0.7998
19.8600 13.2081 0.7975
19.8800 13.2215 0.8017
19.9000 13.2348 0.7986
19.9200 13.2481 0.8019
19.9400 13.2614 0.8007
19.9600 13.2747 0.8022
19.9800 13.2880 0.8012
20.0000 13.3014 0.8038
20.0200 13.3148 0.8027
20.0400 13.3282 0.8038
20.0600 13.3415 0.8041
20.0800 13.3548 0.8045
20.1000 13.3682 0.8053
20.1200 13.3815 0.8049
20.1400 13.3949 0.8064
20.1600 13.4082 0.8042
20.1800 13.4215 0.8079
20.2000 13.4348 0.8061
20.2200 13.4481 0.8085
20.2400 13.4615 0.8061
20.2600 13.4747 0.8099
20.2800 13.4880 0.8061
20.3000 13.5014 0.8112
20.3200 13.5147 0.8074
20.3400 13.5281 0.8109
20.3600 13.5414 0.8096
20.3800 13.5548 0.8109
20.4000 13.5681 0.8115
20.4200 13.5815 0.8118
20.4400 13.5948 0.8139
20.4600 13.6081 0.8111
20.4800 13.6215 0.8155
20.5000 13.6349 0.8121
20.5200 13.6482 0.8161
20.5400 13.6614 0.8136
20.5600 13.6747 0.8168
20.5800 13.6881 0.8139
20.6000 13.7014 0.8188
20.6200 13.7147 0.8156
20.6400 13.7281 0.8188
20.6600 13.7414 0.8184
20.6800 13.7548 0.8191
20.7000 13.7681 0.8195
20.7200 13.7815 0.8194
20.7400 13.7948 0.8224
20.7600 13.8082 0.8192
20.7800 13.8215 0.8236
20.8000 13.8348 0.8208
20.8200 13.8481 0.8247
20.8400 13.8615 0.8224
20.8600 13.8748 0.8255
20.8800 13.8882 0.8228
20.9000 13.9015 0.8275
20.9200 13.9148 0.8234
20.9400 13.9282 0.8280
20.9600 13.9415 0.8256
20.9800 13.9548 0.8296
21.0000 13.9681 0.8262
21.0200 13.9814 0.8305
21.0400 13.9948 0.8280
21.0600 14.0081 0.8303
21.0800 14.0214 0.8308
21.1000 14.0348 0.8309
21.1200 14.0481 0.8312
21.1400 14.0615 0.8316
21.1600 14.0748 0.8334
21.1800 14.0882 0.8308
21.2000 14.1015 0.8353
21.2200 14.1149 0.8317
21.2400 14.1282 0.8354
21.2600 14.1415 0.8317
21.2800 14.1548 0.8369
21.3000 14.1681 0.8324
21.3200 14.1815 0.8373
21.3400 14.1948 0.8349
21.3600 14.2081 0.8369
21.3800 14.2214 0.8375
21.4000 14.2347 0.8370
21.4200 14.2481 0.8382
21.4400 14.2614 0.8379
21.4600 14.2748 0.8408
21.4800 14.2881 0.8375
21.5000 14.3015 0.8422
21.5200 14.3148 0.8388
21.5400 14.3282 0.8428
21.5600 14.3415 0.8405
21.5800 14.3549 0.8438
21.6000 14.3682 0.8410
21.6200 14.3815 0.8453
21.6400 14.3948 0.8434
21.6600 14.4081 0.8448
21.6800 14.4215 0.8448
21.7000 14.4348 0.8460
21.7200 14.4481 0.8456
21.7400 14.4614 0.8469
21.7600 14.4748 0.8470
21.7800 14.4881 0.8471
21.8000 14.5014 0.8489
21.8200 14.5147 0.8484
21.8400 14.5281 0.8501
21.8600 14.5415 0.8486
21.8800 14.5548 0.8520
21.9000 14.5682 0.8492
21.9200 14.5815 0.8533
21.9400 14.5949 0.8498
21.9600 14.6082 0.8541
21.9800 14.6215 0.8509
22.0000 14.6348 0.8554
22.0200 14.6481 0.8520
22.0400 14.6615 0.8558
22.0600 14.6748 0.8542
22.0800 14.6881 0.8556
22.1000 14.7014 0.8563
22.1200 14.7148 0.8559
22.1400 14.7281 0.8580
22.1600 14.7414 0.8562
22.1800 14.7548 0.8601
22.2000 14.7682 0.8560
22.2200 14.7815 0.8609
22.2400 14.7949 0.8570
22.2600 14.8082 0.8619
22.2800 14.8215 0.8580
22.3000 14.8349 0.8624
22.3200 14.8482 0.8591
22.3400 14.8615 0.8628
22.3600 14.8748 0.8618
22.3800 14.8881 0.8631
22.4000 14.9014 0.8636
22.4200 14.9148 0.8636
22.4400 14.9281 0.8648
22.4600 14.9414 0.8645
22.4800 14.9547 0.8666
22.5000 14.9681 0.8650
22.5200 14.9814 0.8675
22.5400 14.9948 0.8661
22.5600 15.0082 0.8687
22.5800 15.0215 0.8667
22.6000 15.0348 0.8710
22.6200 15.0481 0.8675
22.6400 15.0615 0.8711
22.6600 15.0749 0.8696
22.6800 15.0882 0.8711
22.7000 15.1015 0.8713
22.7200 15.1148 0.8730
22.7400 15.1281 0.8719
22.7600 15.1415 0.8734
22.7800 15.1548 0.8734
22.8000 15.1681 0.8741
22.8200 15.1814 0.8756
22.8400 15.1948 0.8748
22.8600 15.2081 0.8769
22.8800 15.2214 0.8748
22.9000 15.2348 0.8798
22.9200 15.2481 0.8748
22.9400 15.2615 0.8805
22.9600 15.2748 0.8766
22.9800 15.2881 0.8805
23.0000 15.3014 0.8783
23.0200 15.3148 0.8808
23.0400 15.3282 0.8799
23.0600 15.3415 0.8819
23.0800 15.3548 0.8818
23.1000 15.3682 0.8821
23.1200 15.3815 0.8833
23.1400 15.3948 0.8828
23.1600 15.4081 0.8846
23.1800 15.4213 0.8825
23.2000 15.4347 0.8866
23.2200 15.4480 0.8816
23.2400 15.4614 0.8855
23.2600 15.4747 0.8817
23.2800 15.4881 0.8844
23.3000 15.5015 0.8838
23.3200 15.5149 0.8859
23.3400 15.5282 0.8857
23.3600 15.5415 0.8872
23.3800 15.5549 0.8886
23.4000 15.5682 0.8867
23.4200 15.5815 0.8904
23.4400 15.5948 0.8885
23.4600 15.6081 0.8916
23.4800 15.6214 0.8883
23.5000 15.6348 0.8937
23.5200 15.6481 0.8894
23.5400 15.6614 0.8947
23.5600 15.6747 0.8909
23.5800 15.6881 0.8955
23.6000 15.7014 0.8922
23.6200 15.7148 0.8968
23.6400 15.7281 0.8938
23.6600 15.7415 0.8965
23.6800 15.7549 0.8962
23.7000 15.7682 0.8976
23.7200 15.7815 0.8966
23.7400 15.7949 0.8988
23.7600 15.8082 0.8982
23.7800 15.8215 0.8986
23.8000 15.8348 0.9002
23.8200 15.8481 0.8986
23.8400 15.8615 0.9012
23.8600 15.8748 0.8984
23.8800 15.8881 0.9020
23.9000 15.9014 0.8988
23.9200 15.9147 0.9022
23.9400 15.9281 0.8994
23.9600 15.9414 0.9024
23.9800 15.9547 0.9009
24.0000 15.9681 0.9034
24.0200 15.9815 0.9021
24.0400 15.9948 0.9040
24.0600 16.0082 0.9043
24.0800 16.0215 0.9049
24.1000 16.0348 0.9066
24.1200 16.0482 0.9054
24.1400 16.0615 0.9081
24.1600 16.0748 0.9067
24.1800 16.0881 0.9099
24.2000 16.1015 0.9072
24.2200 16.1148 0.9118
24.2400 16.1281 0.9085
24.2600 16.1414 0.9122
24.2800 16.1547 0.9103
24.3000 16.1681 0.9119
24.3200 16.1814 0.9113
24.3400 16.1948 0.9126
24.3600 16.2081 0.9124
24.3800 16.2215 0.9132
24.4000 16.2349 0.9146
24.4200 16.2482 0.9139
24.4400 16.2615 0.9159
24.4600 16.2748 0.9153
24.4800 16.2882 0.9179
24.5000 16.3015 0.9154
24.5200 16.3148 0.9196
24.5400 16.3281 0.9165
24.5600 16.3415 0.9200
24.5800 16.3548 0.9180
24.6000 16.3681 0.9214
24.6200 16.3814 0.9187
24.6400 16.3948 0.9218
24.6600 16.4081 0.9202
24.6800 16.4214 0.9218
24.7000 16.4347 0.9225
24.7200 16.4481 0.9233
24.7400 16.4615 0.9229
24.7600 16.4749 0.9241
24.7800 16.4881 0.9249
24.8000 16.5014 0.9243
24.8200 16.5148 0.9271
24.8400 16.5282 0.9252
24.8600 16.5415 0.9277
24.8800 16.5548 0.9264
24.9000 16.5681 0.9291
24.9200 16.5815 0.9278
24.9400 16.5948 0.9307
24.9600 16.6081 0.9290
24.9800 16.6214 0.9302
25.0000 16.6347 0.9305
25.0200 16.6481 0.9317
25.0400 16.6614 0.9307
25.0600 16.6748 0.9328
25.0800 16.6881 0.9326
25.1000 16.7015 0.9326
25.1200 16.7148 0.9345
25.1400 16.7281 0.9333
25.1600 16.7415 0.9365
25.1800 16.7548 0.9343
25.2000 16.7682 0.9372
25.2200 16.7815 0.9343
25.2400 16.7948 0.9393
25.2600 16.8081 0.9359
25.2800 16.8214 0.9383
25.3000 16.8348 0.9370
25.3200 16.8481 0.9391
25.3400 16.8614 0.9375
25.3600 16.8747 0.9398
25.3800 16.8881 0.9386
25.4000 16.9014 0.9391
25.4200 16.9147 0.9408
25.4400 16.9281 0.9396
25.4600 16.9415 0.9425
25.4800 16.9549 0.9404
25.5000 16.9682 0.9441
25.5200 16.9815 0.9419
25.5400 16.9948 0.9454
25.5600 17.0082 0.9436
25.5800 17.0215 0.9462
25.6000 17.0348 0.9457
25.6200 17.0481 0.9473
25.6400 17.0614 0.9466
25.6600 17.0748 0.9484
25.6800 17.0881 0.9479
25.7000 17.1014 0.9489
25.7200 17.1147 0.9499
25.7400 17.1281 0.9500
25.7600 17.1415 0.9505
25.7800 17.1548 0.9504
25.8000 17.1681 0.9536
25.8200 17.1815 0.9501
25.8400 17.1949 0.9540
25.8600 17.2082 0.9521
25.8800 17.2215 0.9547
25.9000 17.2348 0.9526
25.9200 17.2482 0.9560
25.9400 17.2615 0.9531
25.9600 17.2748 0.9564
25.9800 17.2881 0.9548
26.0000 17.3014 0.9565
26.0200 17.3148 0.9556
26.0400 17.3281 0.9572
26.0600 17.3414 0.9577
26.0800 17.3548 0.9577
26.1000 17.3681 0.9601
26.1200 17.3814 0.9575
26.1400 17.3948 0.9621
26.1600 17.4081 0.9590
26.1800 17.4215 0.9625
26.2000 17.4348 0.9589
26.2200 17.4482 0.9637
26.2400 17.4615 0.9598
26.2600 17.4748 0.9641
26.2800 17.4882 0.9612
26.3000 17.5015 0.9630
26.3200 17.5148 0.9612
26.3400 17.5281 0.9623
26.3600 17.5414 0.9633
26.3800 17.5548 0.9628
26.4000 17.5681 0.9665
26.4200 17.5814 0.9637
26.4400 17.5947 0.9682
26.4600 17.6081 0.9642
26.4800 17.6215 0.9693
26.5000 17.6348 0.9655
26.5200 17.6481 0.9710
26.5400 17.6615 0.9671
26.5600 17.6749 0.9711
26.5800 17.6882 0.9696
26.6000 17.7015 0.9716
26.6200 17.7148 0.9711
26.6400 17.7282 0.9732
26.6600 17.7415 0.9723
26.6800 17.7548 0.9736
26.7000 17.7681 0.9742
26.7200 17.7814 0.9749
26.7400 17.7948 0.9749
26.7600 17.8081 0.9762
26.7800 17.8214 0.9764
26.8000 17.8348 0.9761
26.8200 17.8481 0.9775
26.8400 17.8614 0.9765
26.8600 17.8748 0.9790
26.8800 17.8881 0.9780
26.9000 17.9015 0.9803
26.9200 17.9148 0.9790
26.9400 17.9282 0.9812
26.9600 17.9415 0.9804
26.9800 17.9548 0.9820
27.0000 17.9682 0.9826
27.0200 17.9815 0.9823
27.0400 17.9948 0.9836
27.0600 18.0081 0.9839
27.0800 18.0214 0.9855
27.1000 18.0348 0.9834
27.1200 18.0481 0.9875
27.1400 18.0614 0.9839
27.1600 18.0747 0.9885
27.1800 18.0880 0.9855
27.2000 18.1014 0.9892
27.2200 18.1147 0.9869
27.2400 18.1281 0.9904
27.2600 18.1415 0.9880
27.2800 18.1549 0.9915
27.3000 18.1682 0.9897
27.3200 18.1815 0.9922
27.3400 18.1948 0.9911
27.3600 18.2082 0.9928
27.3800 18.2215 0.9926
27.4000 18.2348 0.9924
27.4200 18.2481 0.9949
27.4400 18.2615 0.9938
27.4600 18.2748 0.9951
27.4800 18.2881 0.9951
27.5000 18.3014 0.9972
27.5200 18.3147 0.9962
27.5400 18.3281 0.9979
27.5600 18.3414 0.9973
27.5800 18.3547 0.9993
27.6000 18.3681 0.9991
27.6200 18.3815 1.0001
27.6400 18.3948 1.0003
27.6600 18.4082 1.0015
27.6800 18.4215 1.0008
27.7000 18.4348 1.0019
27.7200 18.4482 1.0034
27.7400 18.4615 1.0022
27.7600 18.4748 1.0042
27.7800 18.4881 1.0038
27.8000 18.5014 1.0062
27.8200 18.5148 1.0045
27.8400 18.5281 1.0080
27.8600 18.5414 1.0055
27.8800 18.5547 1.0089
27.9000 18.5681 1.0066
27.9200 18.5815 1.0101
27.9400 18.5948 1.0067
27.9600 18.6081 1.0118
27.9800 18.6215 1.0084
28.0000 18.6348 1.0115
28.0200 18.6482 1.0118
28.0400 18.6615 1.0118
28.0600 18.6748 1.0129
28.0800 18.6881 1.0130
28.1000 18.7015 1.0150
28.1200 18.7148 1.0137
28.1400 18.7281 1.0165
28.1600 18.7415 1.0143
28.1800 18.7548 1.0173
28.2000 18.7682 1.0158
28.2200 18.7814 1.0183
28.2400 18.7947 1.0167
28.2600 18.8081 1.0192
28.2800 18.8214 1.0171
28.3000 18.8347 1.0193
28.3200 18.8481 1.0189
28.3400 18.8614 1.0194
28.3600 18.8748 1.0194
28.3800 18.8882 1.0192
28.4000 18.9015 1.0214
28.4200 18.9148 1.0206
28.4400 18.9282 1.0234
28.4600 18.9415 1.0219
28.4800 18.9548 1.0243
28.5000 18.9681 1.0229
28.5200 18.9815 1.0257
28.5400 18.9948 1.0234
28.5600 19.0081 1.0258
28.5800 19.0214 1.0244
28.6000 19.0347 1.0262
28.6200 19.0481 1.0258
28.6400 19.0614 1.0266
28.6600 19.0747 1.0270
28.6800 19.0881 1.0263
28.7000 19.1015 1.0282
28.7200 19.1148 1.0266
28.7400 19.1282 1.0297
28.7600 19.1415 1.0288
28.7800 19.1548 1.0312
28.8000 19.1682 1.0301
28.8200 19.1815 1.0334
28.8400 19.1948 1.0307
28.8600 19.2081 1.0353
28.8800 19.2214 1.0328
28.9000 19.2348 1.0361
28.9200 19.2481 1.0344
28.9400 19.2614 1.0375
28.9600 19.2747 1.0356
28.9800 19.2881 1.0385
29.0000 19.3015 1.0375
29.0200 19.3148 1.0383
29.0400 19.3281 1.0395
29.0600 19.3414 1.0396
29.0800 19.3548 1.0410
29.1000 19.3681 1.0396
29.1200 19.3815 1.0433
29.1400 19.3948 1.0406
29.1600 19.4082 1.0449
29.1800 19.4215 1.0416
29.2000 19.4349 1.0455
29.2200 19.4481 1.0433
29.2400 19.4615 1.0465
29.2600 19.4748 1.0443
29.2800 19.4881 1.0471
29.3000 19.5014 1.0467
29.3200 19.5147 1.0476
29.3400 19.5281 1.0485
29.3600 19.5414 1.0480
29.3800 19.5548 1.0504
29.4000 19.5681 1.0487
29.4200 19.5815 1.0532
29.4400 19.5949 1.0495
29.4600 19.6082 1.0537
29.4800 19.6215 1.0513
29.5000 19.6348 1.0540
29.5200 19.6482 1.0526
29.5400 19.6615 1.0559
29.5600 19.6748 1.0536
29.5800 19.6881 1.0560
29.6000 19.7014 1.0549
29.6200 19.7147 1.0563
29.6400 19.7281 1.0565
29.6600 19.7414 1.0572
29.6800 19.7547 1.0579
29.7000 19.7681 1.0580
29.7200 19.7814 1.0600
29.7400 19.7948 1.0590
29.7600 19.8081 1.0613
29.7800 19.8215 1.0605
29.8000 19.8348 1.0628
29.8200 19.8482 1.0613
29.8400 19.8615 1.0645
29.8600 19.8748 1.0623
29.8800 19.8882 1.0654
29.9000 19.9015 1.0637
29.9200 19.9148 1.0663
29.9400 19.9281 1.0657
29.9600 19.9414 1.0673
29.9800 19.9548 1.0676
30.0000 19.9681 1.0669
30.0200 19.9814 1.0699
30.0400 19.9947 1.0678
30.0600 20.0081 1.0716
30.0800 20.0214 1.0692
30.1000 20.0348 1.0726
30.1200 20.0481 1.0698
30.1400 20.0614 1.0748
30.1600 20.0748 1.0709
30.1800 20.0882 1.0753
30.2000 20.1015 1.0726
30.2200 20.1148 1.0759
30.2400 20.1281 1.0739
30.2600 20.1415 1.0768
30.2800 20.1548 1.0768
30.3000 20.1681 1.0760
30.3200 20.1815 1.0793
30.3400 20.1948 1.0759
30.3600 20.2082 1.0802
30.3800 20.2215 1.0781
30.4000 20.2347 1.0816
30.4200 20.2480 1.0792
30.4400 20.2614 1.0827
30.4600 20.2747 1.0807
30.4800 20.2880 1.0834
30.5000 20.3014 1.0828
30.5200 20.3148 1.0841
30.5400 20.3282 1.0845
30.5600 20.3415 1.0851
30.5800 20.3548 1.0866
30.6000 20.3682 1.0854
30.6200 20.3815 1.0880
30.6400 20.3949 1.0853
30.6600 20.4081 1.0876
30.6800 20.4214 1.0846
30.7000 20.4348 1.0857
30.7200 20.4481 1.0822
30.7400 20.4614 1.0862
30.7600 20.4747 1.0846
30.7800 20.4880 1.0878
30.8000 20.5014 1.0871
30.8200 20.5148 1.0899
30.8400 20.5281 1.0878
30.8600 20.5415 1.0922
30.8800 20.5548 1.0898
30.9000 20.5682 1.0918
30.9200 20.5815 1.0923
30.9400 20.5948 1.0928
30.9600 20.6082 1.0932
30.9800 20.6215 1.0942
31.0000 20.6348 1.0954
31.0200 20.6481 1.0951
31.0400 20.6614 1.0978
31.0600 20.6748 1.0961
31.0800 20.6881 1.0990
31.1000 20.7014 1.0977
31.1200 20.7147 1.1001
31.1400 20.7281 1.0985
31.1600 20.7414 1.1021
31.1800 20.7548 1.1002
31.2000 20.7681 1.1022
31.2200 20.7814 1.1024
31.2400 20.7948 1.1029
31.2600 20.8082 1.1047
31.2800 20.8215 1.1035
31.3000 20.8348 1.1076
31.3200 20.8482 1.1036
31.3400 20.8615 1.1095
31.3600 20.8749 1.1053
31.3800 20.8882 1.1098
31.4000 20.9015 1.1074
31.4200 20.9148 1.1120
31.4400 20.9281 1.1082
31.4600 20.9414 1.1125
31.4800 20.9547 1.1104
31.5000 20.9680 1.1134
31.5200 20.9814 1.1121
31.5400 20.9948 1.1149
31.5600 21.0081 1.1137
31.5800 21.0214 1.1153
31.6000 21.0348 1.1155
31.6200 21.0482 1.1148
31.6400 21.0615 1.1176
31.6600 21.0748 1.1161
31.6800 21.0882 1.1186
31.7000 21.1015 1.1182
31.7200 21.1149 1.1203
31.7400 21.1282 1.1186
31.7600 21.1415 1.1220
31.7800 21.1548 1.1206
31.8000 21.1681 1.1218
31.8200 21.1815 1.1221
31.8400 21.1948 1.1233
31.8600 21.2081 1.1228
31.8800 21.2214 1.1248
31.9000 21.2348 1.1252
31.9200 21.2481 1.1245
31.9400 21.2614 1.1276
31.9600 21.2748 1.1254
31.9800 21.2882 1.1282
32.0000 21.3015 1.1262
32.0200 21.3148 1.1302
32.0400 21.3281 1.1266
32.0600 21.3415 1.1311
32.0800 21.3549 1.1273
32.1000 21.3682 1.1321
32.1200 21.3815 1.1296
32.1400 21.3948 1.1337
32.1600 21.4081 1.1307
32.1800 21.4215 1.1341
32.2000 21.4348 1.1335
32.2200 21.4481 1.1340
32.2400 21.4614 1.1365
32.2600 21.4748 1.1347
32.2800 21.4881 1.1379
32.3000 21.5014 1.1356
32.3200 21.5148 1.1401
32.3400 21.5281 1.1363
32.3600 21.5415 1.1408
32.3800 21.5548 1.1386
32.4000 21.5681 1.1401
32.4200 21.5815 1.1404
32.4400 21.5948 1.1407
32.4600 21.6081 1.1416
32.4800 21.6214 1.1427
32.5000 21.6348 1.1438
32.5200 21.6481 1.1430
32.5400 21.6615 1.1457
32.5600 21.6747 1.1439
32.5800 21.6880 1.1453
32.6000 21.7014 1.1379
32.6200 21.7147 1.1344
32.6400 21.7281 1.1302
32.6600 21.7414 1.1349
32.6800 21.7548 1.1338
32.7000 21.7682 1.1366
32.7200 21.7815 1.1366
32.7400 21.7949 1.1397
32.7600 21.8082 1.1384
32.7800 21.8216 1.1423
32.8000 21.8349 1.1411
32.8200 21.8482 1.1436
32.8400 21.8614 1.1439
32.8600 21.8747 1.1457
32.8800 21.8881 1.1459
32.9000 21.9014 1.1468
32.9200 21.9147 1.1494
32.9400 21.9281 1.1469
32.9600 21.9414 1.1522
32.9800 21.9548 1.1490
33.0000 21.9681 1.1532
33.0200 21.9815 1.1506
33.0400 21.9948 1.1554
33.0600 22.0082 1.1524
33.0800 22.0215 1.1568
33.1000 22.0348 1.1548
33.1200 22.0481 1.1578
33.1400 22.0615 1.1572
33.1600 22.0748 1.1589
33.1800 22.0881 1.1597
33.2000 22.1014 1.1588
33.2200 22.1148 1.1632
33.2400 22.1281 1.1586
33.2600 22.1415 1.1654
33.2800 22.1548 1.1611
33.3000 22.1681 1.1665
33.3200 22.1814 1.1621
33.3400 22.1948 1.1679
33.3600 22.2081 1.1646
33.3800 22.2214 1.1684
33.4000 22.2348 1.1670
33.4200 22.2482 1.1689
33.4400 22.2615 1.1684
33.4600 22.2748 1.1708
33.4800 22.2881 1.1711
33.5000 22.3015 1.1708
33.5200 22.3148 1.1736
33.5400 22.3282 1.1718
33.5600 22.3414 1.1751
33.5800 22.3548 1.1737
33.6000 22.3681 1.1767
33.6200 22.3815 1.1745
33.6400 22.3947 1.1782
33.6600 22.4080 1.1765
33.6800 22.4214 1.1791
33.7000 22.4348 1.1783
33.7200 22.4481 1.1804
33.7400 22.4614 1.1796
33.7600 22.4748 1.1827
33.7800 22.4882 1.1811
33.8000 22.5015 1.1838
33.8200 22.5148 1.1833
33.8400 22.5281 1.1848
33.8600 22.5415 1.1849
33.8800 22.5549 1.1851
33.9000 22.5682 1.1876
33.9200 22.5815 1.1854
33.9400 22.5948 1.1898
33.9600 22.6081 1.1865
33.9800 22.6215 1.1907
34.0000 22.6348 1.1881
34.0200 22.6481 1.1915
34.0400 22.6614 1.1876
34.0600 22.6748 1.1920
34.0800 22.6881 1.1891
34.1000 22.7014 1.1918
34.1200 22.7148 1.1918
34.1400 22.7282 1.1925
34.1600 22.7415 1.1932
34.1800 22.7548 1.1938
34.2000 22.7681 1.1963
34.2200 22.7815 1.1940
34.2400 22.7949 1.1986
34.2600 22.8082 1.1958
34.2800 22.8215 1.2002
34.3000 22.8348 1.1982
34.3200 22.8481 1.2010
34.3400 22.8615 1.2005
34.3600 22.8748 1.2028
34.3800 22.8881 1.2026
34.4000 22.9014 1.2029
34.4200 22.9147 1.2048
34.4400 22.9280 1.2044
34.4600 22.9414 1.2064
34.4800 22.9548 1.2059
34.5000 22.9682 1.2086
34.5200 22.9815 1.2058
34.5400 22.9948 1.2107
34.5600 23.0082 1.2080
34.5800 23.0215 1.2122
34.6000 23.0349 1.2097
34.6200 23.0482 1.2136
34.6400 23.0615 1.2117
34.6600 23.0748 1.2155
34.6800 23.0881 1.2136
34.7000 23.1015 1.2156
34.7200 23.1148 1.2161
34.7400 23.1281 1.2170
34.7600 23.1414 1.2169
34.7800 23.1547 1.2188
34.8000 23.1681 1.2200
34.8200 23.1814 1.2190
34.8400 23.1947 1.2229
34.8600 23.2081 1.2188
34.8800 23.2215 1.2249
34.9000 23.2348 1.2205
34.9200 23.2481 1.2274
34.9400 23.2615 1.2215
34.9600 23.2748 1.2282
34.9800 23.2882 1.2235
35.0000 23.3014 1.2293
35.0200 23.3148 1.2260
35.0400 23.3281 1.2304
35.0600 23.3414 1.2278
35.0800 23.3547 1.2308
35.1000 23.3681 1.2309
35.1200 23.3814 1.2307
35.1400 23.3948 1.2343
35.1600 23.4081 1.2311
35.1800 23.4215 1.2361
35.2000 23.4348 1.2336
35.2200 23.4482 1.2379
35.2400 23.4615 1.2344
35.2600 23.4748 1.2393
35.2800 23.4881 1.2366
35.3000 23.5015 1.2394
35.3200 23.5148 1.2390
35.3400 23.5282 1.2410
35.3600 23.5415 1.2405
35.3800 23.5548 1.2425
35.4000 23.5682 1.2433
35.4200 23.5815 1.2417
35.4400 23.5948 1.2459
35.4600 23.6081 1.2431
35.4800 23.6214 1.2467
35.5000 23.6348 1.2435
35.5200 23.6481 1.2484
35.5400 23.6614 1.2437
35.5600 23.6747 1.2490
35.5800 23.6881 1.2461
35.6000 23.7015 1.2489
35.6200 23.7148 1.2483
35.6400 23.7281 1.2516
35.6600 23.7415 1.2497
35.6800 23.7549 1.2535
35.7000 23.7682 1.2531
35.7200 23.7815 1.2536
35.7400 23.7948 1.2557
35.7600 23.8081 1.2557
35.7800 23.8215 1.2562
35.8000 23.8348 1.2572
35.8200 23.8481 1.2598
35.8400 23.8614 1.2574
35.8600 23.8747 1.2620
35.8800 23.8881 1.2592
35.9000 23.9014 1.2629
35.9200 23.9147 1.2614
35.9400 23.9281 1.2650
35.9600 23.9415 1.2622
35.9800 23.9548 1.2661
36.0000 23.9681 1.2654
36.0200 23.9815 1.2668
36.0400 23.9948 1.2678
36.0600 24.0082 1.2684
36.0800 24.0215 1.2699
36.1000 24.0348 1.2691
36.1200 24.0481 1.2730
36.1400 24.0615 1.2693
36.1600 24.0748 1.2756
36.1800 24.0881 1.2716
36.2000 24.1014 1.2766
36.2200 24.1148 1.2728
36.2400 24.1281 1.2782
36.2600 24.1414 1.2747
36.2800 24.1548 1.2788
36.3000 24.1681 1.2784
36.3200 24.1815 1.2785
36.3400 24.1948 1.2802
36.3600 24.2081 1.2802
36.3800 24.2215 1.2822
36.4000 24.2348 1.2814
36.4200 24.2482 1.2845
36.4400 24.2615 1.2826
36.4600 24.2748 1.2871
36.4800 24.2881 1.2844
36.5000 24.3015 1.2879
36.5200 24.3148 1.2861
36.5400 24.3281 1.2904
36.5600 24.3414 1.2875
36.5800 24.3547 1.2912
36.6000 24.3681 1.2910
36.6200 24.3814 1.2925
36.6400 24.3948 1.2931
36.6600 24.4082 1.2947
36.6800 24.4215 1.2938
36.7000 24.4349 1.2959
36.7200 24.4482 1.2965
36.7400 24.4615 1.2963
36.7600 24.4749 1.2987
36.7800 24.4882 1.2967
36.8000 24.5015 1.3003
36.8200 24.5148 1.2980
36.8400 24.5281 1.3025
36.8600 24.5414 1.2981
36.8800 24.5547 1.3037
36.9000 24.5681 1.3009
36.9200 24.5814 1.3043
36.9400 24.5947 1.3035
36.9600 24.6081 1.3062
36.9800 24.6214 1.3049
37.0000 24.6348 1.3076
37.0200 24.6482 1.3081
37.0400 24.6615 1.3079
37.0600 24.6749 1.3105
37.0800 24.6882 1.3101
37.1000 24.7015 1.3122
37.1200 24.7149 1.3105
37.1400 24.7282 1.3151
37.1600 24.7415 1.3121
37.1800 24.7548 1.3166
37.2000 24.7681 1.3150
37.2200 24.7814 1.3171
37.2400 24.7948 1.3170
37.2600 24.8081 1.3197
37.2800 24.8214 1.3196
37.3000 24.8347 1.3206
37.3200 24.8481 1.3226
37.3400 24.8614 1.3218
37.3600 24.8747 1.3249
37.3800 24.8881 1.3241
37.4000 24.9015 1.3267
37.4200 24.9148 1.3245
37.4400 24.9281 1.3301
37.4600 24.9415 1.3262
37.4800 24.9548 1.3320
37.5000 24.9682 1.3291
37.5200 24.9815 1.3322
37.5400 24.9948 1.3314
37.5600 25.0082 1.3346
37.5800 25.0215 1.3328
37.6000 25.0348 1.3356
37.6200 25.0481 1.3368
37.6400 25.0614 1.3366
37.6600 25.0747 1.3379
37.6800 25.0881 1.3397
37.7000 25.1014 1.3398
37.7200 25.1147 1.3408
37.7400 25.1281 1.3424
37.7600 25.1415 1.3417
37.7800 25.1549 1.3436
37.8000 25.1682 1.3444
37.8200 25.1815 1.3451
37.8400 25.1949 1.3458
37.8600 25.2082 1.3483
37.8800 25.2215 1.3479
37.9000 25.2348 1.3487
37.9200 25.2481 1.3501
37.9400 25.2614 1.3505
37.9600 25.2748 1.3508
37.9800 25.2881 1.3525
38.0000 25.3014 1.3530
38.0200 25.3147 1.3537
38.0400 25.3281 1.3562
38.0600 25.3414 1.3543
38.0800 25.3548 1.3588
38.1000 25.3681 1.3572
38.1200 25.3815 1.3590
38.1400 25.3949 1.3581
38.1600 25.4082 1.3615
38.1800 25.4215 1.3592
38.2000 25.4348 1.3614
38.2200 25.4482 1.3615
38.2400 25.4615 1.3619
38.2600 25.4748 1.3633
38.2800 25.4881 1.3636
38.3000 25.5014 1.3658
38.3200 25.5148 1.3641
38.3400 25.5281 1.3700
38.3600 25.5414 1.3666
38.3800 25.5547 1.3712
38.4000 25.5681 1.3690
38.4200 25.5814 1.3733
38.4400 25.5948 1.3710
38.4600 25.6081 1.3761
38.4800 25.6215 1.3738
38.5000 25.6349 1.3769
38.5200 25.6482 1.3772
38.5400 25.6615 1.3791
38.5600 25.6748 1.3798
38.5800 25.6882 1.3808
38.6000 25.7015 1.3820
38.6200 25.7148 1.3823
38.6400 25.7281 1.3849
38.6600 25.7415 1.3841
38.6800 25.7548 1.3864
38.7000 25.7681 1.3871
38.7200 25.7814 1.3892
38.7400 25.7947 1.3885
38.7600 25.8081 1.3915
38.7800 25.8214 1.3901
38.8000 25.8348 1.3928
38.8200 25.8481 1.3925
38.8400 25.8615 1.3946
38.8600 25.8749 1.3943
38.8800 25.8882 1.3965
38.9000 25.9015 1.3974
38.9200 25.9148 1.3977
38.9400 25.9282 1.3998
38.9600 25.9415 1.3992
38.9800 25.9548 1.4025
39.0000 25.9681 1.4010
39.0200 25.9815 1.4048
39.0400 25.9948 1.4018
39.0600 26.0081 1.4082
39.0800 26.0214 1.4039
39.1000 26.0348 1.4094
39.1200 26.0481 1.4066
39.1400 26.0614 1.4106
39.1600 26.0747 1.4084
39.1800 26.0881 1.4130
39.2000 26.1015 1.4115
39.2200 26.1149 1.4126
39.2400 26.1282 1.4156
39.2600 26.1414 1.4151
39.2800 26.1548 1.4175
39.3000 26.1682 1.4179
39.3200 26.1815 1.4207
39.3400 26.1948 1.4190
39.3600 26.2081 1.4237
39.3800 26.2215 1.4219
39.4000 26.2348 1.4242
39.4200 26.2481 1.4252
39.4400 26.2614 1.4272
39.4600 26.2747 1.4270
39.4800 26.2881 1.4293
39.5000 26.3014 1.4308
39.5200 26.3148 1.4299
39.5400 26.3281 1.4338
39.5600 26.3415 1.4330
39.5800 26.3548 1.4344
39.6000 26.3681 1.4357
39.6200 26.3815 1.4376
39.6400 26.3948 1.4369
39.6600 26.4082 1.4408
39.6800 26.4215 1.4387
39.7000 26.4348 1.4425
39.7200 26.4481 1.4413
39.7400 26.4615 1.4443
39.7600 26.4748 1.4417
39.7800 26.4881 1.4453
39.8000 26.5014 1.4438
39.8200 26.5147 1.4441
39.8400 26.5281 1.4445
39.8600 26.5414 1.4456
39.8800 26.5547 1.4463
39.9000 26.5681 1.4482
39.9200 26.5815 1.4501
39.9400 26.5949 1.4498
39.9600 26.6082 1.4539
39.9800 26.6215 1.4521
40.0000 26.6349 1.4567
40.0200 26.6482 1.4553
40.0400 26.6615 1.4596
40.0600 26.6747 1.4567
40.0800 26.6880 1.4623
40.1000 26.7014 1.4608
40.1200 26.7148 1.4625
40.1400 26.7281 1.4641
40.1600 26.7414 1.4660
40.1800 26.7547 1.4663
40.2000 26.7681 1.4675
40.2200 26.7815 1.4705
40.2400 26.7948 1.4692
40.2600 26.8081 1.4730
40.2800 26.8215 1.4715
40.3000 26.8349 1.4756
40.3200 26.8482 1.4747
40.3400 26.8615 1.4785
40.3600 26.8748 1.4764
40.3800 26.8882 1.4808
40.4000 26.9015 1.4803
40.4200 26.9148 1.4820
40.4400 26.9281 1.4833
40.4600 26.9414 1.4846
40.4800 26.9548 1.4864
40.5000 26.9681 1.4862
40.5200 26.9814 1.4896
40.5400 26.9947 1.4881
40.5600 27.0081 1.4925
40.5800 27.0214 1.4897
40.6000 27.0348 1.4931
40.6200 27.0481 1.4920
40.6400 27.0615 1.4953
40.6600 27.0748 1.4924
40.6800 27.0882 1.4972
40.7000 27.1015 1.4964
40.7200 27.1148 1.4983
40.7400 27.1282 1.4996
40.7600 27.1415 1.5011
40.7800 27.1548 1.5031
40.8000 27.1681 1.5026
40.8200 27.1814 1.5061
40.8400 27.1948 1.5043
40.8600 27.2081 1.5087
40.8800 27.2214 1.5072
40.9000 27.2347 1.5101
40.9200 27.2481 1.5096
40.9400 27.2614 1.5121
40.9600 27.2747 1.5123
40.9800 27.2881 1.5140
41.0000 27.3015 1.5155
41.0200 27.3149 1.5160
41.0400 27.3282 1.5177
41.0600 27.3415 1.5183
41.0800 27.3548 1.5212
41.1000 27.3682 1.5209
41.1200 27.3815 1.5250
41.1400 27.3948 1.5236
41.1600 27.4081 1.5282
41.1800 27.4214 1.5269
41.2000 27.4348 1.5304
41.2200 27.4481 1.5295
41.2400 27.4614 1.5343
41.2600 27.4747 1.5315
41.2800 27.4881 1.5365
41.3000 27.5015 1.5346
41.3200 27.5148 1.5389
41.3400 27.5281 1.5375
41.3600 27.5414 1.5407
41.3800 27.5548 1.5404
41.4000 27.5682 1.5419
41.4200 27.5815 1.5452
41.4400 27.5948 1.5438
41.4600 27.6082 1.5482
41.4800 27.6215 1.5464
41.5000 27.6349 1.5505
41.5200 27.6481 1.5495
41.5400 27.6615 1.5541
41.5600 27.6748 1.5518
41.5800 27.6881 1.5558
41.6000 27.7014 1.5558
41.6200 27.7147 1.5581
41.6400 27.7281 1.5594
41.6600 27.7414 1.5617
41.6800 27.7547 1.5623
41.7000 27.7680 1.5635
41.7200 27.7814 1.5671
41.7400 27.7948 1.5653
41.7600 27.8082 1.5702
41.7800 27.8215 1.5688
41.8000 27.8348 1.5743
41.8200 27.8482 1.5711
41.8400 27.8615 1.5769
41.8600 27.8748 1.5744
41.8800 27.8881 1.5795
41.9000 27.9014 1.5780
41.9200 27.9148 1.5812
41.9400 27.9281 1.5803
41.9600 27.9414 1.5845
41.9800 27.9547 1.5824
42.0000 27.9681 1.5856
42.0200 27.9814 1.5863
42.0400 27.9947 1.5865
42.0600 28.0081 1.5879
42.0800 28.0214 1.5881
42.1000 28.0348 1.5902
42.1200 28.0482 1.5905
42.1400 28.0615 1.5943
42.1600 28.0748 1.5939
42.1800 28.0882 1.5980
42.2000 28.1015 1.5984
42.2200 28.1148 1.6014
42.2400 28.1281 1.6008
42.2600 28.1414 1.6059
42.2800 28.1548 1.6042
42.3000 28.1681 1.6085
42.3200 28.1814 1.6090
42.3400 28.1947 1.6113
42.3600 28.2081 1.6127
42.3800 28.2215 1.6137
42.4000 28.2348 1.6168
42.4200 28.2482 1.6162
42.4400 28.2615 1.6214
42.4600 28.2749 1.6178
42.4800 28.2882 1.6248
42.5000 28.3015 1.6219
42.5200 28.3148 1.6278
42.5400 28.3281 1.6250
42.5600 28.3415 1.6305
42.5800 28.3548 1.6289
42.6000 28.3681 1.6320
42.6200 28.3815 1.6338
42.6400 28.3948 1.6350
42.6600 28.4082 1.6369
42.6800 28.4214 1.6384
42.7000 28.4347 1.6422
42.7200 28.4481 1.6406
42.7400 28.4614 1.6471
42.7600 28.4748 1.6443
42.7800 28.4881 1.6495
42.8000 28.5014 1.6492
42.8200 28.5148 1.6532
42.8400 28.5282 1.6530
42.8600 28.5415 1.6568
42.8800 28.5548 1.6570
42.9000 28.5682 1.6591
42.9200 28.5815 1.6607
42.9400 28.5948 1.6619
42.9600 28.6081 1.6631
42.9800 28.6215 1.6641
43.0000 28.6348 1.6656
43.0200 28.6481 1.6641
43.0400 28.6614 1.6690
43.0600 28.6747 1.6671
43.0800 28.6880 1.6708
43.1000 28.7014 1.6702
43.1200 28.7147 1.6748
43.1400 28.7281 1.6730
43.1600 28.7414 1.6792
43.1800 28.7548 1.6783
43.2000 28.7682 1.6819
43.2200 28.7815 1.6843
43.2400 28.7948 1.6858
43.2600 28.8082 1.6884
43.2800 28.8215 1.6901
43.3000 28.8348 1.6927
43.3200 28.8481 1.6926
43.3400 28.8615 1.6982
43.3600 28.8748 1.6962
43.3800 28.8881 1.7016
43.4000 28.9014 1.7004
43.4200 28.9147 1.7067
43.4400 28.9281 1.7036
43.4600 28.9414 1.7100
43.4800 28.9548 1.7086
43.5000 28.9681 1.7123
43.5200 28.9814 1.7144
43.5400 28.9948 1.7158
43.5600 29.0082 1.7182
43.5800 29.0215 1.7204
43.6000 29.0348 1.7232
43.6200 29.0482 1.7238
43.6400 29.0615 1.7297
43.6600 29.0749 1.7283
43.6800 29.0882 1.7337
43.7000 29.1015 1.7335
43.7200 29.1148 1.7386
43.7400 29.1281 1.7378
43.7600 29.1414 1.7436
43.7800 29.1547 1.7434
43.8000 29.1681 1.7462
43.8200 29.1814 1.7481
43.8400 29.1948 1.7486
43.8600 29.2081 1.7514
43.8800 29.2214 1.7518
43.9000 29.2348 1.7541
43.9200 29.2482 1.7531
43.9400 29.2615 1.7574
43.9600 29.2748 1.7567
43.9800 29.2882 1.7603
44.0000 29.3015 1.7620
44.0200 29.3149 1.7666
44.0400 29.3281 1.7659
44.0600 29.3414 1.7726
44.0800 29.3547 1.7733
44.1000 29.3681 1.7768
44.1200 29.3814 1.7796
44.1400 29.3947 1.7822
44.1600 29.4081 1.7848
44.1800 29.4214 1.7874
44.2000 29.4348 1.7901
44.2200 29.4481 1.7917
44.2400 29.4615 1.7953
44.2600 29.4748 1.7963
44.2800 29.4882 1.7990
44.3000 29.5015 1.8008
44.3200 29.5148 1.8044
44.3400 29.5282 1.8040
44.3600 29.5415 1.8100
44.3800 29.5548 1.8097
44.4000 29.5681 1.8136
44.4200 29.5814 1.8166
44.4400 29.5948 1.8194
44.4600 29.6081 1.8209
44.4800 29.6214 1.8248
44.5000 29.6347 1.8283
44.5200 29.6481 1.8295
44.5400 29.6614 1.8348
44.5600 29.6748 1.8359
44.5800 29.6881 1.8410
44.6000 29.7014 1.8415
44.6200 29.7148 1.8483
44.6400 29.7282 1.8462
44.6600 29.7415 1.8534
44.6800 29.7548 1.8516
44.7000 29.7681 1.8572
44.7200 29.7815 1.8566
44.7400 29.7949 1.8609
44.7600 29.8082 1.8601
44.7800 29.8215 1.8641
44.8000 29.8348 1.8658
44.8200 29.8482 1.8685
44.8400 29.8615 1.8732
44.8600 29.8748 1.8760
44.8800 29.8881 1.8806
44.9000 29.9014 1.8820
44.9200 29.9147 1.8880
44.9400 29.9281 1.8878
44.9600 29.9414 1.8959
44.9800 29.9548 1.8948
45.0000 29.9682 1.9002
45.0200 29.9815 1.9003
45.0400 29.9948 1.9061
45.0480 30.0001 1.9035
45.0490 30.0007 1.9030
45.0500 30.0013 1.9024
45.0700 30.0118 1.8880
45.0900 30.0141 1.8795
45.1100 30.0059 1.8825
45.1300 29.9931 1.8871
45.1500 29.9803 1.8738
45.1700 29.9674 1.8692
45.1900 29.9539 1.8566
45.2100 29.9399 1.8534
45.2300 29.9258 1.8427
45.2500 29.9119 1.8391
45.2700 29.8984 1.8303
45.2900 29.8852 1.8227
45.3100 29.8719 1.8162
45.3300 29.8585 1.8099
45.3500 29.8452 1.8045
45.3700 29.8318 1.7977
45.3900 29.8185 1.7939
45.4100 29.8052 1.7851
45.4300 29.7918 1.7830
45.4500 29.7784 1.7732
45.4700 29.7651 1.7734
45.4900 29.7518 1.7620
45.5100 29.7384 1.7631
45.5300 29.7251 1.7526
45.5500 29.7117 1.7525
45.5700 29.6984 1.7447
45.5900 29.6850 1.7419
45.6100 29.6717 1.7354
45.6300 29.6583 1.7323
45.6500 29.6450 1.7276
45.6700 29.6317 1.7218
45.6900 29.6184 1.7207
45.7100 29.6050 1.7131
45.7300 29.5917 1.7115
45.7500 29.5785 1.7043
45.7700 29.5651 1.7041
45.7900 29.5518 1.6959
45.8100 29.5384 1.6955
45.8300 29.5251 1.6893
45.8500 29.5118 1.6861
45.8700 29.4984 1.6823
45.8900 29.4850 1.6787
45.9100 29.4717 1.6748
45.9300 29.4584 1.6709
45.9500 29.4451 1.6688
45.9700 29.4317 1.6633
45.9900 29.4184 1.6623
46.0100 29.4051 1.6564
46.0300 29.3918 1.6546
46.0500 29.3784 1.6501
46.0700 29.3651 1.6489
46.0900 29.3518 1.6428
46.1100 29.3384 1.6423
46.1300 29.3251 1.6367
46.1500 29.3118 1.6351
46.1700 29.2984 1.6307
46.1900 29.2851 1.6288
46.2100 29.2718 1.6237
46.2300 29.2584 1.6222
46.2500 29.2450 1.6194
46.2700 29.2317 1.6157
46.2900 29.2184 1.6139
46.3100 29.2050 1.6089
46.3300 29.1916 1.6076
46.3500 29.1783 1.6032
46.3700 29.1650 1.6025
46.3900 29.1517 1.5963
46.4100 29.1384 1.5970
46.4300 29.1251 1.5906
46.4500 29.1118 1.5912
46.4700 29.0985 1.5856
46.4900 29.0852 1.5861
46.5100 29.0718 1.5798
46.5300 29.0584 1.5798
46.5500 29.0450 1.5755
46.5700 29.0316 1.5727
46.5900 29.0183 1.5716
46.6100 29.0050 1.5672
46.6300 28.9916 1.5664
46.6500 28.9783 1.5619
46.6700 28.9650 1.5621
46.6900 28.9517 1.5562
46.7100 28.9383 1.5575
46.7300 28.9250 1.5512
46.7500 28.9117 1.5515
46.7700 28.8984 1.5469
46.7900 28.8850 1.5474
46.8100 28.8717 1.5424
46.8300 28.8584 1.5413
46.8500 28.8451 1.5384
46.8700 28.8318 1.5353
46.8900 28.8185 1.5352
46.9100 28.8051 1.5304
46.9300 28.7918 1.5303
46.9500 28.7784 1.5255
46.9700 28.7650 1.5259
46.9900 28.7516 1.5212
47.0100 28.7383 1.5209
47.0300 28.7250 1.5165
47.0500 28.7117 1.5158
47.0700 28.6983 1.5122
47.0900 28.6850 1.5126
47.1100 28.6717 1.5067
47.1300 28.6584 1.5076
47.1500 28.6451 1.5044
47.1700 28.6318 1.5015
47.1900 28.6185 1.5001
47.2100 28.6052 1.4981
47.2300 28.5918 1.4952
47.2500 28.5784 1.4939
47.2700 28.5651 1.4918
47.2900 28.5517 1.4882
47.3100 28.5384 1.4886
47.3300 28.5250 1.4832
47.3500 28.5117 1.4842
47.3700 28.4984 1.4795
47.3900 28.4851 1.4797
47.4100 28.4717 1.4756
47.4300 28.4583 1.4757
47.4500 28.4450 1.4725
47.4700 28.4317 1.4713
47.4900 28.4184 1.4682
47.5100 28.4050 1.4673
47.5300 28.3917 1.4663
47.5500 28.3784 1.4612
47.5700 28.3651 1.4639
47.5900 28.3518 1.4566
47.6100 28.3384 1.4597
47.6300 28.3251 1.4539
47.6500 28.3117 1.4554
47.6700 28.2984 1.4500
47.6900 28.2850 1.4530
47.7100 28.2717 1.4455
47.7300 28.2584 1.4489
47.7500 28.2450 1.4429
47.7700 28.2317 1.4434
47.7900 28.2183 1.4402
47.8100 28.2050 1.4397
47.8300 28.1917 1.4372
47.8500 28.1783 1.4356
47.8700 28.1650 1.4355
47.8900 28.1517 1.4303
47.9100 28.1384 1.4328
47.9300 28.1251 1.4267
47.9500 28.1117 1.4289
47.9700 28.0984 1.4241
47.9900 28.0850 1.4247
48.0100 28.0717 1.4196
48.0300 28.0584 1.4208
48.0500 28.0450 1.4170
48.0700 28.0317 1.4180
48.0900 28.0184 1.4132
48.1100 28.0050 1.4138
48.1300 27.9917 1.4111
48.1500 27.9783 1.4087
48.1700 27.9650 1.4091
48.1900 27.9517 1.4052
48.2100 27.9384 1.4049
48.2300 27.9250 1.4025
48.2500 27.9117 1.4021
48.2700 27.8984 1.3989
48.2900 27.8851 1.3989
48.3100 27.8717 1.3951
48.3300 27.8584 1.3959
48.3500 27.8451 1.3919
48.3700 27.8318 1.3930
48.3900 27.8184 1.3879
48.4100 27.8050 1.3894
48.4300 27.7916 1.3857
48.4500 27.7783 1.3854
48.4700 27.7650 1.3836
48.4900 27.7517 1.3810
48.5100 27.7383 1.3814
48.5300 27.7250 1.3777
48.5500 27.7117 1.3783
48.5700 27.6984 1.3734
48.5900 27.6851 1.3763
48.6100 27.6717 1.3707
48.6300 27.6584 1.3725
48.6500 27.6451 1.3677
48.6700 27.6318 1.3697
48.6900 27.6184 1.3643
48.7100 27.6051 1.3666
48.7300 27.5917 1.3625
48.7500 27.5784 1.3613
48.7700 27.5650 1.3617
48.7900 27.5517 1.3573
48.8100 27.5383 1.3584
48.8300 27.5250 1.3543
48.8500 27.5117 1.3565
48.8700 27.4983 1.3502
48.8900 27.4850 1.3534
48.9100 27.4717 1.3483
48.9300 27.4584 1.3493
48.9500 27.4450 1.3460
48.9700 27.4317 1.3463
48.9900 27.4184 1.3436
49.0100 27.4051 1.3421
49.0300 27.3918 1.3411
49.0500 27.3784 1.3386
49.0700 27.3650 1.3395
49.0900 27.3517 1.3350
49.1100 27.3384 1.3362
49.1300 27.3250 1.3325
49.1500 27.3117 1.3341
49.1700 27.2983 1.3289
49.1900 27.2850 1.3308
49.2100 27.2717 1.3259
49.2300 27.2583 1.3275
49.2500 27.2450 1.3241
49.2700 27.2317 1.3248
49.2900 27.2184 1.3209
49.3100 27.2051 1.3223
49.3300 27.1917 1.3182
49.3500 27.1784 1.3193
49.3700 27.1651 1.3152
49.3900 27.1517 1.3168
49.4100 27.1384 1.3121
49.4300 27.1250 1.3140
49.4500 27.1117 1.3101
49.4700 27.0984 1.3092
49.4900 27.0851 1.3091
49.5100 27.0717 1.3058
49.5300 27.0584 1.3066
49.5500 27.0450 1.3030
49.5700 27.0317 1.3041
49.5900 27.0183 1.2994
49.6100 27.0050 1.3020
49.6300 26.9917 1.2974
49.6500 26.9784 1.2976
49.6700 26.9650 1.2960
49.6900 26.9517 1.2948
49.7100 26.9384 1.2935
49.7300 26.9251 1.2914
49.7500 26.9118 1.2916
49.7700 26.8984 1.2876
49.7900 26.8851 1.2905
49.8100 26.8717 1.2843
49.8300 26.8584 1.2879
49.8500 26.8451 1.2825
49.8700 26.8317 1.2846
49.8900 26.8183 1.2805
49.9100 26.8050 1.2813
49.9300 26.7917 1.2796
49.9500 26.7783 1.2773
49.9700 26.7650 1.2775
49.9900 26.7517 1.2753
50.0100 26.7384 1.2750
50.0300 26.7250 1.2716
50.0500 26.7117 1.2737
50.0700 26.6984 1.2686
50.0900 26.6851 1.2707
50.1100 26.6718 1.2668
50.1300 26.6584 1.2677
50.1500 26.6450 1.2650
50.1700 26.6317 1.2645
50.1900 26.6184 1.2624
50.2100 26.6051 1.2621
50.2300 26.5917 1.2606
50.2500 26.5783 1.2584
50.2700 26.5650 1.2582
50.2900 26.5517 1.2570
50.3100 26.5383 1.2557
50.3300 26.5250 1.2531
50.3500 26.5117 1.2544
50.3700 26.4984 1.2504
50.3900 26.4851 1.2521
50.4100 26.4717 1.2482
50.4300 26.4584 1.2500
50.4500 26.4451 1.2445
50.4700 26.4318 1.2483
50.4900 26.4184 1.2422
50.5100 26.4050 1.2454
50.5300 26.3917 1.2412
50.5500 26.3784 1.2416
50.5700 26.3651 1.2385
50.5900 26.3517 1.2393
50.6100 26.3384 1.2370
50.6300 26.3250 1.2360
50.6500 26.3117 1.2353
50.6700 26.2983 1.2323
50.6900 26.2850 1.2347
50.7100 26.2717 1.2292
50.7300 26.2584 1.2320
50.7500 26.2450 1.2264
50.7700 26.2317 1.2314
50.7900 26.2184 1.2241
50.8100 26.2051 1.2277
50.8300 26.1918 1.2226
50.8500 26.1784 1.2243
50.8700 26.1650 1.2209
50.8900 26.1517 1.2220
50.9100 26.1384 1.2191
50.9300 26.1251 1.2180
50.9500 26.1117 1.2181
50.9700 26.0983 1.2156
50.9900 26.0851 1.2154
51.0100 26.0717 1.2135
51.0300 26.0584 1.2136
51.0500 26.0450 1.2106
51.0700 26.0317 1.2129
51.0900 26.0184 1.2079
51.1100 26.0051 1.2100
51.1300 25.9917 1.2067
51.1500 25.9784 1.2076
51.1700 25.9651 1.2046
51.1900 25.9517 1.2046
51.2100 25.9384 1.2029
51.2300 25.9250 1.2027
51.2500 25.9117 1.2011
51.2700 25.8984 1.1992
51.2900 25.8851 1.1988
51.3100 25.8717 1.1972
51.3300 25.8583 1.1979
51.3500 25.8450 1.1945
51.3700 25.8317 1.1958
51.3900 25.8183 1.1921
51.4100 25.8050 1.1936
51.4300 25.7917 1.1906
51.4500 25.7784 1.1907
51.4700 25.7650 1.1882
51.4900 25.7517 1.1882
51.5100 25.7384 1.1873
51.5300 25.7251 1.1856
51.5500 25.7118 1.1859
51.5700 25.6984 1.1829
51.5900 25.6851 1.1837
51.6100 25.6717 1.1816
51.6300 25.6584 1.1809
51.6500 25.6451 1.1788
51.6700 25.6317 1.1801
51.6900 25.6183 1.1766
51.7100 25.6050 1.1776
51.7300 25.5917 1.1740
51.7500 25.5783 1.1751
51.7700 25.5650 1.1719
51.7900 25.5516 1.1734
51.8100 25.5383 1.1704
51.8300 25.5250 1.1699
51.8500 25.5117 1.1698
51.8700 25.4984 1.1671
51.8900 25.4851 1.1678
51.9100 25.4718 1.1649
51.9300 25.4584 1.1658
51.9500 25.4451 1.1619
51.9700 25.4318 1.1648
51.9900 25.4185 1.1598
52.0100 25.4051 1.1625
52.0300 25.3917 1.1581
52.0500 25.3784 1.1603
52.0700 25.3650 1.1554
52.0900 25.3517 1.1585
52.1100 25.3383 1.1543
52.1300 25.3250 1.1553
52.1500 25.3117 1.1541
52.1700 25.2984 1.1527
52.1900 25.2851 1.1522
52.2100 25.2717 1.1503
52.2300 25.2584 1.1514
52.2500 25.2451 1.1478
52.2700 25.2318 1.1491
52.2900 25.2185 1.1454
52.3100 25.2051 1.1477
52.3300 25.1917 1.1442
52.3500 25.1784 1.1454
52.3700 25.1650 1.1409
52.3900 25.1517 1.1438
52.4100 25.1383 1.1404
52.4300 25.1250 1.1403
52.4500 25.1117 1.1392
52.4700 25.0983 1.1383
52.4900 25.0850 1.1371
52.5100 25.0717 1.1365
52.5300 25.0584 1.1358
52.5500 25.0451 1.1337
52.5700 25.0317 1.1346
52.5900 25.0184 1.1312
52.6100 25.0051 1.1327
52.6300 24.9918 1.1290
52.6500 24.9784 1.1315
52.6700 24.9651 1.1257
52.6900 24.9517 1.1305
52.7100 24.9384 1.1238
52.7300 24.9250 1.1282
52.7500 24.9117 1.1222
52.7700 24.8983 1.1264
52.7900 24.8850 1.1208
52.8100 24.8717 1.1224
52.8300 24.8584 1.1204
52.8500 24.8450 1.1195
52.8700 24.8317 1.1192
52.8900 24.8184 1.1176
52.9100 24.8051 1.1174
52.9300 24.7917 1.1155
52.9500 24.7784 1.1162
52.9700 24.7651 1.1133
52.9900 24.7518 1.1143
53.0100 24.7384 1.1111
53.0300 24.7251 1.1121
53.0500 24.7117 1.1094
53.0700 24.6984 1.1096
53.0900 24.6851 1.1081
53.1100 24.6717 1.1065
53.1300 24.6583 1.1076
53.1500 24.6450 1.1040
53.1700 24.6317 1.1062
53.1900 24.6184 1.1029
53.2100 24.6050 1.1039
53.2300 24.5917 1.1013
53.2500 24.5784 1.1027
53.2700 24.5650 1.0986
53.2900 24.5517 1.1011
53.3100 24.5384 1.0972
53.3300 24.5251 1.0988
53.3500 24.5118 1.0952
53.3700 24.4984 1.0970
53.3900 24.4851 1.0939
53.4100 24.4718 1.0945
53.4300 24.4585 1.0926
53.4500 24.4451 1.0922
53.4700 24.4317 1.0911
53.4900 24.4183 1.0908
53.5100 24.4050 1.0894
53.5300 24.3917 1.0884
53.5500 24.3783 1.0883
53.5700 24.3649 1.0854
53.5900 24.3516 1.0874
53.6100 24.3383 1.0840
53.6300 24.3250 1.0856
53.6500 24.3117 1.0822
53.6700 24.2984 1.0850
53.6900 24.2851 1.0800
53.7100 24.2718 1.0818
53.7300 24.2584 1.0788
53.7500 24.2451 1.0796
53.7700 24.2317 1.0783
53.7900 24.2184 1.0764
53.8100 24.2051 1.0766
53.8300 24.1917 1.0739
53.8500 24.1783 1.0769
53.8700 24.1650 1.0711
53.8900 24.1517 1.0750
53.9100 24.1383 1.0702
53.9300 24.1250 1.0729
53.9500 24.1116 1.0682
53.9700 24.0984 1.0720
53.9900 24.0850 1.0666
54.0100 24.0717 1.0697
54.0300 24.0584 1.0662
54.0500 24.0451 1.0666
54.0700 24.0318 1.0659
54.0900 24.0184 1.0636
54.1100 24.0051 1.0648
54.1300 23.9917 1.0608
54.1500 23.9784 1.0643
54.1700 23.9651 1.0584
54.1900 23.9517 1.0621
54.2100 23.9383 1.0575
54.2300 23.9250 1.0596
54.2500 23.9117 1.0561
54.2700 23.8983 1.0583
54.2900 23.8850 1.0543
54.3100 23.8717 1.0569
54.3300 23.8584 1.0530
54.3500 23.8451 1.0546
54.3700 23.8318 1.0517
54.3900 23.8184 1.0529
54.4100 23.8051 1.0504
54.4300 23.7918 1.0495
54.4500 23.7784 1.0505
54.4700 23.7651 1.0471
54.4900 23.7517 1.0487
54.5100 23.7384 1.0458
54.5300 23.7251 1.0464
54.5500 23.7117 1.0446
54.5700 23.6983 1.0453
54.5900 23.6850 1.0423
54.6100 23.6717 1.0442
54.6300 23.6584 1.0400
54.6500 23.6450 1.0419
54.6700 23.6317 1.0397
54.6900 23.6183 1.0394
54.7100 23.6050 1.0391
54.7300 23.5917 1.0361
54.7500 23.5783 1.0387
54.7700 23.5650 1.0346
54.7900 23.5518 1.0370
54.8100 23.5384 1.0330
54.8300 23.5251 1.0350
54.8500 23.5117 1.0306
54.8700 23.4984 1.0347
54.8900 23.4850 1.0280
54.9100 23.4717 1.0330
54.9300 23.4583 1.0282
54.9500 23.4450 1.0290
54.9700 23.4317 1.0270
54.9900 23.4184 1.0275
55.0100 23.4050 1.0261
55.0300 23.3917 1.0250
55.0500 23.3784 1.0260
55.0700 23.3650 1.0217
55.0900 23.3517 1.0247
55.1100 23.3384 1.0207
55.1300 23.3250 1.0236
55.1500 23.3118 1.0181
55.1700 23.2984 1.0217
55.1900 23.2851 1.0171
55.2100 23.2717 1.0202
55.2300 23.2584 1.0164
55.2500 23.2451 1.0180
55.2700 23.2318 1.0142
55.2900 23.2184 1.0159
55.3100 23.2050 1.0143
55.3300 23.1917 1.0134
55.3500 23.1784 1.0138
55.3700 23.1650 1.0112
55.3900 23.1517 1.0120
55.4100 23.1384 1.0094
55.4300 23.1251 1.0123
55.4500 23.1117 1.0066
55.4700 23.0984 1.0110
55.4900 23.0851 1.0057
55.5100 23.0718 1.0079
55.5300 23.0585 1.0049
55.5500 23.0451 1.0068
55.5700 23.0317 1.0024
55.5900 23.0184 1.0055
55.6100 23.0051 1.0015
55.6300 22.9917 1.0024
55.6500 22.9783 1.0018
55.6700 22.9650 1.0004
55.6900 22.9517 1.0000
55.7100 22.9384 0.9981
55.7300 22.9250 1.0002
55.7500 22.9117 0.9950
55.7700 22.8983 0.9999
55.7900 22.8850 0.9930
55.8100 22.8717 0.9975
55.8300 22.8584 0.9922
55.8500 22.8451 0.9965
55.8700 22.8318 0.9908
55.8900 22.8185 0.9940
55.9100 22.8051 0.9904
55.9300 22.7917 0.9916
55.9500 22.7784 0.9897
55.9700 22.7650 0.9890
55.9900 22.7517 0.9889
56.0100 22.7383 0.9869
56.0300 22.7250 0.9893
56.0500 22.7117 0.9836
56.0700 22.6984 0.9880
56.0900 22.6850 0.9830
56.1100 22.6717 0.9857
56.1300 22.6583 0.9822
56.1500 22.6450 0.9842
56.1700 22.6317 0.9805
56.1900 22.6184 0.9826
56.2100 22.6050 0.9799
56.2300 22.5917 0.9797
56.2500 22.5784 0.9796
56.2700 22.5651 0.9777
56.2900 22.5517 0.9777
56.3100 22.5384 0.9765
56.3300 22.5251 0.9775
56.3500 22.5117 0.9732
56.3700 22.4984 0.9766
56.3900 22.4850 0.9724
56.4100 22.4717 0.9739
56.4300 22.4584 0.9711
56.4500 22.4450 0.9729
56.4700 22.4317 0.9701
56.4900 22.4184 0.9710
56.5100 22.4051 0.9690
56.5300 22.3917 0.9687
56.5500 22.3784 0.9691
56.5700 22.3651 0.9667
56.5900 22.3518 0.9671
56.6100 22.3384 0.9653
56.6300 22.3251 0.9668
56.6500 22.3117 0.9629
56.6700 22.2984 0.9660
56.6900 22.2850 0.9613
56.7100 22.2717 0.9642
56.7300 22.2584 0.9596
56.7500 22.2450 0.9637
56.7700 22.2317 0.9587
56.7900 22.2184 0.9605
56.8100 22.2051 0.9583
56.8300 22.1917 0.9584
56.8500 22.1784 0.9572
56.8700 22.1650 0.9569
56.8900 22.1517 0.9558
56.9100 22.1384 0.9549
56.9300 22.1250 0.9557
56.9500 22.1117 0.9524
56.9700 22.0984 0.9552
56.9900 22.0851 0.9500
57.0100 22.0717 0.9540
57.0300 22.0584 0.9493
57.0500 22.0451 0.9527
57.0700 22.0317 0.9472
57.0900 22.0184 0.9512
57.1100 22.0050 0.9468
57.1300 21.9917 0.9483
57.1500 21.9784 0.9467
57.1700 21.9650 0.9466
57.1900 21.9516 0.9454
57.2100 21.9383 0.9452
57.2300 21.9250 0.9451
57.2500 21.9117 0.9426
57.2700 21.8984 0.9439
57.2900 21.8850 0.9417
57.3100 21.8717 0.9422
57.3300 21.8584 0.9393
57.3500 21.8451 0.9425
57.3700 21.8317 0.9376
57.3900 21.8184 0.9399
57.4100 21.8051 0.9377
57.4300 21.7918 0.9366
57.4500 21.7784 0.9372
57.4700 21.7650 0.9355
57.4900 21.7516 0.9360
57.5100 21.7383 0.9335
57.5300 21.7250 0.9352
57.5500 21.7116 0.9319
57.5700 21.6983 0.9345
57.5900 21.6850 0.9303
57.6100 21.6717 0.9326
57.6300 21.6584 0.9292
57.6500 21.6450 0.9315
57.6700 21.6317 0.9282
57.6900 21.6184 0.9283
57.7100 21.6051 0.9285
57.7300 21.5917 0.9266
57.7500 21.5784 0.9266
57.7700 21.5651 0.9248
57.7900 21.5517 0.9260
57.8100 21.5384 0.9226
57.8300 21.5250 0.9252
57.8500 21.5117 0.9208
57.8700 21.4984 0.9232
57.8900 21.4850 0.9206
57.9100 21.4717 0.9211
57.9300 21.4583 0.9193
57.9500 21.4450 0.9209
57.9700 21.4317 0.9172
57.9900 21.4184 0.9191
58.0100 21.4050 0.9179
58.0300 21.3917 0.9164
58.0500 21.3784 0.9157
58.0700 21.3651 0.9149
58.0900 21.3517 0.9152
58.1100 21.3384 0.9130
58.1300 21.3251 0.9146
58.1500 21.3118 0.9103
58.1700 21.2984 0.9131
58.1900 21.2850 0.9097
58.2100 21.2717 0.9121
58.2300 21.2584 0.9076
58.2500 21.2451 0.9111
58.2700 21.2317 0.9061
58.2900 21.2183 0.9095
58.3100 21.2050 0.9063
58.3300 21.1917 0.9070
58.3500 21.1784 0.9051
58.3700 21.1650 0.9058
58.3900 21.1517 0.9048
58.4100 21.1384 0.9026
58.4300 21.1251 0.9054
58.4500 21.1117 0.9002
58.4700 21.0984 0.9037
58.4900 21.0851 0.8992
58.5100 21.0718 0.9024
58.5300 21.0584 0.8979
58.5500 21.0450 0.9010
58.5700 21.0317 0.8974
58.5900 21.0184 0.8987
58.6100 21.0050 0.8965
58.6300 20.9917 0.8969
58.6500 20.9783 0.8961
58.6700 20.9650 0.8953
58.6900 20.9517 0.8952
58.7100 20.9384 0.8929
58.7300 20.9250 0.8953
58.7500 20.9117 0.8915
58.7700 20.8984 0.8935
58.7900 20.8851 0.8908
58.8100 20.8717 0.8919
58.8300 20.8584 0.8893
58.8500 20.8451 0.8899
58.8700 20.8317 0.8887
58.8900 20.8184 0.8875
58.9100 20.8050 0.8890
58.9300 20.7917 0.8858
58.9500 20.7784 0.8864
58.9700 20.7650 0.8850
58.9900 20.7517 0.8858
59.0100 20.7383 0.8834
59.0300 20.7250 0.8860
59.0500 20.7117 0.8811
59.0700 20.6983 0.8839
59.0900 20.6850 0.8806
59.1100 20.6717 0.8832
59.1300 20.6584 0.8792
59.1500 20.6451 0.8815
59.1700 20.6318 0.8778
59.1900 20.6184 0.8793
59.2100 20.6051 0.8786
59.2300 20.5918 0.8775
59.2500 20.5784 0.8762
59.2700 20.5650 0.8765
59.2900 20.5517 0.8762
59.3100 20.5383 0.8735
59.3300 20.5250 0.8766
59.3500 20.5117 0.8715
59.3700 20.4983 0.8756
59.3900 20.4850 0.8697
59.4100 20.4717 0.8743
59.4300 20.4584 0.8693
59.4500 20.4450 0.8733
59.4700 20.4317 0.8681
59.4900 20.4185 0.8700
59.5100 20.4051 0.8689
59.5300 20.3918 0.8674
59.5500 20.3784 0.8682
59.5700 20.3651 0.8662
59.5900 20.3517 0.8673
59.6100 20.3384 0.8628
59.6300 20.3250 0.8678
59.6500 20.3116 0.8612
59.6700 20.2983 0.8662
59.6900 20.2850 0.8596
59.7100 20.2717 0.8649
59.7300 20.2583 0.8589
59.7500 20.2450 0.8631
59.7700 20.2317 0.8588
59.7900 20.2184 0.8599
59.8100 20.2050 0.8593
59.8300 20.1917 0.8589
59.8500 20.1785 0.8572
59.8700 20.1651 0.8572
59.8900 20.1518 0.8575
59.9100 20.1384 0.8552
59.9300 20.1250 0.8568
59.9500 20.1117 0.8534
59.9700 20.0984 0.8548
59.9900 20.0850 0.8525
60.0100 20.0717 0.8543
60.0300 20.0583 0.8506
60.0500 20.0450 0.8537
60.0700 20.0317 0.8499
60.0900 20.0183 0.8511
60.1100 20.0050 0.8493
60.1300 19.9917 0.8498
60.1500 19.9784 0.8478
60.1700 19.9650 0.8487
60.1900 19.9517 0.8475
60.2100 19.9384 0.8462
60.2300 19.9251 0.8473
60.2500 19.9118 0.8449
60.2700 19.8984 0.8461
60.2900 19.8851 0.8434
60.3100 19.8717 0.8459
60.3300 19.8584 0.8408
60.3500 19.8450 0.8454
60.3700 19.8317 0.8403
60.3900 19.8183 0.8433
60.4100 19.8050 0.8394
60.4300 19.7917 0.8423
60.4500 19.7783 0.8386
60.4700 19.7650 0.8399
60.4900 19.7517 0.8388
60.5100 19.7384 0.8368
60.5300 19.7250 0.8387
60.5500 19.7117 0.8361
60.5700 19.6984 0.8369
60.5900 19.6851 0.8345
60.6100 19.6718 0.8368
60.6300 19.6584 0.8328
60.6500 19.6451 0.8352
60.6700 19.6318 0.8317
60.6900 19.6184 0.8338
60.7100 19.6050 0.8309
60.7300 19.5917 0.8321
60.7500 19.5784 0.8299
60.7700 19.5651 0.8308
60.7900 19.5517 0.8297
60.8100 19.5383 0.8280
60.8300 19.5250 0.8288
60.8500 19.5117 0.8276
60.8700 19.4984 0.8266
60.8900 19.4850 0.8275
60.9100 19.4717 0.8265
60.9300 19.4584 0.8242
60.9500 19.4451 0.8251
60.9700 19.4318 0.8236
60.9900 19.4184 0.8245
61.0100 19.4051 0.8222
61.0300 19.3917 0.8233
61.0500 19.3784 0.8202
61.0700 19.3650 0.8225
61.0900 19.3517 0.8201
61.1100 19.3383 0.8205
61.1300 19.3250 0.8190
61.1500 19.3117 0.8192
61.1700 19.2983 0.8176
61.1900 19.2850 0.8179
61.2100 19.2717 0.8172
61.2300 19.2584 0.8157
61.2500 19.2450 0.8167
61.2700 19.2317 0.8145
61.2900 19.2184 0.8158
61.3100 19.2051 0.8117
61.3300 19.1918 0.8154
61.3500 19.1784 0.8098
61.3700 19.1651 0.8141
61.3900 19.1517 0.8095
61.4100 19.1384 0.8119
61.4300 19.1250 0.8086
61.4500 19.1116 0.8106
61.4700 19.0983 0.8082
61.4900 19.0850 0.8089
61.5100 19.0717 0.8087
61.5300 19.0583 0.8060
61.5500 19.0450 0.8082
61.5700 19.0317 0.8052
61.5900 19.0184 0.8075
61.6100 19.0051 0.8033
61.6300 18.9917 0.8072
61.6500 18.9784 0.8018
61.6700 18.9651 0.8054
61.6900 18.9518 0.8017
61.7100 18.9384 0.8036
61.7300 18.9250 0.8010
61.7500 18.9117 0.8018
61.7700 18.8984 0.7999
61.7900 18.8850 0.7994
61.8100 18.8717 0.8003
61.8300 18.8583 0.7973
61.8500 18.8450 0.7992
61.8700 18.8317 0.7972
61.8900 18.8183 0.7970
61.9100 18.8050 0.7957
61.9300 18.7917 0.7971
61.9500 18.7784 0.7931
61.9700 18.7650 0.7969
61.9900 18.7517 0.7930
62.0100 18.7384 0.7946
62.0300 18.7251 0.7912
62.0500 18.7117 0.7943
62.0700 18.6984 0.7901
62.0900 18.6851 0.7922
62.1100 18.6717 0.7902
62.1300 18.6584 0.7904
62.1500 18.6450 0.7893
62.1700 18.6317 0.7892
62.1900 18.6183 0.7883
62.2100 18.6050 0.7868
62.2300 18.5917 0.7890
62.2500 18.5783 0.7845
62.2700 18.5650 0.7882
62.2900 18.5517 0.7837
62.3100 18.5384 0.7865
62.3300 18.5250 0.7824
62.3500 18.5117 0.7862
62.3700 18.4984 0.7816
62.3900 18.4851 0.7833
62.4100 18.4717 0.7823
62.4300 18.4584 0.7814
62.4500 18.4450 0.7816
62.4700 18.4317 0.7802
62.4900 18.4184 0.7801
62.5100 18.4050 0.7776
62.5300 18.3917 0.7815
62.5500 18.3784 0.7754
62.5700 18.3650 0.7797
62.5900 18.3517 0.7750
62.6100 18.3384 0.7784
62.6300 18.3250 0.7741
62.6500 18.3117 0.7774
62.6700 18.2984 0.7743
62.6900 18.2850 0.7739
62.7100 18.2717 0.7754
62.7300 18.2584 0.7714
62.7500 18.2451 0.7740
62.7700 18.2318 0.7708
62.7900 18.2184 0.7731
62.8100 18.2050 0.7685
62.8300 18.1917 0.7732
62.8500 18.1784 0.7671
62.8700 18.1650 0.7706
62.8900 18.1517 0.7675
62.9100 18.1383 0.7700
62.9300 18.1250 0.7660
62.9500 18.1117 0.7683
62.9700 18.0983 0.7660
62.9900 18.0850 0.7660
63.0100 18.0717 0.7662
63.0300 18.0584 0.7632
63.0500 18.0451 0.7651
63.0700 18.0318 0.7629
63.0900 18.0184 0.7641
63.1100 18.0051 0.7609
63.1300 17.9917 0.7645
63.1500 17.9784 0.7590
63.1700 17.9650 0.7627
63.1900 17.9517 0.7590
63.2100 17.9384 0.7609
63.2300 17.9250 0.7576
63.2500 17.9116 0.7605
63.2700 17.8983 0.7561
63.2900 17.8850 0.7585
63.3100 17.8717 0.7564
63.3300 17.8583 0.7567
63.3500 17.8450 0.7555
63.3700 17.8317 0.7550
63.3900 17.8184 0.7556
63.4100 17.8051 0.7525
63.4300 17.7917 0.7558
63.4500 17.7784 0.7510
63.4700 17.7651 0.7536
63.4900 17.7518 0.7507
63.5100 17.7384 0.7524
63.5300 17.7250 0.7496
63.5500 17.7117 0.7517
63.5700 17.6984 0.7484
63.5900 17.6851 0.7497
63.6100 17.6717 0.7484
63.6300 17.6583 0.7476
63.6500 17.6450 0.7476
63.6700 17.6317 0.7462
63.6900 17.6183 0.7474
63.7100 17.6050 0.7441
63.7300 17.5917 0.7475
63.7500 17.5784 0.7428
63.7700 17.5651 0.7457
63.7900 17.5517 0.7424
63.8100 17.5384 0.7441
63.8300 17.5251 0.7411
63.8500 17.5118 0.7433
63.8700 17.4984 0.7401
63.8900 17.4850 0.7411
63.9100 17.4717 0.7406
63.9300 17.4584 0.7392
63.9500 17.4450 0.7393
63.9700 17.4317 0.7379
63.9900 17.4183 0.7396
64.0100 17.4050 0.7348
64.0300 17.3917 0.7392
64.0500 17.3784 0.7341
64.0700 17.3650 0.7377
64.0900 17.3517 0.7338
64.1100 17.3384 0.7355
64.1300 17.3250 0.7329
64.1500 17.3117 0.7352
64.1700 17.2984 0.7324
64.1900 17.2851 0.7330
64.2100 17.2718 0.7308
64.2300 17.2584 0.7326
64.2500 17.2451 0.7302
64.2700 17.2317 0.7318
64.2900 17.2184 0.7294
64.3100 17.2051 0.7282
64.3300 17.1917 0.7298
64.3500 17.1783 0.7278
64.3700 17.1650 0.7283
64.3900 17.1517 0.7263
64.4100 17.1383 0.7276
64.4300 17.1250 0.7247
64.4500 17.1117 0.7274
64.4700 17.0984 0.7238
64.4900 17.0851 0.7257
64.5100 17.0717 0.7223
64.5300 17.0584 0.7248
64.5500 17.0451 0.7217
64.5700 17.0318 0.7238
64.5900 17.0184 0.7217
64.6100 17.0050 0.7203
64.6300 16.9917 0.7219
64.6500 16.9784 0.7191
64.6700 16.9651 0.7206
64.6900 16.9517 0.7176
64.7100 16.9383 0.7209
64.7300 16.9250 0.7151
64.7500 16.9117 0.7199
64.7700 16.8983 0.7154
64.7900 16.8850 0.7180
64.8100 16.8717 0.7140
64.8300 16.8584 0.7177
64.8500 16.8450 0.7125
64.8700 16.8317 0.7164
64.8900 16.8184 0.7125
64.9100 16.8051 0.7135
64.9300 16.7918 0.7126
64.9500 16.7785 0.7124
64.9700 16.7651 0.7117
64.9900 16.7518 0.7110
65.0100 16.7384 0.7115
65.0300 16.7251 0.7084
65.0500 16.7117 0.7104
65.0700 16.6983 0.7082
65.0900 16.6850 0.7088
65.1100 16.6717 0.7072
65.1300 16.6583 0.7085
65.1500 16.6450 0.7051
65.1700 16.6317 0.7077
65.1900 16.6184 0.7048
65.2100 16.6050 0.7055
65.2300 16.5917 0.7038
65.2500 16.5784 0.7056
65.2700 16.5651 0.7021
65.2900 16.5518 0.7040
65.3100 16.5384 0.7024
65.3300 16.5250 0.7015
65.3500 16.5117 0.7022
65.3700 16.4984 0.7000
65.3900 16.4851 0.7008
65.4100 16.4717 0.6984
65.4300 16.4583 0.7011
65.4500 16.4450 0.6961
65.4700 16.4317 0.7002
65.4900 16.4184 0.6957
65.5100 16.4050 0.6988
65.5300 16.3917 0.6950
65.5500 16.3784 0.6976
65.5700 16.3650 0.6942
65.5900 16.3517 0.6954
65.6100 16.3384 0.6952
65.6300 16.3251 0.6920
65.6500 16.3117 0.6951
65.6700 16.2984 0.6909
65.6900 16.2851 0.6942
65.7100 16.2718 0.6889
65.7300 16.2584 0.6935
65.7500 16.2451 0.6879
65.7700 16.2317 0.6919
65.7900 16.2183 0.6881
65.8100 16.2050 0.6894
65.8300 16.1917 0.6874
65.8500 16.1783 0.6891
65.8700 16.1650 0.6865
65.8900 16.1517 0.6876
65.9100 16.1384 0.6861
65.9300 16.1250 0.6849
65.9500 16.1117 0.6860
65.9700 16.0984 0.6843
65.9900 16.0851 0.6852
66.0100 16.0718 0.6828
66.0300 16.0584 0.6840
66.0500 16.0451 0.6813
66.0700 16.0317 0.6828
66.0900 16.0184 0.6813
66.1100 16.0051 0.6815
66.1300 15.9917 0.6803
66.1500 15.9784 0.6811
66.1700 15.9651 0.6788
66.1900 15.9518 0.6797
66.2100 15.9384 0.6789
66.2300 15.9250 0.6773
66.2500 15.9116 0.6785
66.2700 15.8983 0.6760
66.2900 15.8850 0.6781
66.3100 15.8717 0.6735
66.3300 15.8584 0.6787
66.3500 15.8451 0.6716
66.3700 15.8318 0.6766
66.3900 15.8185 0.6717
66.4100 15.8051 0.6753
66.4300 15.7918 0.6705
66.4500 15.7785 0.6743
66.4700 15.7651 0.6691
66.4900 15.7517 0.6723
66.5100 15.7383 0.6698
66.5300 15.7250 0.6693
66.5500 15.7117 0.6700
66.5700 15.6983 0.6679
66.5900 15.6850 0.6698
66.6100 15.6717 0.6653
66.6300 15.6584 0.6696
66.6500 15.6451 0.6638
66.6700 15.6317 0.6680
66.6900 15.6184 0.6643
66.7100 15.6051 0.6662
66.7300 15.5918 0.6634
66.7500 15.5784 0.6653
66.7700 15.5651 0.6630
66.7900 15.5517 0.6628
66.8100 15.5384 0.6630
66.8300 15.5251 0.6606
66.8500 15.5117 0.6625
66.8700 15.4983 0.6601
66.8900 15.4850 0.6615
66.9100 15.4717 0.6582
66.9300 15.4583 0.6615
66.9500 15.4450 0.6571
66.9700 15.4316 0.6594
66.9900 15.4184 0.6572
67.0100 15.4050 0.6575
67.0300 15.3917 0.6558
67.0500 15.3784 0.6571
67.0700 15.3651 0.6550
67.0900 15.3518 0.6549
67.1100 15.3385 0.6543
67.1300 15.3251 0.6534
67.1500 15.3117 0.6534
67.1700 15.2984 0.6530
67.1900 15.2850 0.6524
67.2100 15.2717 0.6507
67.2300 15.2583 0.6529
67.2500 15.2450 0.6486
67.2700 15.2317 0.6512
67.2900 15.2184 0.6480
67.3100 15.2050 0.6511
67.3300 15.1917 0.6469
67.3500 15.1784 0.6505
67.3700 15.1651 0.6458
67.3900 15.1517 0.6483
67.4100 15.1384 0.6469
67.4300 15.1251 0.6467
67.4500 15.1118 0.6457
67.4700 15.0985 0.6456
67.4900 15.0851 0.6454
67.5100 15.0717 0.6429
67.5300 15.0584 0.6462
67.5500 15.0451 0.6413
67.5700 15.0317 0.6445
67.5900 15.0183 0.6406
67.6100 15.0050 0.6439
67.6300 14.9917 0.6389
67.6500 14.9784 0.6426
67.6700 14.9650 0.6389
67.6900 14.9516 0.6402
67.7100 14.9383 0.6397
67.7300 14.9250 0.6381
67.7500 14.9117 0.6388
67.7700 14.8984 0.6373
67.7900 14.8851 0.6382
67.8100 14.8718 0.6352
67.8300 14.8584 0.6384
67.8500 14.8451 0.6342
67.8700 14.8318 0.6368
67.8900 14.8184 0.6332
67.9100 14.8051 0.6355
67.9300 14.7917 0.6313
67.9500 14.7783 0.6354
67.9700 14.7650 0.6312
67.9900 14.7517 0.6326
68.0100 14.7383 0.6311
68.0300 14.7250 0.6312
68.0500 14.7116 0.6300
68.0700 14.6983 0.6297
68.0900 14.6850 0.6291
68.1100 14.6717 0.6285
68.1300 14.6584 0.6288
68.1500 14.6451 0.6267
68.1700 14.6318 0.6272
68.1900 14.6185 0.6258
68.2100 14.6051 0.6272
68.2300 14.5917 0.6237
68.2500 14.5784 0.6270
68.2700 14.5651 0.6222
68.2900 14.5517 0.6248
68.3100 14.5383 0.6222
68.3300 14.5250 0.6242
68.3500 14.5117 0.6207
68.3700 14.4983 0.6227
68.3900 14.4850 0.6196
68.4100 14.4716 0.6210
68.4300 14.4584 0.6205
68.4500 14.4451 0.6191
68.4700 14.4317 0.6192
68.4900 14.4184 0.6184
68.5100 14.4051 0.6191
68.5300 14.3918 0.6152
68.5500 14.3785 0.6196
68.5700 14.3651 0.6143
68.5900 14.3518 0.6172
68.6100 14.3385 0.6139
68.6300 14.3251 0.6159
68.6500 14.3117 0.6134
68.6700 14.2983 0.6148
68.6900 14.2849 0.6132
68.7100 14.2716 0.6119
68.7300 14.2583 0.6126
68.7500 14.2450 0.6109
68.7700 14.2317 0.6122
68.7900 14.2184 0.6092
68.8100 14.2051 0.6112
68.8300 14.1918 0.6071
68.8500 14.1784 0.6111
68.8700 14.1651 0.6066
68.8900 14.1518 0.6094
68.9100 14.1385 0.6064
68.9300 14.1251 0.6080
68.9500 14.1117 0.6051
68.9700 14.0984 0.6065
68.9900 14.0851 0.6058
69.0100 14.0717 0.6038
69.0300 14.0583 0.6058
69.0500 14.0450 0.6028
69.0700 14.0317 0.6039
69.0900 14.0184 0.6012
69.1100 14.0050 0.6044
69.1300 13.9917 0.5994
69.1500 13.9783 0.6036
69.1700 13.9650 0.5985
69.1900 13.9517 0.6018
69.2100 13.9384 0.5975
69.2300 13.9250 0.6012
69.2500 13.9117 0.5964
69.2700 13.8984 0.5993
69.2900 13.8851 0.5966
69.3100 13.8717 0.5974
69.3300 13.8584 0.5962
69.3500 13.8451 0.5955
69.3700 13.8317 0.5959
69.3900 13.8184 0.5937
69.4100 13.8050 0.5962
69.4300 13.7917 0.5915
69.4500 13.7784 0.5955
69.4700 13.7650 0.5908
69.4900 13.7517 0.5948
69.5100 13.7383 0.5891
69.5300 13.7250 0.5938
69.5500 13.7117 0.5881
69.5700 13.6983 0.5924
69.5900 13.6850 0.5889
69.6100 13.6717 0.5895
69.6300 13.6584 0.5882
69.6500 13.6451 0.5879
69.6700 13.6317 0.5879
69.6900 13.6184 0.5864
69.7100 13.6051 0.5877
69.7300 13.5917 0.5837
69.7500 13.5784 0.5871
69.7700 13.5650 0.5827
69.7900 13.5517 0.5863
69.8100 13.5384 0.5814
69.8300 13.5250 0.5855
69.8500 13.5117 0.5801
69.8700 13.4984 0.5843
69.8900 13.4851 0.5799
69.9100 13.4717 0.5824
69.9300 13.4584 0.5789
69.9500 13.4450 0.5814
69.9700 13.4318 0.5783
69.9900 13.4184 0.5791
70.0100 13.4051 0.5793
70.0300 13.3917 0.5766
70.0500 13.3784 0.5785
70.0700 13.3651 0.5755
70.0900 13.3517 0.5777
70.1100 13.3384 0.5739
70.1300 13.3250 0.5779
70.1500 13.3117 0.5726
70.1700 13.2984 0.5766
70.1900 13.2850 0.5726
70.2100 13.2717 0.5744
70.2300 13.2583 0.5725
70.2500 13.2451 0.5727
70.2700 13.2318 0.5715
70.2900 13.2184 0.5703
70.3100 13.2051 0.5720
70.3300 13.1918 0.5686
70.3500 13.1785 0.5713
70.3700 13.1651 0.5683
70.3900 13.1517 0.5693
70.4100 13.1384 0.5670
70.4300 13.1251 0.5691
70.4500 13.1117 0.5652
70.4700 13.0983 0.5677
70.4900 13.0850 0.5654
70.5100 13.0717 0.5655
70.5300 13.0584 0.5646
70.5500 13.0450 0.5651
70.5700 13.0317 0.5636
70.5900 13.0183 0.5634
70.6100 13.0050 0.5634
70.6300 12.9917 0.5610
70.6500 12.9784 0.5629
70.6700 12.9651 0.5602
70.6900 12.9518 0.5621
70.7100 12.9384 0.5580
70.7300 12.9251 0.5619
70.7500 12.9117 0.5568
70.7700 12.8984 0.5609
70.7900 12.8851 0.5554
70.8100 12.8717 0.5596
70.8300 12.8584 0.5542
70.8500 12.8450 0.5593
70.8700 12.8317 0.5543
70.8900 12.8184 0.5565
70.9100 12.8050 0.5549
70.9300 12.7916 0.5537
70.9500 12.7783 0.5545
70.9700 12.7650 0.5530
70.9900 12.7517 0.5538
71.0100 12.7384 0.5506
71.0300 12.7250 0.5542
71.0500 12.7117 0.5493
71.0700 12.6984 0.5527
71.0900 12.6851 0.5482
71.1100 12.6717 0.5517
71.1300 12.6584 0.5471
71.1500 12.6451 0.5504
71.1700 12.6317 0.5468
71.1900 12.6184 0.5483
71.2100 12.6050 0.5471
71.2300 12.5917 0.5456
71.2500 12.5784 0.5468
71.2700 12.5650 0.5443
71.2900 12.5517 0.5466
71.3100 12.5383 0.5421
71.3300 12.5251 0.5455
71.3500 12.5117 0.5418
71.3700 12.4984 0.5439
71.3900 12.4850 0.5414
71.4100 12.4717 0.5431
71.4300 12.4584 0.5397
71.4500 12.4451 0.5421
71.4700 12.4318 0.5387
71.4900 12.4184 0.5409
71.5100 12.4051 0.5387
71.5300 12.3918 0.5389
71.5500 12.3784 0.5376
71.5700 12.3650 0.5376
71.5900 12.3517 0.5371
71.6100 12.3384 0.5360
71.6300 12.3250 0.5370
71.6500 12.3116 0.5345
71.6700 12.2983 0.5359
71.6900 12.2850 0.5330
71.7100 12.2717 0.5355
71.7300 12.2584 0.5314
71.7500 12.2450 0.5352
71.7700 12.2317 0.5301
71.7900 12.2184 0.5331
71.8100 12.2051 0.5302
71.8300 12.1917 0.5315
71.8500 12.1784 0.5293
71.8700 12.1651 0.5300
71.8900 12.1518 0.5296
71.9100 12.1384 0.5270
71.9300 12.1250 0.5298
71.9500 12.1116 0.5259
71.9700 12.0983 0.5287
71.9900 12.0850 0.5250
72.0100 12.0716 0.5274
72.0300 12.0583 0.5237
72.0500 12.0450 0.5264
72.0700 12.0317 0.5236
72.0900 12.0184 0.5247
72.1100 12.0050 0.5233
72.1300 11.9917 0.5231
72.1500 11.9784 0.5217
72.1700 11.9651 0.5220
72.1900 11.9517 0.5221
72.2100 11.9384 0.5194
72.2300 11.9251 0.5219
72.2500 11.9117 0.5174
72.2700 11.8984 0.5204
72.2900 11.8850 0.5173
72.3100 11.8717 0.5197
72.3300 11.8584 0.5149
72.3500 11.8450 0.5190
72.3700 11.8317 0.5151
72.3900 11.8183 0.5168
72.4100 11.8050 0.5141
72.4300 11.7917 0.5163
72.4500 11.7784 0.5121
72.4700 11.7650 0.5155
72.4900 11.7517 0.5119
72.5100 11.7384 0.5128
72.5300 11.7251 0.5119
72.5500 11.7117 0.5115
72.5700 11.6984 0.5105
72.5900 11.6851 0.5105
72.6100 11.6718 0.5098
72.6300 11.6584 0.5079
72.6500 11.6450 0.5097
72.6700 11.6317 0.5070
72.6900 11.6184 0.5081
72.7100 11.6051 0.5054
72.7300 11.5917 0.5081
72.7500 11.5783 0.5044
72.7700 11.5650 0.5070
72.7900 11.5517 0.5037
72.8100 11.5384 0.5047
72.8300 11.5250 0.5039
72.8500 11.5117 0.5026
72.8700 11.4984 0.5026
72.8900 11.4851 0.5007
72.9100 11.4717 0.5031
72.9300 11.4584 0.4982
72.9500 11.4451 0.5027
72.9700 11.4318 0.4976
72.9900 11.4184 0.5007
73.0100 11.4050 0.4967
73.0300 11.3917 0.5005
73.0500 11.3784 0.4949
73.0700 11.3650 0.4987
73.0900 11.3517 0.4948
73.1100 11.3383 0.4969
73.1300 11.3250 0.4954
73.1500 11.3117 0.4943
73.1700 11.2984 0.4946
73.1900 11.2850 0.4926
73.2100 11.2717 0.4951
73.2300 11.2584 0.4907
73.2500 11.2451 0.4939
73.2700 11.2318 0.4896
73.2900 11.2184 0.4925
73.3100 11.2051 0.4896
73.3300 11.1917 0.4914
73.3500 11.1784 0.4876
73.3700 11.1650 0.4907
73.3900 11.1517 0.4872
73.4100 11.1384 0.4884
73.4300 11.1250 0.4871
73.4500 11.1117 0.4882
73.4700 11.0983 0.4861
73.4900 11.0850 0.4852
73.5100 11.0717 0.4866
73.5300 11.0583 0.4829
73.5500 11.0450 0.4856
73.5700 11.0317 0.4829
73.5900 11.0184 0.4839
73.6100 11.0051 0.4810
73.6300 10.9918 0.4833
73.6500 10.9784 0.4801
73.6700 10.9651 0.4828
73.6900 10.9518 0.4786
73.7100 10.9384 0.4807
73.7300 10.9250 0.4783
73.7500 10.9117 0.4800
73.7700 10.8983 0.4776
73.7900 10.8850 0.4768
73.8100 10.8717 0.4782
73.8300 10.8583 0.4748
73.8500 10.8450 0.4776
73.8700 10.8317 0.4741
73.8900 10.8184 0.4762
73.9100 10.8050 0.4722
73.9300 10.7917 0.4766
73.9500 10.7785 0.4704
73.9700 10.7651 0.4747
73.9900 10.7518 0.4701
74.0100 10.7384 0.4737
74.0300 10.7251 0.4695
74.0500 10.7118 0.4717
74.0700 10.6984 0.4684
74.0900 10.6850 0.4699
74.1100 10.6717 0.4699
74.1300 10.6583 0.4666
74.1500 10.6450 0.4688
74.1700 10.6317 0.4661
74.1900 10.6183 0.4675
74.2100 10.6050 0.4646
74.2300 10.5917 0.4672
74.2500 10.5784 0.4635
74.2700 10.5650 0.4657
74.2900 10.5517 0.4637
74.3100 10.5384 0.4641
74.3300 10.5251 0.4625
74.3500 10.5118 0.4625
74.3700 10.4984 0.4616
74.3900 10.4850 0.4607
74.4100 10.4717 0.4616
74.4300 10.4584 0.4593
74.4500 10.4450 0.4599
74.4700 10.4317 0.4584
74.4900 10.4184 0.4587
74.5100 10.4050 0.4564
74.5300 10.3917 0.4584
74.5500 10.3783 0.4553
74.5700 10.3650 0.4569
74.5900 10.3517 0.4543
74.6100 10.3384 0.4558
74.6300 10.3250 0.4530
74.6500 10.3117 0.4554
74.6700 10.2984 0.4520
74.6900 10.2851 0.4536
74.7100 10.2718 0.4508
74.7300 10.2584 0.4526
74.7500 10.2450 0.4503
74.7700 10.2317 0.4506
74.7900 10.2184 0.4503
74.8100 10.2050 0.4481
74.8300 10.1917 0.4510
74.8500 10.1783 0.4462
74.8700 10.1650 0.4500
74.8900 10.1517 0.4458
74.9100 10.1383 0.4483
74.9300 10.1250 0.4440
74.9500 10.1117 0.4474
74.9700 10.0984 0.4438
74.9900 10.0850 0.4449
75.0100 10.0717 0.4436
75.0300 10.0584 0.4435
75.0500 10.0451 0.4428
75.0700 10.0317 0.4423
75.0900 10.0184 0.4423
75.1100 10.0051 0.4392
75.1300 9.9918 0.4425
75.1500 9.9784 0.4372
75.1700 9.9651 0.4414
75.1900 9.9517 0.4367
75.2100 9.9384 0.4399
75.2300 9.9250 0.4362
75.2500 9.9117 0.4381
75.2700 9.8983 0.4362
75.2900 9.8850 0.4370
75.3100 9.8717 0.4349
75.3300 9.8584 0.4355
75.3500 9.8450 0.4341
75.3700 9.8317 0.4340
75.3900 9.8184 0.4334
75.4100 9.8051 0.4312
75.4300 9.7918 0.4339
75.4500 9.7784 0.4298
75.4700 9.7651 0.4322
75.4900 9.7517 0.4287
75.5100 9.7384 0.4312
75.5300 9.7250 0.4276
75.5500 9.7117 0.4304
75.5700 9.6983 0.4267
75.5900 9.6850 0.4288
75.6100 9.6717 0.4256
75.6300 9.6583 0.4282
75.6500 9.6450 0.4240
75.6700 9.6317 0.4274
75.6900 9.6184 0.4234
75.7100 9.6050 0.4250
75.7300 9.5917 0.4237
75.7500 9.5784 0.4226
75.7700 9.5651 0.4233
75.7900 9.5518 0.4214
75.8100 9.5384 0.4225
75.8300 9.5251 0.4188
75.8500 9.5118 0.4219
75.8700 9.4984 0.4184
75.8900 9.4850 0.4202
75.9100 9.4716 0.4176
75.9300 9.4583 0.4188
75.9500 9.4450 0.4157
75.9700 9.4317 0.4178
75.9900 9.4183 0.4160
76.0100 9.4050 0.4156
76.0300 9.3917 0.4156
76.0500 9.3784 0.4134
76.0700 9.3651 0.4146
76.0900 9.3517 0.4125
76.1100 9.3384 0.4146
76.1300 9.3251 0.4102
76.1500 9.3118 0.4138
76.1700 9.2984 0.4093
76.1900 9.2850 0.4118
76.2100 9.2717 0.4086
76.2300 9.2584 0.4110
76.2500 9.2450 0.4068
76.2700 9.2317 0.4093
76.2900 9.2183 0.4068
76.3100 9.2050 0.4077
76.3300 9.1917 0.4057
76.3500 9.1783 0.4068
76.3700 9.1650 0.4057
76.3900 9.1517 0.4043
76.4100 9.1384 0.4051
76.4300 9.1250 0.4027
76.4500 9.1117 0.4049
76.4700 9.0984 0.4011
76.4900 9.0851 0.4033
76.5100 9.0717 0.4005
76.5300 9.0584 0.4028
76.5500 9.0450 0.3985
76.5700 9.0317 0.4011
76.5900 9.0184 0.3978
76.6100 9.0051 0.3994
76.6300 8.9917 0.3966
76.6500 8.9783 0.3988
76.6700 8.9650 0.3954
76.6900 8.9517 0.3966
76.7100 8.9383 0.3956
76.7300 8.9250 0.3948
76.7500 8.9117 0.3951
76.7700 8.8984 0.3932
76.7900 8.8850 0.3944
76.8100 8.8717 0.3912
76.8300 8.8584 0.3943
76.8500 8.8451 0.3897
76.8700 8.8318 0.3926
76.8900 8.8184 0.3891
76.9100 8.8051 0.3916
76.9300 8.7917 0.3879
76.9500 8.7784 0.3901
76.9700 8.7651 0.3870
76.9900 8.7517 0.3882
77.0100 8.7384 0.3876
77.0300 8.7250 0.3850
77.0500 8.7117 0.3879
77.0700 8.6983 0.3838
77.0900 8.6850 0.3867
77.1100 8.6717 0.3821
77.1300 8.6584 0.3858
77.1500 8.6450 0.3812
77.1700 8.6317 0.3844
77.1900 8.6184 0.3801
77.2100 8.6051 0.3825
77.2300 8.5918 0.3792
77.2500 8.5784 0.3806
77.2700 8.5650 0.3783
77.2900 8.5517 0.3791
77.3100 8.5384 0.3780
77.3300 8.5251 0.3769
77.3500 8.5117 0.3770
77.3700 8.4983 0.3762
77.3900 8.4850 0.3761
77.4100 8.4717 0.3739
77.4300 8.4584 0.3756
77.4500 8.4450 0.3725
77.4700 8.4317 0.3741
77.4900 8.4184 0.3723
77.5100 8.4051 0.3724
77.5300 8.3917 0.3711
77.5500 8.3784 0.3719
77.5700 8.3651 0.3690
77.5900 8.3518 0.3705
77.6100 8.3384 0.3686
77.6300 8.3251 0.3689
77.6500 8.3117 0.3671
77.6700 8.2984 0.3673
77.6900 8.2850 0.3664
77.7100 8.2717 0.3659
77.7300 8.2583 0.3663
77.7500 8.2450 0.3635
77.7700 8.2317 0.3652
77.7900 8.2184 0.3634
77.8100 8.2050 0.3635
77.8300 8.1917 0.3613
77.8500 8.1784 0.3625
77.8700 8.1651 0.3603
77.8900 8.1517 0.3611
77.9100 8.1384 0.3597
77.9300 8.1251 0.3600
77.9500 8.1118 0.3588
77.9700 8.0984 0.3585
77.9900 8.0850 0.3583
78.0100 8.0717 0.3563
78.0300 8.0584 0.3584
78.0500 8.0451 0.3542
78.0700 8.0317 0.3566
78.0900 8.0183 0.3542
78.1100 8.0050 0.3546
78.1300 7.9917 0.3526
78.1500 7.9783 0.3542
78.1700 7.9650 0.3513
78.1900 7.9517 0.3521
78.2100 7.9384 0.3506
78.2300 7.9251 0.3508
78.2500 7.9117 0.3489
78.2700 7.8984 0.3494
78.2900 7.8851 0.3481
78.3100 7.8718 0.3477
78.3300 7.8584 0.3478
78.3500 7.8450 0.3461
78.3700 7.8317 0.3464
78.3900 7.8184 0.3448
78.4100 7.8050 0.3450
78.4300 7.7917 0.3435
78.4500 7.7783 0.3438
78.4700 7.7650 0.3419
78.4900 7.7517 0.3423
78.5100 7.7384 0.3410
78.5300 7.7250 0.3418
78.5500 7.7117 0.3387
78.5700 7.6984 0.3410
78.5900 7.6850 0.3377
78.6100 7.6717 0.3389
78.6300 7.6584 0.3378
78.6500 7.6451 0.3372
78.6700 7.6318 0.3363
78.6900 7.6184 0.3359
78.7100 7.6050 0.3362
78.7300 7.5917 0.3339
78.7500 7.5784 0.3353
78.7700 7.5651 0.3327
78.7900 7.5517 0.3340
78.8100 7.5383 0.3314
78.8300 7.5250 0.3335
78.8500 7.5117 0.3291
78.8700 7.4983 0.3324
78.8900 7.4850 0.3286
78.9100 7.4717 0.3301
78.9300 7.4584 0.3279
78.9500 7.4450 0.3289
78.9700 7.4317 0.3264
78.9900 7.4184 0.3273
79.0100 7.4051 0.3265
79.0300 7.3918 0.3240
79.0500 7.3785 0.3262
79.0700 7.3651 0.3230
79.0900 7.3517 0.3242
79.1100 7.3384 0.3213
79.1300 7.3251 0.3226
79.1500 7.3117 0.3203
79.1700 7.2983 0.3224
79.1900 7.2850 0.3184
79.2100 7.2717 0.3205
79.2300 7.2583 0.3180
79.2500 7.2450 0.3200
79.2700 7.2316 0.3167
79.2900 7.2183 0.3186
79.3100 7.2050 0.3162
79.3300 7.1917 0.3166
79.3500 7.1784 0.3151
79.3700 7.1651 0.3156
79.3900 7.1518 0.3136
79.4100 7.1384 0.3136
79.4300 7.1251 0.3138
79.4500 7.1117 0.3112
79.4700 7.0984 0.3128
79.4900 7.0851 0.3097
79.5100 7.0717 0.3120
79.5300 7.0584 0.3086
79.5500 7.0450 0.3120
79.5700 7.0317 0.3061
79.5900 7.0184 0.3104
79.6100 7.0050 0.3058
79.6300 6.9917 0.3084
79.6500 6.9784 0.3052
79.6700 6.9651 0.3063
79.6900 6.9517 0.3044
79.7100 6.9384 0.3044
79.7300 6.9251 0.3040
79.7500 6.9118 0.3015
79.7700 6.8984 0.3043
79.7900 6.8851 0.3005
79.8100 6.8718 0.3026
79.8300 6.8585 0.2988
79.8500 6.8451 0.3014
79.8700 6.8317 0.2971
79.8900 6.8183 0.3012
79.9100 6.8050 0.2961
79.9300 6.7917 0.2985
79.9500 6.7784 0.2962
79.9700 6.7650 0.2965
79.9900 6.7517 0.2954
80.0100 6.7384 0.2945
80.0300 6.7250 0.2950
80.0500 6.7117 0.2918
80.0700 6.6983 0.2944
80.0900 6.6850 0.2917
80.1100 6.6717 0.2924
80.1300 6.6584 0.2902
80.1500 6.6450 0.2922
80.1700 6.6317 0.2883
80.1900 6.6184 0.2913
80.2100 6.6051 0.2865
80.2300 6.5917 0.2891
80.2500 6.5783 0.2857
80.2700 6.5650 0.2879
80.2900 6.5517 0.2844
80.3100 6.5384 0.2860
80.3300 6.5250 0.2840
80.3500 6.5117 0.2842
80.3700 6.4983 0.2828
80.3900 6.4850 0.2831
80.4100 6.4717 0.2821
80.4300 6.4583 0.2812
80.4500 6.4450 0.2819
80.4700 6.4318 0.2781
80.4900 6.4184 0.2814
80.5100 6.4051 0.2765
80.5300 6.3917 0.2801
80.5500 6.3784 0.2758
80.5700 6.3651 0.2792
80.5900 6.3517 0.2736
80.6100 6.3383 0.2767
80.6300 6.3250 0.2748
80.6500 6.3117 0.2740
80.6700 6.2984 0.2741
80.6900 6.2850 0.2727
80.7100 6.2716 0.2729
80.7300 6.2583 0.2703
80.7500 6.2450 0.2728
80.7700 6.2317 0.2684
80.7900 6.2184 0.2730
80.8100 6.2051 0.2666
80.8300 6.1918 0.2709
80.8500 6.1784 0.2657
80.8700 6.1651 0.2697
80.8900 6.1518 0.2652
80.9100 6.1385 0.2666
80.9300 6.1251 0.2651
80.9500 6.1118 0.2643
80.9700 6.0984 0.2646
80.9900 6.0850 0.2638
81.0100 6.0717 0.2632
81.0300 6.0583 0.2616
81.0500 6.0450 0.2627
81.0700 6.0316 0.2597
81.0900 6.0184 0.2615
81.1100 6.0051 0.2597
81.1300 5.9917 0.2600
81.1500 5.9784 0.2570
81.1700 5.9651 0.2594
81.1900 5.9518 0.2557
81.2100 5.9385 0.2579
81.2300 5.9251 0.2547
81.2500 5.9117 0.2569
81.2700 5.8984 0.2526
81.2900 5.8851 0.2560
81.3100 5.8717 0.2513
81.3300 5.8583 0.2545
81.3500 5.8450 0.2515
81.3700 5.8317 0.2518
81.3900 5.8183 0.2505
81.4100 5.8050 0.2505
81.4300 5.7916 0.2509
81.4500 5.7784 0.2475
81.4700 5.7651 0.2510
81.4900 5.7517 0.2461
81.5100 5.7384 0.2494
81.5300 5.7251 0.2449
81.5500 5.7118 0.2482
81.5700 5.6985 0.2438
81.5900 5.6851 0.2459
81.6100 5.6717 0.2431
81.6300 5.6584 0.2439
81.6500 5.6450 0.2440
81.6700 5.6317 0.2419
81.6900 5.6183 0.2427
81.7100 5.6050 0.2403
81.7300 5.5917 0.2415
81.7500 5.5784 0.2385
81.7700 5.5650 0.2416
81.7900 5.5517 0.2364
81.8100 5.5384 0.2395
81.8300 5.5250 0.2353
81.8500 5.5117 0.2382
81.8700 5.4984 0.2342
81.8900 5.4851 0.2368
81.9100 5.4718 0.2332
81.9300 5.4585 0.2344
81.9500 5.4451 0.2323
81.9700 5.4317 0.2333
81.9900 5.4184 0.2308
82.0100 5.4051 0.2317
82.0300 5.3917 0.2302
82.0500 5.3783 0.2297
82.0700 5.3650 0.2294
82.0900 5.3517 0.2281
82.1100 5.3384 0.2283
82.1300 5.3250 0.2268
82.1500 5.3116 0.2276
82.1700 5.2983 0.2244
82.1900 5.2850 0.2274
82.2100 5.2717 0.2234
82.2300 5.2584 0.2250
82.2500 5.2451 0.2229
82.2700 5.2318 0.2235
82.2900 5.2184 0.2212
82.3100 5.2051 0.2224
82.3300 5.1917 0.2203
82.3500 5.1784 0.2202
82.3700 5.1651 0.2194
82.3900 5.1518 0.2180
82.4100 5.1384 0.2195
82.4300 5.1250 0.2164
82.4500 5.1117 0.2182
82.4700 5.0983 0.2135
82.4900 5.0850 0.2185
82.5100 5.0716 0.2125
82.5300 5.0583 0.2158
82.5500 5.0450 0.2125
82.5700 5.0317 0.2141
82.5900 5.0184 0.2110
82.6100 5.0051 0.2133
82.6300 4.9918 0.2102
82.6500 4.9785 0.2108
82.6700 4.9651 0.2101
82.6900 4.9517 0.2085
82.7100 4.9384 0.2092
82.7300 4.9251 0.2073
82.7500 4.9117 0.2089
82.7700 4.8983 0.2045
82.7900 4.8850 0.2089
82.8100 4.8717 0.2034
82.8300 4.8583 0.2061
82.8500 4.8450 0.2034
82.8700 4.8316 0.2051
82.8900 4.8183 0.2016
82.9100 4.8050 0.2034
82.9300 4.7917 0.2014
82.9500 4.7784 0.2016
82.9700 4.7650 0.2006
82.9900 4.7518 0.2009
83.0100 4.7385 0.1985
83.0300 4.7251 0.1988
83.0500 4.7118 0.1987
83.0700 4.6984 0.1954
83.0900 4.6851 0.1984
83.1100 4.6717 0.1948
83.1300 4.6583 0.1969
83.1500 4.6450 0.1935
83.1700 4.6317 0.1960
83.1900 4.6184 0.1911
83.2100 4.6050 0.1949
83.2300 4.5916 0.1908
83.2500 4.5783 0.1932
83.2700 4.5651 0.1899
83.2900 4.5517 0.1915
83.3100 4.5384 0.1888
83.3300 4.5251 0.1898
83.3500 4.5118 0.1897
83.3700 4.4985 0.1865
83.3900 4.4851 0.1893
83.4100 4.4717 0.1854
83.4300 4.4584 0.1878
83.4500 4.4451 0.1835
83.4700 4.4317 0.1880
83.4900 4.4183 0.1815
83.5100 4.4050 0.1870
83.5300 4.3917 0.1810
83.5500 4.3784 0.1840
83.5700 4.3650 0.1804
83.5900 4.3517 0.1832
83.6100 4.3383 0.1792
83.6300 4.3250 0.1813
83.6500 4.3117 0.1794
83.6700 4.2984 0.1785
83.6900 4.2850 0.1795
83.7100 4.2717 0.1775
83.7300 4.2584 0.1782
83.7500 4.2451 0.1752
83.7700 4.2317 0.1778
83.7900 4.2184 0.1721
83.8100 4.2051 0.1776
83.8300 4.1917 0.1715
83.8500 4.1784 0.1754
83.8700 4.1650 0.1724
83.8900 4.1517 0.1729
83.9100 4.1384 0.1704
83.9300 4.1250 0.1711
83.9500 4.1117 0.1711
83.9700 4.0983 0.1685
83.9900 4.0850 0.1701
84.0100 4.0717 0.1671
84.0300 4.0584 0.1694
84.0500 4.0450 0.1649
84.0700 4.0317 0.1695
84.0900 4.0184 0.1628
84.1100 4.0051 0.1680
84.1300 3.9917 0.1624
84.1500 3.9784 0.1657
84.1700 3.9651 0.1613
84.1900 3.9517 0.1645
84.2100 3.9384 0.1601
84.2300 3.9250 0.1621
84.2500 3.9117 0.1602
84.2700 3.8984 0.1594
84.2900 3.8850 0.1596
84.3100 3.8717 0.1580
84.3300 3.8583 0.1594
84.3500 3.8450 0.1560
84.3700 3.8317 0.1591
84.3900 3.8184 0.1538
84.4100 3.8050 0.1584
84.4300 3.7917 0.1529
84.4500 3.7784 0.1562
84.4700 3.7651 0.1518
84.4900 3.7517 0.1550
84.5100 3.7384 0.1510
84.5300 3.7251 0.1520
84.5500 3.7117 0.1509
84.5700 3.6984 0.1497
84.5900 3.6850 0.1501
84.6100 3.6716 0.1491
84.6300 3.6583 0.1484
84.6500 3.6450 0.1468
84.6700 3.6317 0.1488
84.6900 3.6183 0.1441
84.7100 3.6050 0.1482
84.7300 3.5917 0.1435
84.7500 3.5784 0.1464
84.7700 3.5651 0.1415
84.7900 3.5518 0.1453
84.8100 3.5385 0.1401
84.8300 3.5251 0.1437
84.8500 3.5117 0.1396
84.8700 3.4984 0.1413
84.8900 3.4850 0.1387
84.9100 3.4717 0.1403
84.9300 3.4583 0.1372
84.9500 3.4450 0.1385
84.9700 3.4317 0.1377
84.9900 3.4184 0.1351
85.0100 3.4050 0.1367
85.0300 3.3917 0.1342
85.0500 3.3783 0.1358
85.0700 3.3650 0.1321
85.0900 3.3517 0.1357
85.1100 3.3384 0.1301
85.1300 3.3251 0.1342
85.1500 3.3118 0.1298
85.1700 3.2984 0.1319
85.1900 3.2851 0.1282
85.2100 3.2717 0.1313
85.2300 3.2584 0.1258
85.2500 3.2451 0.1291
85.2700 3.2318 0.1261
85.2900 3.2184 0.1263
85.3100 3.2050 0.1252
85.3300 3.1917 0.1248
85.3500 3.1784 0.1248
85.3700 3.1650 0.1220
85.3900 3.1517 0.1245
85.4100 3.1383 0.1200
85.4300 3.1250 0.1231
85.4500 3.1118 0.1192
85.4700 3.0984 0.1210
85.4900 3.0851 0.1180
85.5100 3.0717 0.1207
85.5300 3.0584 0.1165
85.5500 3.0451 0.1184
85.5700 3.0317 0.1165
85.5900 3.0184 0.1167
85.6100 3.0050 0.1163
85.6300 2.9917 0.1152
85.6500 2.9784 0.1148
85.6700 2.9650 0.1124
85.6900 2.9517 0.1158
85.7100 2.9384 0.1099
85.7300 2.9250 0.1136
85.7500 2.9117 0.1100
85.7700 2.8984 0.1114
85.7900 2.8850 0.1078
85.8100 2.8717 0.1107
85.8300 2.8584 0.1063
85.8500 2.8450 0.1084
85.8700 2.8317 0.1058
85.8900 2.8184 0.1065
85.9100 2.8051 0.1041
85.9300 2.7918 0.1049
85.9500 2.7784 0.1035
85.9700 2.7651 0.1017
85.9900 2.7518 0.1032
86.0100 2.7384 0.0998
86.0300 2.7250 0.1017
86.0500 2.7117 0.0986
86.0700 2.6984 0.1005
86.0900 2.6850 0.0967
86.1100 2.6717 0.0993
86.1300 2.6583 0.0960
86.1500 2.6450 0.0964
86.1700 2.6317 0.0952
86.1900 2.6184 0.0950
86.2100 2.6050 0.0934
86.2300 2.5917 0.0941
86.2500 2.5784 0.0920
86.2700 2.5651 0.0914
86.2900 2.5517 0.0917
86.3100 2.5384 0.0902
86.3300 2.5251 0.0900
86.3500 2.5117 0.0886
86.3700 2.4984 0.0891
86.3900 2.4850 0.0857
86.4100 2.4717 0.0885
86.4300 2.4583 0.0840
86.4500 2.4450 0.0868
86.4700 2.4316 0.0831
86.4900 2.4183 0.0852
86.5100 2.4050 0.0809
86.5300 2.3917 0.0845
86.5500 2.3784 0.0803
86.5700 2.3650 0.0818
86.5900 2.3517 0.0797
86.6100 2.3384 0.0794
86.6300 2.3251 0.0787
86.6500 2.3118 0.0769
86.6700 2.2984 0.0784
86.6900 2.2851 0.0740
86.7100 2.2717 0.0775
86.7300 2.2584 0.0723
86.7500 2.2450 0.0756
86.7700 2.2317 0.0722
86.7900 2.2184 0.0733
86.8100 2.2050 0.0699
86.8300 2.1917 0.0727
86.8500 2.1783 0.0692
86.8700 2.1650 0.0700
86.8900 2.1517 0.0682
86.9100 2.1384 0.0680
86.9300 2.1250 0.0672
86.9500 2.1117 0.0667
86.9700 2.0984 0.0662
86.9900 2.0851 0.0629
87.0100 2.0717 0.0658
87.0300 2.0584 0.0620
87.0500 2.0451 0.0631
87.0700 2.0318 0.0609
87.0900 2.0184 0.0616
87.1100 2.0050 0.0587
87.1300 1.9917 0.0608
87.1500 1.9784 0.0577
87.1700 1.9651 0.0587
87.1900 1.9517 0.0559
87.2100 1.9384 0.0573
87.2300 1.9250 0.0538
87.2500 1.9117 0.0561
87.2700 1.8984 0.0529
87.2900 1.8850 0.0535
87.3100 1.8717 0.0527
87.3300 1.8584 0.0514
87.3500 1.8451 0.0507
87.3700 1.8317 0.0495
87.3900 1.8184 0.0500
87.4100 1.8051 0.0466
87.4300 1.7918 0.0491
87.4500 1.7784 0.0449
87.4700 1.7650 0.0466
87.4900 1.7517 0.0434
87.5100 1.7384 0.0461
87.5300 1.7250 0.0410
87.5500 1.7117 0.0440
87.5700 1.6983 0.0414
87.5900 1.6850 0.0403
87.6100 1.6717 0.0405
87.6300 1.6584 0.0384
87.6500 1.6450 0.0385
87.6700 1.6317 0.0366
87.6900 1.6184 0.0379
87.7100 1.6051 0.0330
87.7300 1.5918 0.0368
87.7500 1.5784 0.0325
87.7700 1.5651 0.0338
87.7900 1.5517 0.0313
87.8100 1.5384 0.0331
87.8300 1.5250 0.0284
87.8500 1.5117 0.0306
87.8700 1.4984 0.0281
87.8900 1.4851 0.0275
87.9100 1.4717 0.0278
87.9300 1.4583 0.0254
87.9500 1.4450 0.0262
87.9700 1.4317 0.0230
87.9900 1.4184 0.0251
88.0100 1.4050 0.0209
88.0300 1.3917 0.0240
88.0500 1.3784 0.0201
88.0700 1.3651 0.0210
88.0900 1.3518 0.0178
88.1100 1.3384 0.0206
88.1300 1.3251 0.0153
88.1500 1.3118 0.0186
88.1700 1.2984 0.0143
88.1900 1.2850 0.0159
88.2100 1.2717 0.0133
88.2300 1.2583 0.0143
88.2500 1.2450 0.0111
88.2700 1.2317 0.0117
88.2900 1.2183 0.0106
88.3100 1.2050 0.0089
88.3300 1.1917 0.0094
88.3500 1.1784 0.0075
88.3700 1.1651 0.0075
88.3900 1.1517 0.0059
88.4100 1.1384 0.0065
88.4300 1.1251 0.0026
88.4500 1.1118 0.0050
88.4700 1.0984 0.0018
88.4900 1.0850 0.0026
88.5100 1.0717 -0.0006
88.5300 1.0584 0.0009
88.5500 1.0450 -0.0021
88.5700 1.0316 -0.0017
88.5900 1.0183 -0.0017
88.6100 1.0050 -0.0054
88.6300 0.9917 -0.0029
88.6500 0.9783 -0.0074
88.6700 0.9650 -0.0044
88.6900 0.9517 -0.0094
88.7100 0.9384 -0.0054
88.7300 0.9251 -0.0118
88.7500 0.9117 -0.0069
88.7700 0.8984 -0.0130
88.7900 0.8851 -0.0103
88.8100 0.8718 -0.0138
88.8300 0.8584 -0.0120
88.8500 0.8450 -0.0145
88.8700 0.8317 -0.0151
88.8900 0.8184 -0.0140
88.9100 0.8050 -0.0178
88.9300 0.7916 -0.0146
88.9500 0.7783 -0.0194
88.9700 0.7650 -0.0162
88.9900 0.7517 -0.0168
89.0100 0.7384 -0.0107
89.0300 0.7250 -0.0156
89.0500 0.7117 -0.0128
89.0700 0.6984 -0.0171
89.0900 0.6850 -0.0160
89.1100 0.6717 -0.0195
89.1300 0.6584 -0.0169
89.1500 0.6451 -0.0225
89.1700 0.6318 -0.0197
89.1900 0.6184 -0.0232
89.2100 0.6050 -0.0226
89.2300 0.5917 -0.0249
89.2500 0.5784 -0.0250
89.2700 0.5650 -0.0258
89.2900 0.5517 -0.0275
89.3100 0.5383 -0.0260
89.3300 0.5250 -0.0307
89.3500 0.5117 -0.0272
89.3700 0.4983 -0.0313
89.3900 0.4850 -0.0285
89.4100 0.4717 -0.0327
89.4300 0.4584 -0.0296
89.4500 0.4450 -0.0340
89.4700 0.4317 -0.0313
89.4900 0.4184 -0.0332
89.5100 0.4051 -0.0339
89.5300 0.3918 -0.0337
89.5500 0.3784 -0.0346
89.5700 0.3651 -0.0328
89.5900 0.3518 -0.0368
89.6100 0.3384 -0.0303
89.6300 0.3251 -0.0376
89.6500 0.3117 -0.0308
89.6700 0.2983 -0.0364
89.6900 0.2850 -0.0320
89.7100 0.2717 -0.0365
89.7300 0.2583 -0.0315
89.7500 0.2449 -0.0362
89.7700 0.2317 -0.0327
89.7900 0.2184 -0.0352
89.8100 0.2050 -0.0337
89.8300 0.1917 -0.0339
89.8500 0.1784 -0.0338
89.8700 0.1651 -0.0342
89.8900 0.1518 -0.0353
89.9100 0.1384 -0.0333
89.9300 0.1250 -0.0352
89.9500 0.1117 -0.0341
89.9700 0.0984 -0.0345
89.9900 0.0850 -0.0344
90.0100 0.0717 -0.0340
90.0300 0.0583 -0.0334
90.0500 0.0450 -0.0347
90.0700 0.0317 -0.0335
90.0900 0.0183 -0.0350
90.1100 0.0050 -0.0321
90.1180 -0.0002 -0.0299
