Raw Data
Time Displacement Force
(s) (mm) (N)
0.0000 0.0000 -0.0062
0.0200 0.0001 -0.0003
0.0400 0.0018 0.0064
0.0600 0.0088 0.0103
0.0800 0.0203 -0.0018
0.1000 0.0326 0.0055
0.1200 0.0451 0.0048
0.1400 0.0585 0.0117
0.1600 0.0727 0.0087
0.1800 0.0871 0.0136
0.2000 0.1010 0.0148
0.2200 0.1147 0.0171
0.2400 0.1281 0.0210
0.2600 0.1414 0.0221
0.2800 0.1546 0.0260
0.3000 0.1680 0.0263
0.3200 0.1813 0.0317
0.3400 0.1947 0.0304
0.3600 0.2080 0.0366
0.3800 0.2213 0.0362
0.4000 0.2346 0.0411
0.4200 0.2480 0.0405
0.4400 0.2614 0.0461
0.4600 0.2747 0.0440
0.4800 0.2880 0.0502
0.5000 0.3014 0.0506
0.5200 0.3148 0.0533
0.5400 0.3281 0.0555
0.5600 0.3414 0.0587
0.5800 0.3547 0.0596
0.6000 0.3681 0.0627
0.6200 0.3815 0.0652
0.6400 0.3948 0.0658
0.6600 0.4080 0.0698
0.6800 0.4213 0.0707
0.7000 0.4347 0.0740
0.7200 0.4480 0.0752
0.7400 0.4613 0.0791
0.7600 0.4747 0.0793
0.7800 0.4880 0.0830
0.8000 0.5014 0.0849
0.8200 0.5147 0.0852
0.8400 0.5281 0.0901
0.8600 0.5414 0.0899
0.8800 0.5548 0.0940
0.9000 0.5681 0.0936
0.9200 0.5814 0.0997
0.9400 0.5948 0.0967
0.9600 0.6081 0.1039
0.9800 0.6214 0.1019
1.0000 0.6347 0.1069
1.0200 0.6480 0.1065
1.0400 0.6613 0.1115
1.0600 0.6747 0.1099
1.0800 0.6880 0.1148
1.1000 0.7013 0.1162
1.1200 0.7146 0.1169
1.1400 0.7280 0.1219
1.1600 0.7414 0.1207
1.1800 0.7547 0.1253
1.2000 0.7680 0.1245
1.2200 0.7814 0.1302
1.2400 0.7947 0.1285
1.2600 0.8081 0.1332
1.2800 0.8214 0.1340
1.3000 0.8347 0.1368
1.3200 0.8481 0.1374
1.3400 0.8615 0.1417
1.3600 0.8748 0.1412
1.3800 0.8881 0.1450
1.4000 0.9014 0.1463
1.4200 0.9148 0.1479
1.4400 0.9281 0.1497
1.4600 0.9414 0.1521
1.4800 0.9547 0.1544
1.5000 0.9680 0.1555
1.5200 0.9813 0.1591
1.5400 0.9947 0.1583
1.5600 1.0080 0.1625
1.5800 1.0214 0.1628
1.6000 1.0347 0.1660
1.6200 1.0481 0.1661
1.6400 1.0614 0.1712
1.6600 1.0748 0.1692
1.6800 1.0881 0.1747
1.7000 1.1015 0.1744
1.7200 1.1148 0.1776
1.7400 1.1281 0.1783
1.7600 1.1414 0.1815
1.7800 1.1547 0.1828
1.8000 1.1680 0.1835
1.8200 1.1813 0.1884
1.8400 1.1946 0.1864
1.8600 1.2080 0.1920
1.8800 1.2213 0.1897
1.9000 1.2347 0.1965
1.9200 1.2480 0.1927
1.9400 1.2614 0.2005
1.9600 1.2748 0.1968
1.9800 1.2881 0.2034
2.0000 1.3014 0.2015
2.0200 1.3148 0.2059
2.0400 1.3281 0.2047
2.0600 1.3415 0.2095
2.0800 1.3548 0.2098
2.1000 1.3681 0.2110
2.1200 1.3814 0.2151
2.1400 1.3947 0.2137
2.1600 1.4081 0.2183
2.1800 1.4213 0.2180
2.2000 1.4347 0.2217
2.2200 1.4480 0.2207
2.2400 1.4614 0.2255
2.2600 1.4747 0.2244
2.2800 1.4880 0.2283
2.3000 1.5014 0.2292
2.3200 1.5148 0.2310
2.3400 1.5281 0.2325
2.3600 1.5415 0.2343
2.3800 1.5548 0.2366
2.4000 1.5681 0.2364
2.4200 1.5815 0.2404
2.4400 1.5948 0.2391
2.4600 1.6081 0.2441
2.4800 1.6214 0.2430
2.5000 1.6347 0.2474
2.5200 1.6480 0.2460
2.5400 1.6613 0.2518
2.5600 1.6746 0.2498
2.5800 1.6880 0.2541
2.6000 1.7014 0.2536
2.6200 1.7147 0.2574
2.6400 1.7280 0.2562
2.6600 1.7414 0.2603
2.6800 1.7548 0.2605
2.7000 1.7682 0.2621
2.7200 1.7815 0.2653
2.7400 1.7948 0.2649
2.7600 1.8081 0.2691
2.7800 1.8215 0.2678
2.8000 1.8348 0.2733
2.8200 1.8481 0.2695
2.8400 1.8614 0.2778
2.8600 1.8747 0.2733
2.8800 1.8881 0.2799
2.9000 1.9014 0.2773
2.9200 1.9147 0.2830
2.9400 1.9280 0.2805
2.9600 1.9414 0.2858
2.9800 1.9547 0.2847
3.0000 1.9680 0.2878
3.0200 1.9814 0.2892
3.0400 1.9948 0.2900
3.0600 2.0081 0.2928
3.0800 2.0214 0.2931
3.1000 2.0347 0.2976
3.1200 2.0481 0.2954
3.1400 2.0615 0.3012
3.1600 2.0748 0.2998
3.1800 2.0881 0.3020
3.2000 2.1014 0.3042
3.2200 2.1147 0.3042
3.2400 2.1281 0.3067
3.2600 2.1414 0.3074
3.2800 2.1547 0.3109
3.3000 2.1680 0.3092
3.3200 2.1814 0.3149
3.3400 2.1947 0.3128
3.3600 2.2080 0.3173
3.3800 2.2214 0.3165
3.4000 2.2347 0.3214
3.4200 2.2481 0.3182
3.4400 2.2614 0.3239
3.4600 2.2747 0.3226
3.4800 2.2881 0.3259
3.5000 2.3014 0.3260
3.5200 2.3148 0.3295
3.5400 2.3281 0.3279
3.5600 2.3414 0.3329
3.5800 2.3547 0.3318
3.6000 2.3681 0.3350
3.6200 2.3814 0.3358
3.6400 2.3946 0.3390
3.6600 2.4080 0.3381
3.6800 2.4213 0.3414
3.7000 2.4347 0.3427
3.7200 2.4480 0.3430
3.7400 2.4614 0.3467
3.7600 2.4748 0.3453
3.7800 2.4881 0.3482
3.8000 2.5015 0.3486
3.8200 2.5148 0.3524
3.8400 2.5281 0.3511
3.8600 2.5415 0.3562
3.8800 2.5548 0.3546
3.9000 2.5680 0.3581
3.9200 2.5813 0.3586
3.9400 2.5947 0.3610
3.9600 2.6081 0.3609
3.9800 2.6214 0.3632
4.0000 2.6347 0.3659
4.0200 2.6480 0.3646
4.0400 2.6614 0.3693
4.0600 2.6747 0.3674
4.0800 2.6881 0.3712
4.1000 2.7014 0.3701
4.1200 2.7148 0.3745
4.1400 2.7281 0.3719
4.1600 2.7414 0.3769
4.1800 2.7547 0.3764
4.2000 2.7681 0.3795
4.2200 2.7814 0.3802
4.2400 2.7948 0.3826
4.2600 2.8081 0.3826
4.2800 2.8214 0.3853
4.3000 2.8347 0.3877
4.3200 2.8481 0.3864
4.3400 2.8614 0.3912
4.3600 2.8747 0.3904
4.3800 2.8880 0.3932
4.4000 2.9014 0.3925
4.4200 2.9147 0.3972
4.4400 2.9281 0.3946
4.4600 2.9414 0.4003
4.4800 2.9548 0.3984
4.5000 2.9681 0.4030
4.5200 2.9814 0.4015
4.5400 2.9947 0.4067
4.5600 3.0081 0.4036
4.5800 3.0214 0.4093
4.6000 3.0348 0.4070
4.6200 3.0481 0.4105
4.6400 3.0614 0.4106
4.6600 3.0747 0.4139
4.6800 3.0881 0.4140
4.7000 3.1014 0.4155
4.7200 3.1147 0.4185
4.7400 3.1280 0.4169
4.7600 3.1414 0.4222
4.7800 3.1547 0.4200
4.8000 3.1681 0.4245
4.8200 3.1814 0.4229
4.8400 3.1948 0.4283
4.8600 3.2081 0.4249
4.8800 3.2215 0.4303
4.9000 3.2347 0.4298
4.9200 3.2480 0.4318
4.9400 3.2614 0.4331
4.9600 3.2747 0.4346
4.9800 3.2880 0.4364
5.0000 3.3013 0.4360
5.0200 3.3147 0.4401
5.0400 3.3281 0.4367
5.0600 3.3414 0.4429
5.0800 3.3547 0.4403
5.1000 3.3680 0.4444
5.1200 3.3814 0.4437
5.1400 3.3947 0.4471
5.1600 3.4080 0.4471
5.1800 3.4214 0.4482
5.2000 3.4347 0.4500
5.2200 3.4481 0.4503
5.2400 3.4614 0.4529
5.2600 3.4747 0.4536
5.2800 3.4881 0.4560
5.3000 3.5014 0.4560
5.3200 3.5148 0.4601
5.3400 3.5281 0.4579
5.3600 3.5414 0.4632
5.3800 3.5547 0.4616
5.4000 3.5681 0.4644
5.4200 3.5814 0.4637
5.4400 3.5947 0.4684
5.4600 3.6080 0.4659
5.4800 3.6213 0.4710
5.5000 3.6347 0.4690
5.5200 3.6480 0.4737
5.5400 3.6613 0.4716
5.5600 3.6747 0.4779
5.5800 3.6881 0.4735
5.6000 3.7014 0.4792
5.6200 3.7148 0.4787
5.6400 3.7281 0.4807
5.6600 3.7415 0.4819
5.6800 3.7548 0.4829
5.7000 3.7681 0.4851
5.7200 3.7814 0.4848
5.7400 3.7947 0.4887
5.7600 3.8081 0.4859
5.7800 3.8214 0.4906
5.8000 3.8347 0.4904
5.8200 3.8480 0.4934
5.8400 3.8613 0.4924
5.8600 3.8747 0.4965
5.8800 3.8880 0.4951
5.9000 3.9013 0.4981
5.9200 3.9147 0.4999
5.9400 3.9281 0.4985
5.9600 3.9414 0.5019
5.9800 3.9548 0.5002
6.0000 3.9681 0.5044
6.0200 3.9814 0.5026
6.0400 3.9948 0.5082
6.0600 4.0081 0.5054
6.0800 4.0214 0.5103
6.1000 4.0347 0.5095
6.1200 4.0480 0.5126
6.1400 4.0614 0.5126
6.1600 4.0747 0.5155
6.1800 4.0880 0.5156
6.2000 4.1014 0.5172
6.2200 4.1147 0.5191
6.2400 4.1281 0.5191
6.2600 4.1414 0.5212
6.2800 4.1548 0.5219
6.3000 4.1681 0.5243
6.3200 4.1814 0.5236
6.3400 4.1947 0.5282
6.3600 4.2080 0.5264
6.3800 4.2214 0.5302
6.4000 4.2347 0.5294
6.4200 4.2481 0.5330
6.4400 4.2614 0.5317
6.4600 4.2747 0.5362
6.4800 4.2881 0.5338
6.5000 4.3014 0.5378
6.5200 4.3147 0.5378
6.5400 4.3280 0.5399
6.5600 4.3413 0.5394
6.5800 4.3547 0.5424
6.6000 4.3680 0.5432
6.6200 4.3813 0.5433
6.6400 4.3947 0.5469
6.6600 4.4081 0.5453
6.6800 4.4214 0.5490
6.7000 4.4348 0.5486
6.7200 4.4481 0.5522
6.7400 4.4614 0.5505
6.7600 4.4748 0.5544
6.7800 4.4881 0.5537
6.8000 4.5014 0.5554
6.8200 4.5147 0.5570
6.8400 4.5281 0.5569
6.8600 4.5414 0.5586
6.8800 4.5547 0.5591
6.9000 4.5680 0.5623
6.9200 4.5813 0.5600
6.9400 4.5947 0.5660
6.9600 4.6080 0.5626
6.9800 4.6213 0.5682
7.0000 4.6347 0.5658
7.0200 4.6481 0.5705
7.0400 4.6615 0.5673
7.0600 4.6748 0.5744
7.0800 4.6881 0.5709
7.1000 4.7015 0.5748
7.1200 4.7148 0.5746
7.1400 4.7281 0.5773
7.1600 4.7414 0.5769
7.1800 4.7547 0.5801
7.2000 4.7681 0.5790
7.2200 4.7814 0.5813
7.2400 4.7947 0.5821
7.2600 4.8080 0.5821
7.2800 4.8213 0.5838
7.3000 4.8347 0.5838
7.3200 4.8480 0.5879
7.3400 4.8613 0.5860
7.3600 4.8747 0.5907
7.3800 4.8881 0.5898
7.4000 4.9014 0.5910
7.4200 4.9148 0.5925
7.4400 4.9281 0.5945
7.4600 4.9415 0.5947
7.4800 4.9548 0.5974
7.5000 4.9682 0.5972
7.5200 4.9814 0.5990
7.5400 4.9947 0.6008
7.5600 5.0081 0.6008
7.5800 5.0214 0.6031
7.6000 5.0347 0.6035
7.6200 5.0480 0.6065
7.6400 5.0613 0.6048
7.6600 5.0747 0.6092
7.6800 5.0880 0.6072
7.7000 5.1014 0.6112
7.7200 5.1147 0.6099
7.7400 5.1281 0.6130
7.7600 5.1415 0.6120
7.7800 5.1548 0.6157
7.8000 5.1681 0.6150
7.8200 5.1814 0.6163
7.8400 5.1948 0.6178
7.8600 5.2081 0.6191
7.8800 5.2214 0.6210
7.9000 5.2347 0.6208
7.9200 5.2480 0.6247
7.9400 5.2614 0.6212
7.9600 5.2747 0.6267
7.9800 5.2880 0.6231
8.0000 5.3013 0.6281
8.0200 5.3147 0.6262
8.0400 5.3280 0.6301
8.0600 5.3414 0.6290
8.0800 5.3547 0.6329
8.1000 5.3681 0.6324
8.1200 5.3815 0.6339
8.1400 5.3948 0.6350
8.1600 5.4081 0.6370
8.1800 5.4214 0.6373
8.2000 5.4348 0.6384
8.2200 5.4481 0.6412
8.2400 5.4614 0.6395
8.2600 5.4747 0.6433
8.2800 5.4880 0.6409
8.3000 5.5014 0.6441
8.3200 5.5147 0.6442
8.3400 5.5280 0.6470
8.3600 5.5413 0.6461
8.3800 5.5547 0.6491
8.4000 5.5680 0.6491
8.4200 5.5814 0.6502
8.4400 5.5947 0.6522
8.4600 5.6081 0.6527
8.4800 5.6214 0.6533
8.5000 5.6347 0.6539
8.5200 5.6480 0.6573
8.5400 5.6614 0.6549
8.5600 5.6748 0.6603
8.5800 5.6881 0.6575
8.6000 5.7014 0.6623
8.6200 5.7148 0.6604
8.6400 5.7281 0.6649
8.6600 5.7415 0.6616
8.6800 5.7548 0.6669
8.7000 5.7680 0.6659
8.7200 5.7813 0.6683
8.7400 5.7947 0.6682
8.7600 5.8080 0.6708
8.7800 5.8213 0.6696
8.8000 5.8347 0.6725
8.8200 5.8481 0.6737
8.8400 5.8615 0.6737
8.8600 5.8748 0.6763
8.8800 5.8881 0.6755
8.9000 5.9015 0.6788
8.9200 5.9148 0.6764
8.9400 5.9282 0.6803
8.9600 5.9414 0.6779
8.9800 5.9547 0.6823
9.0000 5.9681 0.6822
9.0200 5.9814 0.6834
9.0400 5.9947 0.6850
9.0600 6.0080 0.6860
9.0800 6.0213 0.6872
9.1000 6.0347 0.6876
9.1200 6.0480 0.6908
9.1400 6.0614 0.6886
9.1600 6.0747 0.6933
9.1800 6.0881 0.6912
9.2000 6.1014 0.6935
9.2200 6.1148 0.6928
9.2400 6.1281 0.6964
9.2600 6.1414 0.6952
9.2800 6.1548 0.6981
9.3000 6.1681 0.6989
9.3200 6.1814 0.6997
9.3400 6.1947 0.7014
9.3600 6.2080 0.7013
9.3800 6.2214 0.7023
9.4000 6.2347 0.7026
9.4200 6.2480 0.7054
9.4400 6.2613 0.7046
9.4600 6.2747 0.7076
9.4800 6.2880 0.7074
9.5000 6.3014 0.7102
9.5200 6.3147 0.7091
9.5400 6.3281 0.7130
9.5600 6.3414 0.7108
9.5800 6.3548 0.7146
9.6000 6.3681 0.7141
9.6200 6.3814 0.7162
9.6400 6.3948 0.7160
9.6600 6.4081 0.7181
9.6800 6.4214 0.7190
9.7000 6.4347 0.7198
9.7200 6.4480 0.7226
9.7400 6.4614 0.7210
9.7600 6.4747 0.7241
9.7800 6.4880 0.7234
9.8000 6.5013 0.7262
9.8200 6.5147 0.7251
9.8400 6.5280 0.7293
9.8600 6.5414 0.7264
9.8800 6.5547 0.7309
9.9000 6.5681 0.7296
9.9200 6.5815 0.7318
9.9400 6.5948 0.7315
9.9600 6.6081 0.7339
9.9800 6.6214 0.7334
10.0000 6.6348 0.7334
10.0200 6.6481 0.7360
10.0400 6.6614 0.7340
10.0600 6.6747 0.7385
10.0800 6.6880 0.7365
10.1000 6.7014 0.7407
10.1200 6.7147 0.7389
10.1400 6.7280 0.7437
10.1600 6.7414 0.7412
10.1800 6.7547 0.7453
10.2000 6.7680 0.7441
10.2200 6.7813 0.7468
10.2400 6.7947 0.7465
10.2600 6.8081 0.7495
10.2800 6.8215 0.7488
10.3000 6.8348 0.7494
10.3200 6.8481 0.7527
10.3400 6.8614 0.7515
10.3600 6.8747 0.7549
10.3800 6.8881 0.7538
10.4000 6.9014 0.7562
10.4200 6.9147 0.7560
10.4400 6.9280 0.7594
10.4600 6.9414 0.7581
10.4800 6.9547 0.7612
10.5000 6.9680 0.7603
10.5200 6.9813 0.7632
10.5400 6.9947 0.7618
10.5600 7.0080 0.7662
10.5800 7.0213 0.7642
10.6000 7.0347 0.7664
10.6200 7.0480 0.7656
10.6400 7.0614 0.7663
10.6600 7.0748 0.7670
10.6800 7.0881 0.7694
10.7000 7.1014 0.7699
10.7200 7.1148 0.7705
10.7400 7.1281 0.7723
10.7600 7.1414 0.7713
10.7800 7.1547 0.7744
10.8000 7.1680 0.7739
10.8200 7.1814 0.7772
10.8400 7.1947 0.7754
10.8600 7.2080 0.7795
10.8800 7.2213 0.7790
10.9000 7.2347 0.7806
10.9200 7.2480 0.7819
10.9400 7.2613 0.7822
10.9600 7.2747 0.7829
10.9800 7.2881 0.7832
11.0000 7.3015 0.7852
11.0200 7.3148 0.7848
11.0400 7.3281 0.7886
11.0600 7.3415 0.7867
11.0800 7.3548 0.7904
11.1000 7.3682 0.7885
11.1200 7.3814 0.7938
11.1400 7.3947 0.7899
11.1600 7.4080 0.7967
11.1800 7.4214 0.7920
11.2000 7.4347 0.7957
11.2200 7.4480 0.7933
11.2400 7.4613 0.7977
11.2600 7.4747 0.7963
11.2800 7.4881 0.7994
11.3000 7.5014 0.8001
11.3200 7.5147 0.8003
11.3400 7.5281 0.8034
11.3600 7.5415 0.8022
11.3800 7.5548 0.8052
11.4000 7.5681 0.8048
11.4200 7.5814 0.8072
11.4400 7.5948 0.8065
11.4600 7.6081 0.8097
11.4800 7.6214 0.8088
11.5000 7.6347 0.8123
11.5200 7.6480 0.8110
11.5400 7.6614 0.8142
11.5600 7.6747 0.8127
11.5800 7.6880 0.8160
11.6000 7.7013 0.8159
11.6200 7.7147 0.8168
11.6400 7.7280 0.8181
11.6600 7.7414 0.8190
11.6800 7.7547 0.8199
11.7000 7.7681 0.8205
11.7200 7.7814 0.8239
11.7400 7.7948 0.8205
11.7600 7.8081 0.8261
11.7800 7.8214 0.8220
11.8000 7.8348 0.8274
11.8200 7.8481 0.8243
11.8400 7.8614 0.8295
11.8600 7.8747 0.8261
11.8800 7.8880 0.8311
11.9000 7.9014 0.8301
11.9200 7.9147 0.8316
11.9400 7.9280 0.8336
11.9600 7.9413 0.8335
11.9800 7.9547 0.8359
12.0000 7.9681 0.8347
12.0200 7.9814 0.8388
12.0400 7.9947 0.8366
12.0600 8.0081 0.8411
12.0800 8.0214 0.8387
12.1000 8.0348 0.8430
12.1200 8.0481 0.8407
12.1400 8.0614 0.8462
12.1600 8.0747 0.8424
12.1800 8.0881 0.8474
12.2000 8.1014 0.8457
12.2200 8.1147 0.8477
12.2400 8.1280 0.8484
12.2600 8.1414 0.8503
12.2800 8.1547 0.8509
12.3000 8.1680 0.8509
12.3200 8.1813 0.8535
12.3400 8.1947 0.8509
12.3600 8.2080 0.8556
12.3800 8.2214 0.8536
12.4000 8.2347 0.8572
12.4200 8.2480 0.8560
12.4400 8.2614 0.8595
12.4600 8.2748 0.8575
12.4800 8.2881 0.8596
12.5000 8.3014 0.8575
12.5200 8.3148 0.8595
12.5400 8.3281 0.8608
12.5600 8.3415 0.8616
12.5800 8.3548 0.8643
12.6000 8.3681 0.8635
12.6200 8.3814 0.8672
12.6400 8.3947 0.8650
12.6600 8.4080 0.8696
12.6800 8.4213 0.8674
12.7000 8.4347 0.8718
12.7200 8.4480 0.8691
12.7400 8.4613 0.8740
12.7600 8.4746 0.8709
12.7800 8.4880 0.8760
12.8000 8.5014 0.8738
12.8200 8.5148 0.8767
12.8400 8.5281 0.8762
12.8600 8.5414 0.8790
12.8800 8.5548 0.8791
12.9000 8.5682 0.8803
12.9200 8.5815 0.8803
12.9400 8.5948 0.8789
12.9600 8.6081 0.8818
12.9800 8.6214 0.8816
13.0000 8.6347 0.8840
13.0200 8.6480 0.8837
13.0400 8.6613 0.8881
13.0600 8.6746 0.8851
13.0800 8.6880 0.8893
13.1000 8.7013 0.8870
13.1200 8.7147 0.8904
13.1400 8.7280 0.8883
13.1600 8.7414 0.8925
13.1800 8.7548 0.8910
13.2000 8.7681 0.8949
13.2200 8.7814 0.8932
13.2400 8.7947 0.8970
13.2600 8.8081 0.8962
13.2800 8.8214 0.8991
13.3000 8.8347 0.8978
13.3200 8.8480 0.9000
13.3400 8.8614 0.9014
13.3600 8.8747 0.9021
13.3800 8.8880 0.9032
13.4000 8.9013 0.9041
13.4200 8.9147 0.9054
13.4400 8.9281 0.9062
13.4600 8.9414 0.9076
13.4800 8.9547 0.9077
13.5000 8.9681 0.9093
13.5200 8.9814 0.9106
13.5400 8.9947 0.9106
13.5600 9.0081 0.9131
13.5800 9.0214 0.9136
13.6000 9.0347 0.9145
13.6200 9.0481 0.9145
13.6400 9.0615 0.9171
13.6600 9.0748 0.9160
13.6800 9.0881 0.9176
13.7000 9.1014 0.9176
13.7200 9.1148 0.9200
13.7400 9.1281 0.9195
13.7600 9.1414 0.9232
13.7800 9.1547 0.9218
13.8000 9.1680 0.9248
13.8200 9.1814 0.9241
13.8400 9.1947 0.9251
13.8600 9.2080 0.9237
13.8800 9.2214 0.9258
13.9000 9.2348 0.9258
13.9200 9.2481 0.9275
13.9400 9.2614 0.9303
13.9600 9.2748 0.9297
13.9800 9.2881 0.9326
14.0000 9.3015 0.9318
14.0200 9.3148 0.9347
14.0400 9.3281 0.9340
14.0600 9.3414 0.9376
14.0800 9.3548 0.9359
14.1000 9.3681 0.9391
14.1200 9.3814 0.9387
14.1400 9.3947 0.9396
14.1600 9.4080 0.9405
14.1800 9.4213 0.9403
14.2000 9.4347 0.9435
14.2200 9.4480 0.9422
14.2400 9.4614 0.9464
14.2600 9.4748 0.9440
14.2800 9.4881 0.9481
14.3000 9.5014 0.9446
14.3200 9.5148 0.9477
14.3400 9.5281 0.9455
14.3600 9.5415 0.9508
14.3800 9.5548 0.9489
14.4000 9.5681 0.9530
14.4200 9.5814 0.9522
14.4400 9.5947 0.9545
14.4600 9.6081 0.9552
14.4800 9.6214 0.9560
14.5000 9.6347 0.9582
14.5200 9.6480 0.9574
14.5400 9.6614 0.9609
14.5600 9.6747 0.9585
14.5800 9.6880 0.9636
14.6000 9.7014 0.9607
14.6200 9.7147 0.9649
14.6400 9.7281 0.9616
14.6600 9.7414 0.9662
14.6800 9.7548 0.9633
14.7000 9.7681 0.9676
14.7200 9.7815 0.9659
14.7400 9.7948 0.9702
14.7600 9.8081 0.9695
14.7800 9.8214 0.9716
14.8000 9.8347 0.9705
14.8200 9.8481 0.9702
14.8400 9.8613 0.9720
14.8600 9.8747 0.9722
14.8800 9.8880 0.9753
14.9000 9.9014 0.9745
14.9200 9.9147 0.9775
14.9400 9.9280 0.9769
14.9600 9.9414 0.9805
14.9800 9.9548 0.9799
15.0000 9.9681 0.9826
15.0200 9.9814 0.9822
15.0400 9.9947 0.9845
15.0600 10.0081 0.9844
15.0800 10.0215 0.9857
15.1000 10.0348 0.9865
15.1200 10.0480 0.9853
15.1400 10.0613 0.9900
15.1600 10.0747 0.9872
15.1800 10.0880 0.9927
15.2000 10.1013 0.9899
15.2200 10.1147 0.9962
15.2400 10.1280 0.9908
15.2600 10.1414 0.9973
15.2800 10.1547 0.9937
15.3000 10.1681 0.9993
15.3200 10.1814 0.9965
15.3400 10.1948 1.0012
15.3600 10.2081 0.9991
15.3800 10.2214 1.0021
15.4000 10.2348 1.0029
15.4200 10.2481 1.0035
15.4400 10.2614 1.0052
15.4600 10.2747 1.0034
15.4800 10.2880 1.0067
15.5000 10.3013 1.0056
15.5200 10.3147 1.0099
15.5400 10.3280 1.0071
15.5600 10.3413 1.0126
15.5800 10.3547 1.0103
15.6000 10.3680 1.0140
15.6200 10.3814 1.0121
15.6400 10.3947 1.0145
15.6600 10.4080 1.0106
15.6800 10.4214 1.0132
15.7000 10.4348 1.0135
15.7200 10.4481 1.0157
15.7400 10.4614 1.0174
15.7600 10.4747 1.0181
15.7800 10.4881 1.0204
15.8000 10.5014 1.0203
15.8200 10.5148 1.0239
15.8400 10.5281 1.0221
15.8600 10.5414 1.0251
15.8800 10.5548 1.0242
15.9000 10.5681 1.0261
15.9200 10.5814 1.0265
15.9400 10.5947 1.0290
15.9600 10.6080 1.0287
15.9800 10.6213 1.0311
16.0000 10.6347 1.0301
16.0200 10.6480 1.0297
16.0400 10.6614 1.0308
16.0600 10.6748 1.0317
16.0800 10.6881 1.0346
16.1000 10.7015 1.0340
16.1200 10.7148 1.0389
16.1400 10.7281 1.0355
16.1600 10.7415 1.0419
16.1800 10.7548 1.0380
16.2000 10.7681 1.0440
16.2200 10.7814 1.0414
16.2400 10.7947 1.0457
16.2600 10.8080 1.0426
16.2800 10.8213 1.0467
16.3000 10.8346 1.0452
16.3200 10.8480 1.0473
16.3400 10.8613 1.0483
16.3600 10.8747 1.0496
16.3800 10.8880 1.0511
16.4000 10.9014 1.0500
16.4200 10.9148 1.0538
16.4400 10.9281 1.0510
16.4600 10.9414 1.0559
16.4800 10.9548 1.0540
16.5000 10.9681 1.0576
16.5200 10.9815 1.0551
16.5400 10.9948 1.0580
16.5600 11.0081 1.0578
16.5800 11.0214 1.0602
16.6000 11.0347 1.0621
16.6200 11.0481 1.0618
16.6400 11.0614 1.0648
16.6600 11.0747 1.0641
16.6800 11.0880 1.0672
16.7000 11.1014 1.0660
16.7200 11.1147 1.0683
16.7400 11.1280 1.0647
16.7600 11.1414 1.0674
16.7800 11.1547 1.0674
16.8000 11.1681 1.0704
16.8200 11.1814 1.0707
16.8400 11.1948 1.0738
16.8600 11.2081 1.0731
16.8800 11.2215 1.0746
16.9000 11.2348 1.0758
16.9200 11.2481 1.0761
16.9400 11.2614 1.0778
16.9600 11.2747 1.0795
16.9800 11.2881 1.0796
17.0000 11.3014 1.0817
17.0200 11.3147 1.0833
17.0400 11.3280 1.0831
17.0600 11.3414 1.0855
17.0800 11.3547 1.0852
17.1000 11.3680 1.0886
17.1200 11.3814 1.0868
17.1400 11.3948 1.0907
17.1600 11.4081 1.0874
17.1800 11.4215 1.0915
17.2000 11.4348 1.0910
17.2200 11.4481 1.0933
17.2400 11.4614 1.0931
17.2600 11.4747 1.0955
17.2800 11.4880 1.0943
17.3000 11.5014 1.0929
17.3200 11.5147 1.0945
17.3400 11.5281 1.0943
17.3600 11.5414 1.0982
17.3800 11.5547 1.0974
17.4000 11.5680 1.1014
17.4200 11.5814 1.0993
17.4400 11.5947 1.1044
17.4600 11.6080 1.1010
17.4800 11.6214 1.1034
17.5000 11.6347 1.1039
17.5200 11.6481 1.1049
17.5400 11.6614 1.1073
17.5600 11.6747 1.1074
17.5800 11.6880 1.1107
17.6000 11.7014 1.1082
17.6200 11.7148 1.1133
17.6400 11.7281 1.1110
17.6600 11.7414 1.1150
17.6800 11.7547 1.1146
17.7000 11.7681 1.1162
17.7200 11.7814 1.1148
17.7400 11.7947 1.1179
17.7600 11.8080 1.1164
17.7800 11.8213 1.1197
17.8000 11.8347 1.1192
17.8200 11.8480 1.1219
17.8400 11.8614 1.1209
17.8600 11.8747 1.1245
17.8800 11.8881 1.1238
17.9000 11.9014 1.1254
17.9200 11.9147 1.1222
17.9400 11.9281 1.1234
17.9600 11.9414 1.1224
17.9800 11.9548 1.1264
18.0000 11.9681 1.1274
18.0200 11.9814 1.1283
18.0400 11.9947 1.1320
18.0600 12.0081 1.1289
18.0800 12.0214 1.1323
18.1000 12.0347 1.1303
18.1200 12.0480 1.1349
18.1400 12.0613 1.1325
18.1600 12.0747 1.1373
18.1800 12.0880 1.1358
18.2000 12.1014 1.1387
18.2200 12.1148 1.1389
18.2400 12.1282 1.1406
18.2600 12.1415 1.1411
18.2800 12.1548 1.1417
18.3000 12.1682 1.1449
18.3200 12.1815 1.1422
18.3400 12.1948 1.1471
18.3600 12.2081 1.1443
18.3800 12.2214 1.1476
18.4000 12.2347 1.1458
18.4200 12.2480 1.1496
18.4400 12.2613 1.1481
18.4600 12.2746 1.1513
18.4800 12.2880 1.1519
18.5000 12.3014 1.1523
18.5200 12.3147 1.1548
18.5400 12.3281 1.1543
18.5600 12.3414 1.1569
18.5800 12.3548 1.1560
18.6000 12.3681 1.1595
18.6200 12.3814 1.1573
18.6400 12.3947 1.1620
18.6600 12.4081 1.1585
18.6800 12.4214 1.1608
18.7000 12.4348 1.1603
18.7200 12.4481 1.1632
18.7400 12.4614 1.1626
18.7600 12.4747 1.1657
18.7800 12.4881 1.1648
18.8000 12.5014 1.1666
18.8200 12.5147 1.1638
18.8400 12.5280 1.1627
18.8600 12.5413 1.1640
18.8800 12.5547 1.1652
18.9000 12.5680 1.1678
18.9200 12.5814 1.1685
18.9400 12.5947 1.1712
18.9600 12.6081 1.1711
18.9800 12.6214 1.1733
19.0000 12.6347 1.1728
19.0200 12.6481 1.1761
19.0400 12.6614 1.1729
19.0600 12.6748 1.1784
19.0800 12.6881 1.1757
19.1000 12.7014 1.1798
19.1200 12.7147 1.1791
19.1400 12.7281 1.1813
19.1600 12.7414 1.1813
19.1800 12.7547 1.1830
19.2000 12.7680 1.1842
19.2200 12.7814 1.1797
19.2400 12.7947 1.1828
19.2600 12.8080 1.1814
19.2800 12.8214 1.1866
19.3000 12.8347 1.1842
19.3200 12.8481 1.1897
19.3400 12.8615 1.1860
19.3600 12.8748 1.1914
19.3800 12.8881 1.1877
19.4000 12.9014 1.1920
19.4200 12.9148 1.1904
19.4400 12.9281 1.1933
19.4600 12.9414 1.1941
19.4800 12.9547 1.1943
19.5000 12.9681 1.1987
19.5200 12.9814 1.1951
19.5400 12.9947 1.2008
19.5600 13.0080 1.1977
19.5800 13.0214 1.2021
19.6000 13.0347 1.2001
19.6200 13.0480 1.2036
19.6400 13.0614 1.1983
19.6600 13.0747 1.2032
19.6800 13.0881 1.2010
19.7000 13.1014 1.2052
19.7200 13.1148 1.2048
19.7400 13.1281 1.2073
19.7600 13.1415 1.2074
19.7800 13.1548 1.2082
19.8000 13.1681 1.2112
19.8200 13.1814 1.2092
19.8400 13.1947 1.2137
19.8600 13.2081 1.2106
19.8800 13.2214 1.2115
19.9000 13.2347 1.2088
19.9200 13.2480 1.2129
19.9400 13.2613 1.2107
19.9600 13.2746 1.2158
19.9800 13.2880 1.2145
20.0000 13.3013 1.2183
20.0200 13.3147 1.2167
20.0400 13.3281 1.2206
20.0600 13.3415 1.2181
20.0800 13.3548 1.2198
20.1000 13.3681 1.2216
20.1200 13.3815 1.2211
20.1400 13.3948 1.2236
20.1600 13.4081 1.2235
20.1800 13.4214 1.2268
20.2000 13.4347 1.2251
20.2200 13.4481 1.2296
20.2400 13.4614 1.2264
20.2600 13.4747 1.2312
20.2800 13.4880 1.2289
20.3000 13.5013 1.2322
20.3200 13.5147 1.2288
20.3400 13.5280 1.2334
20.3600 13.5413 1.2322
20.3800 13.5547 1.2343
20.4000 13.5681 1.2367
20.4200 13.5814 1.2353
20.4400 13.5948 1.2389
20.4600 13.6081 1.2372
20.4800 13.6215 1.2405
20.5000 13.6348 1.2351
20.5200 13.6481 1.2381
20.5400 13.6614 1.2350
20.5600 13.6747 1.2398
20.5800 13.6880 1.2394
20.6000 13.7014 1.2427
20.6200 13.7147 1.2424
20.6400 13.7280 1.2454
20.6600 13.7414 1.2445
20.6800 13.7547 1.2463
20.7000 13.7681 1.2478
20.7200 13.7814 1.2469
20.7400 13.7948 1.2484
20.7600 13.8081 1.2484
20.7800 13.8214 1.2508
20.8000 13.8347 1.2500
20.8200 13.8480 1.2543
20.8400 13.8614 1.2524
20.8600 13.8748 1.2551
20.8800 13.8881 1.2555
20.9000 13.9014 1.2573
20.9200 13.9147 1.2572
20.9400 13.9281 1.2593
20.9600 13.9414 1.2586
20.9800 13.9547 1.2607
21.0000 13.9680 1.2617
21.0200 13.9814 1.2624
21.0400 13.9947 1.2631
21.0600 14.0080 1.2645
21.0800 14.0214 1.2654
21.1000 14.0347 1.2634
21.1200 14.0481 1.2670
21.1400 14.0614 1.2648
21.1600 14.0748 1.2684
21.1800 14.0881 1.2680
21.2000 14.1014 1.2708
21.2200 14.1148 1.2697
21.2400 14.1281 1.2735
21.2600 14.1414 1.2719
21.2800 14.1547 1.2750
21.3000 14.1680 1.2747
21.3200 14.1814 1.2760
21.3400 14.1947 1.2768
21.3600 14.2080 1.2784
21.3800 14.2213 1.2793
21.4000 14.2347 1.2784
21.4200 14.2480 1.2809
21.4400 14.2614 1.2784
21.4600 14.2747 1.2828
21.4800 14.2881 1.2805
21.5000 14.3014 1.2850
21.5200 14.3148 1.2826
21.5400 14.3281 1.2870
21.5600 14.3414 1.2853
21.5800 14.3548 1.2875
21.6000 14.3681 1.2877
21.6200 14.3814 1.2861
21.6400 14.3947 1.2831
21.6600 14.4081 1.2849
21.6800 14.4214 1.2856
21.7000 14.4347 1.2872
21.7200 14.4480 1.2911
21.7400 14.4613 1.2899
21.7600 14.4747 1.2928
21.7800 14.4880 1.2931
21.8000 14.5013 1.2950
21.8200 14.5147 1.2950
21.8400 14.5281 1.2972
21.8600 14.5414 1.2954
21.8800 14.5548 1.2976
21.9000 14.5681 1.2981
21.9200 14.5814 1.3000
21.9400 14.5948 1.2999
21.9600 14.6082 1.3034
21.9800 14.6214 1.3029
22.0000 14.6347 1.3037
22.0200 14.6481 1.3060
22.0400 14.6614 1.3058
22.0600 14.6747 1.3072
22.0800 14.6880 1.3061
22.1000 14.7013 1.3092
22.1200 14.7147 1.3057
22.1400 14.7280 1.3099
22.1600 14.7414 1.3076
22.1800 14.7547 1.3111
22.2000 14.7681 1.3108
22.2200 14.7815 1.3135
22.2400 14.7948 1.3122
22.2600 14.8081 1.3163
22.2800 14.8214 1.3154
22.3000 14.8348 1.3164
22.3200 14.8481 1.3189
22.3400 14.8614 1.3153
22.3600 14.8747 1.3142
22.3800 14.8880 1.3124
22.4000 14.9013 1.3179
22.4200 14.9147 1.3150
22.4400 14.9280 1.3215
22.4600 14.9413 1.3194
22.4800 14.9547 1.3232
22.5000 14.9680 1.3226
22.5200 14.9814 1.3262
22.5400 14.9947 1.3240
22.5600 15.0081 1.3260
22.5800 15.0215 1.3262
22.6000 15.0348 1.3273
22.6200 15.0481 1.3305
22.6400 15.0614 1.3290
22.6600 15.0748 1.3326
22.6800 15.0881 1.3310
22.7000 15.1014 1.3359
22.7200 15.1147 1.3322
22.7400 15.1280 1.3383
22.7600 15.1414 1.3352
22.7800 15.1547 1.3383
22.8000 15.1680 1.3369
22.8200 15.1813 1.3391
22.8400 15.1947 1.3384
22.8600 15.2080 1.3409
22.8800 15.2214 1.3418
22.9000 15.2347 1.3426
22.9200 15.2480 1.3446
22.9400 15.2614 1.3444
22.9600 15.2747 1.3468
22.9800 15.2881 1.3457
23.0000 15.3014 1.3488
23.0200 15.3148 1.3466
23.0400 15.3281 1.3504
23.0600 15.3414 1.3447
23.0800 15.3547 1.3457
23.1000 15.3681 1.3452
23.1200 15.3815 1.3492
23.1400 15.3948 1.3477
23.1600 15.4080 1.3521
23.1800 15.4213 1.3513
23.2000 15.4346 1.3532
23.2200 15.4480 1.3538
23.2400 15.4613 1.3550
23.2600 15.4747 1.3548
23.2800 15.4881 1.3550
23.3000 15.5015 1.3580
23.3200 15.5148 1.3567
23.3400 15.5281 1.3613
23.3600 15.5415 1.3591
23.3800 15.5548 1.3633
23.4000 15.5682 1.3612
23.4200 15.5815 1.3664
23.4400 15.5947 1.3632
23.4600 15.6080 1.3673
23.4800 15.6214 1.3667
23.5000 15.6347 1.3682
23.5200 15.6480 1.3694
23.5400 15.6613 1.3688
23.5600 15.6747 1.3697
23.5800 15.6880 1.3691
23.6000 15.7014 1.3735
23.6200 15.7147 1.3705
23.6400 15.7281 1.3758
23.6600 15.7415 1.3725
23.6800 15.7548 1.3758
23.7000 15.7681 1.3737
23.7200 15.7815 1.3783
23.7400 15.7948 1.3751
23.7600 15.8081 1.3735
23.7800 15.8214 1.3733
23.8000 15.8347 1.3727
23.8200 15.8480 1.3774
23.8400 15.8614 1.3764
23.8600 15.8747 1.3804
23.8800 15.8880 1.3795
23.9000 15.9013 1.3838
23.9200 15.9147 1.3825
23.9400 15.9280 1.3860
23.9600 15.9414 1.3854
23.9800 15.9547 1.3877
24.0000 15.9681 1.3870
24.0200 15.9814 1.3905
24.0400 15.9948 1.3891
24.0600 16.0081 1.3925
24.0800 16.0214 1.3930
24.1000 16.0348 1.3930
24.1200 16.0481 1.3932
24.1400 16.0614 1.3946
24.1600 16.0747 1.3955
24.1800 16.0881 1.3968
24.2000 16.1014 1.3981
24.2200 16.1147 1.3979
24.2400 16.1280 1.4005
24.2600 16.1413 1.3993
24.2800 16.1547 1.3978
24.3000 16.1680 1.3965
24.3200 16.1814 1.4006
24.3400 16.1947 1.3978
24.3600 16.2081 1.4014
24.3800 16.2215 1.3989
24.4000 16.2348 1.3998
24.4200 16.2481 1.4004
24.4400 16.2614 1.4032
24.4600 16.2748 1.4044
24.4800 16.2881 1.4050
24.5000 16.3014 1.4074
24.5200 16.3147 1.4066
24.5400 16.3280 1.4104
24.5600 16.3414 1.4099
24.5800 16.3547 1.4126
24.6000 16.3680 1.4120
24.6200 16.3814 1.4167
24.6400 16.3947 1.4144
24.6600 16.4081 1.4173
24.6800 16.4214 1.4175
24.7000 16.4347 1.4191
24.7200 16.4481 1.4200
24.7400 16.4614 1.4203
24.7600 16.4748 1.4210
24.7800 16.4881 1.4205
24.8000 16.5014 1.4236
24.8200 16.5147 1.4234
24.8400 16.5281 1.4254
24.8600 16.5414 1.4258
24.8800 16.5547 1.4278
24.9000 16.5681 1.4272
24.9200 16.5814 1.4314
24.9400 16.5948 1.4285
24.9600 16.6081 1.4329
24.9800 16.6214 1.4313
25.0000 16.6347 1.4327
25.0200 16.6480 1.4325
25.0400 16.6614 1.4352
25.0600 16.6747 1.4354
25.0800 16.6881 1.4360
25.1000 16.7014 1.4389
25.1200 16.7148 1.4387
25.1400 16.7281 1.4398
25.1600 16.7414 1.4407
25.1800 16.7547 1.4427
25.2000 16.7681 1.4391
25.2200 16.7814 1.4395
25.2400 16.7947 1.4365
25.2600 16.8080 1.4404
25.2800 16.8214 1.4408
25.3000 16.8347 1.4437
25.3200 16.8480 1.4436
25.3400 16.8613 1.4472
25.3600 16.8746 1.4474
25.3800 16.8880 1.4477
25.4000 16.9013 1.4502
25.4200 16.9147 1.4483
25.4400 16.9280 1.4513
25.4600 16.9414 1.4503
25.4800 16.9548 1.4550
25.5000 16.9681 1.4514
25.5200 16.9814 1.4575
25.5400 16.9948 1.4541
25.5600 17.0081 1.4587
25.5800 17.0214 1.4564
25.6000 17.0347 1.4604
25.6200 17.0480 1.4578
25.6400 17.0614 1.4624
25.6600 17.0747 1.4597
25.6800 17.0880 1.4594
25.7000 17.1013 1.4624
25.7200 17.1147 1.4606
25.7400 17.1281 1.4646
25.7600 17.1414 1.4628
25.7800 17.1547 1.4668
25.8000 17.1681 1.4633
25.8200 17.1815 1.4698
25.8400 17.1948 1.4652
25.8600 17.2081 1.4709
25.8800 17.2214 1.4699
25.9000 17.2348 1.4725
25.9200 17.2481 1.4712
25.9400 17.2614 1.4748
25.9600 17.2747 1.4736
25.9800 17.2880 1.4747
26.0000 17.3014 1.4755
26.0200 17.3147 1.4757
26.0400 17.3281 1.4771
26.0600 17.3414 1.4768
26.0800 17.3547 1.4791
26.1000 17.3680 1.4754
26.1200 17.3814 1.4752
26.1400 17.3947 1.4707
26.1600 17.4081 1.4741
26.1800 17.4214 1.4754
26.2000 17.4348 1.4788
26.2200 17.4481 1.4785
26.2400 17.4614 1.4834
26.2600 17.4748 1.4821
26.2800 17.4881 1.4855
26.3000 17.5015 1.4849
26.3200 17.5147 1.4870
26.3400 17.5281 1.4876
26.3600 17.5414 1.4889
26.3800 17.5547 1.4916
26.4000 17.5680 1.4903
26.4200 17.5813 1.4953
26.4400 17.5947 1.4929
26.4600 17.6080 1.4963
26.4800 17.6214 1.4948
26.5000 17.6347 1.4983
26.5200 17.6481 1.4962
26.5400 17.6614 1.5011
26.5600 17.6748 1.4988
26.5800 17.6881 1.5031
26.6000 17.7014 1.5020
26.6200 17.7147 1.5046
26.6400 17.7281 1.5043
26.6600 17.7414 1.5052
26.6800 17.7547 1.5044
26.7000 17.7680 1.4988
26.7200 17.7814 1.5046
26.7400 17.7947 1.5016
26.7600 17.8081 1.5074
26.7800 17.8214 1.5060
26.8000 17.8347 1.5108
26.8200 17.8480 1.5082
26.8400 17.8614 1.5137
26.8600 17.8747 1.5116
26.8800 17.8880 1.5147
26.9000 17.9014 1.5150
26.9200 17.9148 1.5173
26.9400 17.9281 1.5171
26.9600 17.9414 1.5178
26.9800 17.9548 1.5200
27.0000 17.9681 1.5178
27.0200 17.9815 1.5234
27.0400 17.9948 1.5209
27.0600 18.0080 1.5250
27.0800 18.0214 1.5235
27.1000 18.0347 1.5271
27.1200 18.0480 1.5245
27.1400 18.0614 1.5290
27.1600 18.0747 1.5264
27.1800 18.0880 1.5299
27.2000 18.1013 1.5287
27.2200 18.1146 1.5322
27.2400 18.1280 1.5312
27.2600 18.1414 1.5336
27.2800 18.1548 1.5350
27.3000 18.1681 1.5318
27.3200 18.1814 1.5331
27.3400 18.1947 1.5298
27.3600 18.2081 1.5340
27.3800 18.2215 1.5329
27.4000 18.2348 1.5385
27.4200 18.2481 1.5354
27.4400 18.2614 1.5409
27.4600 18.2747 1.5377
27.4800 18.2881 1.5385
27.5000 18.3013 1.5328
27.5200 18.3146 1.5351
27.5400 18.3280 1.5339
27.5600 18.3414 1.5382
27.5800 18.3547 1.5398
27.6000 18.3680 1.5416
27.6200 18.3814 1.5440
27.6400 18.3948 1.5440
27.6600 18.4081 1.5473
27.6800 18.4214 1.5458
27.7000 18.4348 1.5513
27.7200 18.4481 1.5473
27.7400 18.4614 1.5529
27.7600 18.4747 1.5499
27.7800 18.4880 1.5548
27.8000 18.5014 1.5523
27.8200 18.5147 1.5575
27.8400 18.5280 1.5546
27.8600 18.5413 1.5584
27.8800 18.5547 1.5587
27.9000 18.5680 1.5590
27.9200 18.5814 1.5603
27.9400 18.5947 1.5598
27.9600 18.6081 1.5603
27.9800 18.6214 1.5590
28.0000 18.6348 1.5630
28.0200 18.6481 1.5606
28.0400 18.6614 1.5663
28.0600 18.6747 1.5642
28.0800 18.6881 1.5667
28.1000 18.7014 1.5657
28.1200 18.7148 1.5691
28.1400 18.7281 1.5678
28.1600 18.7414 1.5708
28.1800 18.7547 1.5718
28.2000 18.7681 1.5718
28.2200 18.7814 1.5733
28.2400 18.7947 1.5736
28.2600 18.8080 1.5748
28.2800 18.8214 1.5689
28.3000 18.8347 1.5683
28.3200 18.8480 1.5657
28.3400 18.8614 1.5709
28.3600 18.8747 1.5713
28.3800 18.8881 1.5746
28.4000 18.9014 1.5755
28.4200 18.9148 1.5788
28.4400 18.9281 1.5783
28.4600 18.9415 1.5810
28.4800 18.9548 1.5822
28.5000 18.9681 1.5827
28.5200 18.9814 1.5841
28.5400 18.9947 1.5856
28.5600 19.0081 1.5861
28.5800 19.0214 1.5873
28.6000 19.0347 1.5899
28.6200 19.0480 1.5884
28.6400 19.0613 1.5923
28.6600 19.0747 1.5901
28.6800 19.0880 1.5930
28.7000 19.1014 1.5912
28.7200 19.1148 1.5955
28.7400 19.1281 1.5935
28.7600 19.1414 1.5969
28.7800 19.1548 1.5963
28.8000 19.1681 1.5983
28.8200 19.1815 1.5978
28.8400 19.1948 1.6003
28.8600 19.2080 1.5999
28.8800 19.2214 1.6008
28.9000 19.2347 1.6040
28.9200 19.2480 1.6017
28.9400 19.2613 1.6064
28.9600 19.2747 1.6049
28.9800 19.2880 1.6086
29.0000 19.3014 1.6051
29.0200 19.3147 1.6104
29.0400 19.3280 1.6075
29.0600 19.3414 1.6102
29.0800 19.3547 1.6105
29.1000 19.3681 1.6112
29.1200 19.3814 1.6132
29.1400 19.3948 1.6140
29.1600 19.4081 1.6157
29.1800 19.4215 1.6148
29.2000 19.4348 1.6191
29.2200 19.4481 1.6151
29.2400 19.4614 1.6201
29.2600 19.4748 1.6174
29.2800 19.4881 1.6222
29.3000 19.5013 1.6183
29.3200 19.5146 1.6242
29.3400 19.5280 1.6202
29.3600 19.5414 1.6172
29.3800 19.5547 1.6146
29.4000 19.5681 1.6148
29.4200 19.5814 1.6179
29.4400 19.5948 1.6199
29.4600 19.6082 1.6227
29.4800 19.6214 1.6224
29.5000 19.6347 1.6272
29.5200 19.6481 1.6252
29.5400 19.6615 1.6295
29.5600 19.6748 1.6278
29.5800 19.6881 1.6317
29.6000 19.7013 1.6287
29.6200 19.7147 1.6341
29.6400 19.7280 1.6310
29.6600 19.7414 1.6355
29.6800 19.7547 1.6348
29.7000 19.7680 1.6366
29.7200 19.7814 1.6367
29.7400 19.7947 1.6393
29.7600 19.8080 1.6401
29.7800 19.8214 1.6389
29.8000 19.8348 1.6427
29.8200 19.8481 1.6402
29.8400 19.8614 1.6442
29.8600 19.8748 1.6420
29.8800 19.8881 1.6467
29.9000 19.9015 1.6427
29.9200 19.9148 1.6490
29.9400 19.9280 1.6420
29.9600 19.9413 1.6434
29.9800 19.9547 1.6419
30.0000 19.9680 1.6441
30.0200 19.9813 1.6461
30.0400 19.9947 1.6475
30.0600 20.0080 1.6511
30.0800 20.0214 1.6482
30.1000 20.0347 1.6554
30.1200 20.0480 1.6505
30.1400 20.0614 1.6566
30.1600 20.0747 1.6525
30.1800 20.0881 1.6584
30.2000 20.1014 1.6541
30.2200 20.1147 1.6610
30.2400 20.1281 1.6581
30.2600 20.1414 1.6613
30.2800 20.1548 1.6618
30.3000 20.1681 1.6586
30.3200 20.1814 1.6551
30.3400 20.1948 1.6528
30.3600 20.2081 1.6573
30.3800 20.2214 1.6560
30.4000 20.2347 1.6633
30.4200 20.2480 1.6600
30.4400 20.2613 1.6652
30.4600 20.2747 1.6644
30.4800 20.2880 1.6680
30.5000 20.3013 1.6666
30.5200 20.3147 1.6699
30.5400 20.3281 1.6692
30.5600 20.3414 1.6710
30.5800 20.3548 1.6731
30.6000 20.3681 1.6738
30.6200 20.3815 1.6748
30.6400 20.3948 1.6755
30.6600 20.4081 1.6781
30.6800 20.4214 1.6766
30.7000 20.4347 1.6812
30.7200 20.4480 1.6780
30.7400 20.4613 1.6823
30.7600 20.4746 1.6813
30.7800 20.4880 1.6849
30.8000 20.5013 1.6822
30.8200 20.5147 1.6867
30.8400 20.5280 1.6837
30.8600 20.5414 1.6833
30.8800 20.5548 1.6819
30.9000 20.5681 1.6839
30.9200 20.5814 1.6838
30.9400 20.5948 1.6870
30.9600 20.6081 1.6882
30.9800 20.6215 1.6874
31.0000 20.6348 1.6914
31.0200 20.6481 1.6891
31.0400 20.6614 1.6939
31.0600 20.6747 1.6917
31.0800 20.6881 1.6966
31.1000 20.7014 1.6929
31.1200 20.7147 1.6985
31.1400 20.7280 1.6958
31.1600 20.7413 1.6983
31.1800 20.7547 1.6983
31.2000 20.7680 1.7007
31.2200 20.7814 1.7003
31.2400 20.7948 1.7018
31.2600 20.8081 1.7034
31.2800 20.8215 1.7018
31.3000 20.8348 1.7058
31.3200 20.8481 1.7040
31.3400 20.8615 1.7076
31.3600 20.8748 1.7061
31.3800 20.8881 1.7099
31.4000 20.9014 1.7069
31.4200 20.9147 1.7059
31.4400 20.9281 1.7071
31.4600 20.9414 1.7058
31.4800 20.9546 1.7106
31.5000 20.9680 1.7094
31.5200 20.9813 1.7127
31.5400 20.9947 1.7111
31.5600 21.0080 1.7151
31.5800 21.0214 1.7122
31.6000 21.0348 1.7168
31.6200 21.0481 1.7147
31.6400 21.0615 1.7180
31.6600 21.0748 1.7166
31.6800 21.0881 1.7194
31.7000 21.1015 1.7146
31.7200 21.1148 1.7135
31.7400 21.1281 1.7138
31.7600 21.1414 1.7151
31.7800 21.1547 1.7185
31.8000 21.1681 1.7191
31.8200 21.1814 1.7205
31.8400 21.1947 1.7228
31.8600 21.2080 1.7243
31.8800 21.2214 1.7244
31.9000 21.2347 1.7272
31.9200 21.2480 1.7270
31.9400 21.2614 1.7301
31.9600 21.2747 1.7289
31.9800 21.2881 1.7330
32.0000 21.3014 1.7307
32.0200 21.3147 1.7343
32.0400 21.3280 1.7341
32.0600 21.3414 1.7344
32.0800 21.3548 1.7329
32.1000 21.3681 1.7320
32.1200 21.3814 1.7331
32.1400 21.3947 1.7342
32.1600 21.4081 1.7380
32.1800 21.4214 1.7366
32.2000 21.4347 1.7409
32.2200 21.4480 1.7383
32.2400 21.4614 1.7433
32.2600 21.4747 1.7402
32.2800 21.4880 1.7461
32.3000 21.5013 1.7430
32.3200 21.5147 1.7474
32.3400 21.5281 1.7466
32.3600 21.5414 1.7479
32.3800 21.5547 1.7495
32.4000 21.5680 1.7496
32.4200 21.5814 1.7526
32.4400 21.5948 1.7492
32.4600 21.6081 1.7561
32.4800 21.6214 1.7511
32.5000 21.6347 1.7580
32.5200 21.6481 1.7542
32.5400 21.6614 1.7581
32.5600 21.6747 1.7557
32.5800 21.6880 1.7606
32.6000 21.7013 1.7586
32.6200 21.7147 1.7609
32.6400 21.7280 1.7616
32.6600 21.7414 1.7620
32.6800 21.7547 1.7631
32.7000 21.7681 1.7640
32.7200 21.7815 1.7655
32.7400 21.7948 1.7650
32.7600 21.8081 1.7680
32.7800 21.8215 1.7668
32.8000 21.8348 1.7699
32.8200 21.8481 1.7695
32.8400 21.8614 1.7711
32.8600 21.8747 1.7712
32.8800 21.8880 1.7733
32.9000 21.9013 1.7722
32.9200 21.9147 1.7749
32.9400 21.9280 1.7752
32.9600 21.9414 1.7771
32.9800 21.9547 1.7703
33.0000 21.9681 1.7697
33.0200 21.9814 1.7690
33.0400 21.9948 1.7714
33.0600 22.0081 1.7752
33.0800 22.0215 1.7741
33.1000 22.0348 1.7789
33.1200 22.0481 1.7779
33.1400 22.0614 1.7814
33.1600 22.0748 1.7800
33.1800 22.0881 1.7843
33.2000 22.1014 1.7824
33.2200 22.1147 1.7862
33.2400 22.1281 1.7857
33.2600 22.1414 1.7882
33.2800 22.1547 1.7875
33.3000 22.1680 1.7901
33.3200 22.1813 1.7904
33.3400 22.1947 1.7903
33.3600 22.2080 1.7938
33.3800 22.2214 1.7910
33.4000 22.2347 1.7961
33.4200 22.2481 1.7935
33.4400 22.2614 1.7977
33.4600 22.2747 1.7950
33.4800 22.2881 1.8006
33.5000 22.3014 1.7969
33.5200 22.3148 1.8012
33.5400 22.3281 1.8006
33.5600 22.3414 1.8018
33.5800 22.3547 1.8011
33.6000 22.3681 1.8009
33.6200 22.3814 1.8002
33.6400 22.3947 1.7999
33.6600 22.4080 1.8048
33.6800 22.4213 1.8021
33.7000 22.4347 1.8065
33.7200 22.4480 1.8050
33.7400 22.4614 1.8090
33.7600 22.4747 1.8068
33.7800 22.4881 1.8109
33.8000 22.5015 1.8099
33.8200 22.5148 1.8115
33.8400 22.5281 1.8108
33.8600 22.5414 1.8099
33.8800 22.5548 1.8074
33.9000 22.5681 1.8125
33.9200 22.5814 1.8115
33.9400 22.5947 1.8149
33.9600 22.6081 1.8158
33.9800 22.6214 1.8166
34.0000 22.6347 1.8178
34.0200 22.6480 1.8187
34.0400 22.6613 1.8204
34.0600 22.6747 1.8195
34.0800 22.6880 1.8230
34.1000 22.7014 1.8219
34.1200 22.7147 1.8236
34.1400 22.7281 1.8188
34.1600 22.7414 1.8210
34.1800 22.7548 1.8187
34.2000 22.7681 1.8247
34.2200 22.7814 1.8240
34.2400 22.7948 1.8264
34.2600 22.8081 1.8278
34.2800 22.8214 1.8290
34.3000 22.8347 1.8302
34.3200 22.8481 1.8312
34.3400 22.8614 1.8345
34.3600 22.8747 1.8317
34.3800 22.8880 1.8375
34.4000 22.9013 1.8339
34.4200 22.9147 1.8394
34.4400 22.9280 1.8368
34.4600 22.9413 1.8420
34.4800 22.9547 1.8383
34.5000 22.9681 1.8437
34.5200 22.9815 1.8392
34.5400 22.9948 1.8391
34.5600 23.0081 1.8353
34.5800 23.0215 1.8385
34.6000 23.0348 1.8383
34.6200 23.0481 1.8422
34.6400 23.0614 1.8442
34.6600 23.0747 1.8441
34.6800 23.0880 1.8481
34.7000 23.1014 1.8460
34.7200 23.1147 1.8504
34.7400 23.1280 1.8484
34.7600 23.1413 1.8533
34.7800 23.1547 1.8512
34.8000 23.1680 1.8556
34.8200 23.1813 1.8542
34.8400 23.1947 1.8564
34.8600 23.2081 1.8575
34.8800 23.2214 1.8588
34.9000 23.2348 1.8587
34.9200 23.2481 1.8610
34.9400 23.2614 1.8620
34.9600 23.2748 1.8610
34.9800 23.2881 1.8649
35.0000 23.3014 1.8633
35.0200 23.3147 1.8665
35.0400 23.3280 1.8656
35.0600 23.3414 1.8686
35.0800 23.3547 1.8665
35.1000 23.3680 1.8710
35.1200 23.3813 1.8687
35.1400 23.3947 1.8718
35.1600 23.4081 1.8715
35.1800 23.4214 1.8732
35.2000 23.4347 1.8735
35.2200 23.4481 1.8723
35.2400 23.4614 1.8723
35.2600 23.4747 1.8712
35.2800 23.4881 1.8759
35.3000 23.5014 1.8739
35.3200 23.5148 1.8783
35.3400 23.5281 1.8758
35.3600 23.5414 1.8819
35.3800 23.5548 1.8778
35.4000 23.5681 1.8838
35.4200 23.5815 1.8811
35.4400 23.5948 1.8851
35.4600 23.6080 1.8838
35.4800 23.6214 1.8870
35.5000 23.6347 1.8862
35.5200 23.6480 1.8877
35.5400 23.6613 1.8894
35.5600 23.6747 1.8891
35.5800 23.6881 1.8918
35.6000 23.7014 1.8903
35.6200 23.7148 1.8943
35.6400 23.7281 1.8921
35.6600 23.7414 1.8969
35.6800 23.7548 1.8931
35.7000 23.7681 1.8987
35.7200 23.7814 1.8962
35.7400 23.7947 1.8987
35.7600 23.8081 1.8985
35.7800 23.8214 1.8999
35.8000 23.8347 1.9003
35.8200 23.8480 1.8988
35.8400 23.8613 1.8956
35.8600 23.8747 1.8931
35.8800 23.8880 1.8941
35.9000 23.9013 1.8908
35.9200 23.9146 1.8913
35.9400 23.9280 1.8920
35.9600 23.9414 1.8970
35.9800 23.9548 1.8956
36.0000 23.9681 1.9015
36.0200 23.9814 1.9006
36.0400 23.9948 1.9036
36.0600 24.0081 1.9038
36.0800 24.0214 1.9068
36.1000 24.0347 1.9032
36.1200 24.0481 1.8823
36.1400 24.0614 1.8678
36.1600 24.0747 1.8639
36.1800 24.0880 1.8674
36.2000 24.1013 1.8693
36.2200 24.1147 1.8735
36.2400 24.1280 1.8734
36.2600 24.1414 1.8799
36.2800 24.1547 1.8775
36.3000 24.1681 1.8862
36.3200 24.1814 1.8843
36.3400 24.1947 1.8918
36.3600 24.2081 1.8900
36.3800 24.2214 1.8962
36.4000 24.2348 1.8946
36.4200 24.2481 1.8987
36.4400 24.2614 1.9002
36.4600 24.2747 1.9024
36.4800 24.2881 1.9055
36.5000 24.3014 1.9063
36.5200 24.3147 1.9100
36.5400 24.3280 1.9091
36.5600 24.3413 1.9162
36.5800 24.3547 1.9120
36.6000 24.3680 1.9192
36.6200 24.3814 1.9169
36.6400 24.3947 1.9221
36.6600 24.4081 1.9198
36.6800 24.4215 1.9245
36.7000 24.4348 1.9231
36.7200 24.4481 1.9255
36.7400 24.4614 1.9274
36.7600 24.4748 1.9281
36.7800 24.4881 1.9311
36.8000 24.5014 1.9311
36.8200 24.5147 1.9340
36.8400 24.5280 1.9316
36.8600 24.5414 1.9345
36.8800 24.5547 1.9299
36.9000 24.5680 1.9360
36.9200 24.5813 1.9342
36.9400 24.5947 1.9392
36.9600 24.6080 1.9376
36.9800 24.6214 1.9418
37.0000 24.6347 1.9418
37.0200 24.6481 1.9440
37.0400 24.6615 1.9458
37.0600 24.6748 1.9456
37.0800 24.6881 1.9486
37.1000 24.7014 1.9481
37.1200 24.7148 1.9516
37.1400 24.7281 1.9486
37.1600 24.7414 1.9546
37.1800 24.7547 1.9514
37.2000 24.7680 1.9554
37.2200 24.7814 1.9471
37.2400 24.7947 1.9502
37.2600 24.8080 1.9476
37.2800 24.8213 1.9544
37.3000 24.8347 1.9536
37.3200 24.8480 1.9583
37.3400 24.8614 1.9581
37.3600 24.8747 1.9610
37.3800 24.8880 1.9612
37.4000 24.9014 1.9640
37.4200 24.9148 1.9654
37.4400 24.9281 1.9657
37.4600 24.9414 1.9694
37.4800 24.9548 1.9683
37.5000 24.9681 1.9729
37.5200 24.9814 1.9703
37.5400 24.9947 1.9756
37.5600 25.0081 1.9728
37.5800 25.0214 1.9780
37.6000 25.0348 1.9757
37.6200 25.0481 1.9795
37.6400 25.0613 1.9795
37.6600 25.0747 1.9811
37.6800 25.0880 1.9824
37.7000 25.1013 1.9824
37.7200 25.1147 1.9863
37.7400 25.1280 1.9829
37.7600 25.1414 1.9886
37.7800 25.1548 1.9856
37.8000 25.1681 1.9906
37.8200 25.1814 1.9887
37.8400 25.1948 1.9923
37.8600 25.2081 1.9900
37.8800 25.2214 1.9938
37.9000 25.2347 1.9918
37.9200 25.2480 1.9951
37.9400 25.2614 1.9953
37.9600 25.2747 1.9967
37.9800 25.2880 1.9981
38.0000 25.3013 1.9931
38.0200 25.3146 1.9929
38.0400 25.3280 1.9911
38.0600 25.3414 1.9965
38.0800 25.3547 1.9956
38.1000 25.3681 2.0010
38.1200 25.3815 2.0001
38.1400 25.3948 2.0043
38.1600 25.4081 2.0027
38.1800 25.4214 2.0080
38.2000 25.4348 2.0060
38.2200 25.4481 2.0101
38.2400 25.4614 2.0092
38.2600 25.4747 2.0133
38.2800 25.4880 2.0118
38.3000 25.5014 2.0148
38.3200 25.5147 2.0154
38.3400 25.5280 2.0159
38.3600 25.5413 2.0189
38.3800 25.5547 2.0182
38.4000 25.5680 2.0205
38.4200 25.5814 2.0206
38.4400 25.5947 2.0232
38.4600 25.6081 2.0223
38.4800 25.6214 2.0246
38.5000 25.6348 2.0202
38.5200 25.6481 2.0233
38.5400 25.6614 2.0221
38.5600 25.6748 2.0266
38.5800 25.6881 2.0258
38.6000 25.7015 2.0275
38.6200 25.7148 2.0302
38.6400 25.7281 2.0291
38.6600 25.7414 2.0343
38.6800 25.7547 2.0319
38.7000 25.7680 2.0367
38.7200 25.7813 2.0344
38.7400 25.7946 2.0393
38.7600 25.8080 2.0357
38.7800 25.8214 2.0417
38.8000 25.8347 2.0385
38.8200 25.8481 2.0380
38.8400 25.8614 2.0356
38.8600 25.8748 2.0382
38.8800 25.8881 2.0401
38.9000 25.9014 2.0417
38.9200 25.9148 2.0459
38.9400 25.9281 2.0438
38.9600 25.9414 2.0494
38.9800 25.9547 2.0470
39.0000 25.9681 2.0523
39.0200 25.9814 2.0502
39.0400 25.9947 2.0543
39.0600 26.0080 2.0523
39.0800 26.0214 2.0565
39.1000 26.0347 2.0555
39.1200 26.0481 2.0585
39.1400 26.0614 2.0584
39.1600 26.0747 2.0604
39.1800 26.0880 2.0618
39.2000 26.1014 2.0627
39.2200 26.1148 2.0646
39.2400 26.1281 2.0639
39.2600 26.1414 2.0676
39.2800 26.1547 2.0666
39.3000 26.1681 2.0701
39.3200 26.1815 2.0690
39.3400 26.1947 2.0735
39.3600 26.2081 2.0708
39.3800 26.2214 2.0747
39.4000 26.2347 2.0736
39.4200 26.2480 2.0771
39.4400 26.2613 2.0767
39.4600 26.2747 2.0788
39.4800 26.2880 2.0793
39.5000 26.3014 2.0807
39.5200 26.3147 2.0825
39.5400 26.3280 2.0817
39.5600 26.3414 2.0858
39.5800 26.3548 2.0833
39.6000 26.3681 2.0885
39.6200 26.3814 2.0834
39.6400 26.3947 2.0854
39.6600 26.4081 2.0793
39.6800 26.4214 2.0858
39.7000 26.4347 2.0842
39.7200 26.4481 2.0894
39.7400 26.4614 2.0878
39.7600 26.4747 2.0908
39.7800 26.4880 2.0916
39.8000 26.5013 2.0919
39.8200 26.5146 2.0958
39.8400 26.5280 2.0942
39.8600 26.5413 2.0988
39.8800 26.5547 2.0977
39.9000 26.5680 2.1022
39.9200 26.5814 2.0998
39.9400 26.5948 2.1051
39.9600 26.6081 2.1027
39.9800 26.6215 2.1074
40.0000 26.6348 2.1060
40.0200 26.6481 2.1091
40.0400 26.6614 2.1093
40.0600 26.6747 2.1108
40.0800 26.6880 2.1127
40.1000 26.7013 2.1121
40.1200 26.7147 2.1157
40.1400 26.7280 2.1143
40.1600 26.7413 2.1180
40.1800 26.7547 2.1167
40.2000 26.7680 2.1164
40.2200 26.7814 2.1113
40.2400 26.7947 2.1157
40.2600 26.8080 2.1140
40.2800 26.8214 2.1194
40.3000 26.8348 2.1185
40.3200 26.8481 2.1227
40.3400 26.8614 2.1217
40.3600 26.8748 2.1263
40.3800 26.8881 2.1257
40.4000 26.9014 2.1278
40.4200 26.9147 2.1304
40.4400 26.9280 2.1299
40.4600 26.9414 2.1331
40.4800 26.9547 2.1327
40.5000 26.9680 2.1355
40.5200 26.9813 2.1347
40.5400 26.9947 2.1399
40.5600 27.0080 2.1362
40.5800 27.0214 2.1427
40.6000 27.0347 2.1385
40.6200 27.0480 2.1454
40.6400 27.0614 2.1412
40.6600 27.0747 2.1473
40.6800 27.0880 2.1450
40.7000 27.1014 2.1486
40.7200 27.1148 2.1494
40.7400 27.1282 2.1500
40.7600 27.1415 2.1517
40.7800 27.1548 2.1531
40.8000 27.1681 2.1549
40.8200 27.1814 2.1550
40.8400 27.1947 2.1585
40.8600 27.2080 2.1567
40.8800 27.2213 2.1609
40.9000 27.2347 2.1588
40.9200 27.2480 2.1584
40.9400 27.2614 2.1534
40.9600 27.2747 2.1575
40.9800 27.2880 2.1573
41.0000 27.3014 2.1607
41.0200 27.3148 2.1631
41.0400 27.3281 2.1642
41.0600 27.3414 2.1658
41.0800 27.3547 2.1676
41.1000 27.3681 2.1691
41.1200 27.3815 2.1695
41.1400 27.3948 2.1733
41.1600 27.4081 2.1732
41.1800 27.4214 2.1762
41.2000 27.4347 2.1752
41.2200 27.4481 2.1791
41.2400 27.4614 2.1775
41.2600 27.4747 2.1826
41.2800 27.4880 2.1809
41.3000 27.5014 2.1833
41.3200 27.5147 2.1829
41.3400 27.5280 2.1820
41.3600 27.5414 2.1824
41.3800 27.5548 2.1838
41.4000 27.5681 2.1866
41.4200 27.5814 2.1872
41.4400 27.5948 2.1900
41.4600 27.6081 2.1904
41.4800 27.6215 2.1934
41.5000 27.6348 2.1931
41.5200 27.6481 2.1972
41.5400 27.6614 2.1949
41.5600 27.6747 2.2001
41.5800 27.6881 2.1982
41.6000 27.7014 2.2018
41.6200 27.7147 2.2004
41.6400 27.7280 2.2042
41.6600 27.7413 2.2033
41.6800 27.7546 2.2067
41.7000 27.7680 2.2071
41.7200 27.7814 2.2076
41.7400 27.7948 2.2110
41.7600 27.8081 2.2101
41.7800 27.8214 2.2133
41.8000 27.8347 2.2125
41.8200 27.8481 2.2173
41.8400 27.8615 2.2142
41.8600 27.8748 2.2197
41.8800 27.8880 2.2181
41.9000 27.9014 2.2220
41.9200 27.9148 2.2200
41.9400 27.9281 2.2239
41.9600 27.9414 2.2231
41.9800 27.9547 2.2257
42.0000 27.9680 2.2274
42.0200 27.9813 2.2261
42.0400 27.9947 2.2263
42.0600 28.0080 2.2224
42.0800 28.0214 2.2260
42.1000 28.0348 2.2257
42.1200 28.0481 2.2314
42.1400 28.0614 2.2288
42.1600 28.0748 2.2355
42.1800 28.0881 2.2325
42.2000 28.1015 2.2381
42.2200 28.1148 2.2360
42.2400 28.1280 2.2416
42.2600 28.1413 2.2387
42.2800 28.1547 2.2440
42.3000 28.1680 2.2430
42.3200 28.1813 2.2452
42.3400 28.1947 2.2478
42.3600 28.2080 2.2478
42.3800 28.2214 2.2504
42.4000 28.2348 2.2504
42.4200 28.2481 2.2545
42.4400 28.2615 2.2520
42.4600 28.2748 2.2570
42.4800 28.2881 2.2546
42.5000 28.3014 2.2597
42.5200 28.3147 2.2556
42.5400 28.3281 2.2575
42.5600 28.3414 2.2533
42.5800 28.3548 2.2585
42.6000 28.3681 2.2585
42.6200 28.3814 2.2612
42.6400 28.3948 2.2639
42.6600 28.4081 2.2639
42.6800 28.4214 2.2676
42.7000 28.4347 2.2668
42.7200 28.4480 2.2710
42.7400 28.4614 2.2696
42.7600 28.4747 2.2746
42.7800 28.4880 2.2729
42.8000 28.5014 2.2768
42.8200 28.5148 2.2753
42.8400 28.5281 2.2799
42.8600 28.5414 2.2750
42.8800 28.5547 2.2750
42.9000 28.5681 2.2726
42.9200 28.5815 2.2754
42.9400 28.5948 2.2772
42.9600 28.6081 2.2795
42.9800 28.6214 2.2828
43.0000 28.6347 2.2820
43.0200 28.6481 2.2870
43.0400 28.6614 2.2852
43.0600 28.6747 2.2907
43.0800 28.6880 2.2885
43.1000 28.7013 2.2934
43.1200 28.7147 2.2914
43.1400 28.7280 2.2949
43.1600 28.7413 2.2916
43.1800 28.7547 2.2959
43.2000 28.7681 2.2964
43.2200 28.7814 2.2988
43.2400 28.7948 2.3008
43.2600 28.8081 2.3023
43.2800 28.8214 2.3044
43.3000 28.8348 2.3039
43.3200 28.8481 2.3087
43.3400 28.8614 2.3068
43.3600 28.8747 2.3110
43.3800 28.8881 2.3095
43.4000 28.9014 2.3129
43.4200 28.9147 2.3124
43.4400 28.9280 2.3165
43.4600 28.9414 2.3155
43.4800 28.9547 2.3191
43.5000 28.9680 2.3191
43.5200 28.9814 2.3208
43.5400 28.9947 2.3208
43.5600 29.0081 2.3215
43.5800 29.0214 2.3233
43.6000 29.0347 2.3238
43.6200 29.0481 2.3279
43.6400 29.0615 2.3265
43.6600 29.0748 2.3313
43.6800 29.0881 2.3309
43.7000 29.1014 2.3346
43.7200 29.1148 2.3331
43.7400 29.1281 2.3383
43.7600 29.1414 2.3358
43.7800 29.1547 2.3408
43.8000 29.1680 2.3398
43.8200 29.1814 2.3433
43.8400 29.1947 2.3418
43.8600 29.2080 2.3463
43.8800 29.2214 2.3449
43.9000 29.2348 2.3474
43.9200 29.2481 2.3501
43.9400 29.2615 2.3487
43.9600 29.2748 2.3535
43.9800 29.2881 2.3515
44.0000 29.3015 2.3566
44.0200 29.3148 2.3529
44.0400 29.3281 2.3602
44.0600 29.3413 2.3564
44.0800 29.3547 2.3628
44.1000 29.3680 2.3597
44.1200 29.3813 2.3645
44.1400 29.3947 2.3616
44.1600 29.4080 2.3615
44.1800 29.4214 2.3594
44.2000 29.4347 2.3604
44.2200 29.4480 2.3648
44.2400 29.4614 2.3633
44.2600 29.4748 2.3692
44.2800 29.4881 2.3673
44.3000 29.5014 2.3733
44.3200 29.5148 2.3698
44.3400 29.5281 2.3774
44.3600 29.5415 2.3733
44.3800 29.5548 2.3793
44.4000 29.5680 2.3776
44.4200 29.5813 2.3775
44.4400 29.5947 2.3724
44.4600 29.6081 2.3755
44.4800 29.6214 2.3762
44.5000 29.6347 2.3800
44.5200 29.6480 2.3822
44.5400 29.6613 2.3842
44.5600 29.6747 2.3861
44.5800 29.6880 2.3877
44.6000 29.7014 2.3912
44.6200 29.7148 2.3903
44.6400 29.7281 2.3960
44.6600 29.7414 2.3937
44.6800 29.7547 2.3997
44.7000 29.7681 2.3967
44.7200 29.7814 2.4027
44.7400 29.7948 2.3993
44.7600 29.8081 2.4055
44.7800 29.8214 2.4035
44.8000 29.8348 2.4079
44.8200 29.8481 2.4066
44.8400 29.8614 2.4105
44.8600 29.8747 2.4106
44.8800 29.8880 2.4123
44.9000 29.9013 2.4149
44.9200 29.9147 2.4136
44.9400 29.9280 2.4187
44.9600 29.9413 2.4147
44.9800 29.9547 2.4179
45.0000 29.9681 2.4155
45.0200 29.9814 2.4210
45.0400 29.9948 2.4182
45.0480 30.0000 2.4163
45.0490 30.0006 2.4162
45.0500 30.0013 2.4161
45.0700 30.0118 2.4052
45.0900 30.0141 2.3859
45.1100 30.0059 2.3915
45.1300 29.9931 2.3814
45.1500 29.9803 2.3691
45.1700 29.9674 2.3509
45.1900 29.9539 2.3418
45.2100 29.9399 2.3252
45.2300 29.9258 2.3177
45.2500 29.9120 2.3046
45.2700 29.8985 2.2942
45.2900 29.8852 2.2812
45.3100 29.8719 2.2721
45.3300 29.8585 2.2630
45.3500 29.8452 2.2523
45.3700 29.8318 2.2456
45.3900 29.8185 2.2337
45.4100 29.8052 2.2278
45.4300 29.7918 2.2163
45.4500 29.7784 2.2117
45.4700 29.7651 2.1996
45.4900 29.7518 2.1954
45.5100 29.7384 2.1842
45.5300 29.7250 2.1794
45.5500 29.7117 2.1706
45.5700 29.6984 2.1642
45.5900 29.6851 2.1565
45.6100 29.6717 2.1504
45.6300 29.6584 2.1428
45.6500 29.6450 2.1359
45.6700 29.6317 2.1306
45.6900 29.6184 2.1226
45.7100 29.6051 2.1186
45.7300 29.5918 2.1098
45.7500 29.5785 2.1071
45.7700 29.5652 2.0973
45.7900 29.5518 2.0961
45.8100 29.5384 2.0851
45.8300 29.5251 2.0839
45.8500 29.5118 2.0750
45.8700 29.4984 2.0727
45.8900 29.4851 2.0639
45.9100 29.4717 2.0619
45.9300 29.4584 2.0544
45.9500 29.4451 2.0503
45.9700 29.4317 2.0458
45.9900 29.4184 2.0395
46.0100 29.4050 2.0363
46.0300 29.3917 2.0290
46.0500 29.3784 2.0282
46.0700 29.3651 2.0191
46.0900 29.3518 2.0193
46.1100 29.3385 2.0096
46.1300 29.3251 2.0090
46.1500 29.3118 2.0021
46.1700 29.2984 1.9997
46.1900 29.2851 1.9931
46.2100 29.2718 1.9902
46.2300 29.2584 1.9861
46.2500 29.2450 1.9816
46.2700 29.2317 1.9793
46.2900 29.2184 1.9731
46.3100 29.2050 1.9709
46.3300 29.1917 1.9644
46.3500 29.1783 1.9639
46.3700 29.1650 1.9558
46.3900 29.1517 1.9568
46.4100 29.1384 1.9481
46.4300 29.1251 1.9478
46.4500 29.1118 1.9426
46.4700 29.0985 1.9400
46.4900 29.0851 1.9350
46.5100 29.0718 1.9330
46.5300 29.0584 1.9286
46.5500 29.0450 1.9244
46.5700 29.0317 1.9218
46.5900 29.0184 1.9179
46.6100 29.0050 1.9147
46.6300 28.9917 1.9105
46.6500 28.9783 1.9086
46.6700 28.9650 1.9025
46.6900 28.9516 1.9037
46.7100 28.9383 1.8960
46.7300 28.9250 1.8963
46.7500 28.9117 1.8897
46.7700 28.8984 1.8896
46.7900 28.8850 1.8835
46.8100 28.8717 1.8836
46.8300 28.8585 1.8773
46.8500 28.8451 1.8760
46.8700 28.8318 1.8726
46.8900 28.8184 1.8699
46.9100 28.8051 1.8664
46.9300 28.7917 1.8627
46.9500 28.7784 1.8615
46.9700 28.7650 1.8555
46.9900 28.7516 1.8568
47.0100 28.7383 1.8495
47.0300 28.7250 1.8502
47.0500 28.7117 1.8440
47.0700 28.6983 1.8451
47.0900 28.6850 1.8380
47.1100 28.6717 1.8386
47.1300 28.6584 1.8342
47.1500 28.6451 1.8320
47.1700 28.6318 1.8289
47.1900 28.6185 1.8264
47.2100 28.6051 1.8228
47.2300 28.5918 1.8207
47.2500 28.5784 1.8193
47.2700 28.5651 1.8130
47.2900 28.5518 1.8151
47.3100 28.5384 1.8079
47.3300 28.5250 1.8089
47.3500 28.5117 1.8039
47.3700 28.4984 1.8033
47.3900 28.4851 1.7986
47.4100 28.4717 1.7975
47.4300 28.4583 1.7946
47.4500 28.4450 1.7924
47.4700 28.4317 1.7897
47.4900 28.4184 1.7872
47.5100 28.4050 1.7856
47.5300 28.3917 1.7808
47.5500 28.3784 1.7825
47.5700 28.3651 1.7753
47.5900 28.3518 1.7763
47.6100 28.3384 1.7724
47.6300 28.3251 1.7704
47.6500 28.3117 1.7672
47.6700 28.2984 1.7667
47.6900 28.2850 1.7618
47.7100 28.2717 1.7619
47.7300 28.2584 1.7589
47.7500 28.2451 1.7550
47.7700 28.2317 1.7546
47.7900 28.2184 1.7513
47.8100 28.2050 1.7498
47.8300 28.1917 1.7471
47.8500 28.1784 1.7458
47.8700 28.1650 1.7416
47.8900 28.1517 1.7421
47.9100 28.1384 1.7374
47.9300 28.1251 1.7374
47.9500 28.1118 1.7335
47.9700 28.0984 1.7338
47.9900 28.0851 1.7277
48.0100 28.0717 1.7299
48.0300 28.0584 1.7237
48.0500 28.0450 1.7249
48.0700 28.0317 1.7200
48.0900 28.0184 1.7205
48.1100 28.0050 1.7168
48.1300 27.9917 1.7146
48.1500 27.9783 1.7145
48.1700 27.9650 1.7096
48.1900 27.9517 1.7097
48.2100 27.9384 1.7058
48.2300 27.9250 1.7059
48.2500 27.9117 1.7011
48.2700 27.8984 1.7032
48.2900 27.8851 1.6952
48.3100 27.8717 1.6998
48.3300 27.8584 1.6929
48.3500 27.8451 1.6936
48.3700 27.8318 1.6895
48.3900 27.8184 1.6895
48.4100 27.8050 1.6857
48.4300 27.7916 1.6847
48.4500 27.7783 1.6837
48.4700 27.7650 1.6797
48.4900 27.7517 1.6803
48.5100 27.7383 1.6757
48.5300 27.7250 1.6762
48.5500 27.7117 1.6722
48.5700 27.6984 1.6723
48.5900 27.6851 1.6678
48.6100 27.6718 1.6686
48.6300 27.6585 1.6645
48.6500 27.6451 1.6643
48.6700 27.6318 1.6601
48.6900 27.6184 1.6618
48.7100 27.6051 1.6564
48.7300 27.5917 1.6567
48.7500 27.5784 1.6542
48.7700 27.5650 1.6521
48.7900 27.5517 1.6506
48.8100 27.5383 1.6490
48.8300 27.5250 1.6459
48.8500 27.5117 1.6453
48.8700 27.4983 1.6439
48.8900 27.4850 1.6397
48.9100 27.4717 1.6410
48.9300 27.4584 1.6368
48.9500 27.4451 1.6376
48.9700 27.4317 1.6324
48.9900 27.4184 1.6349
49.0100 27.4051 1.6287
49.0300 27.3918 1.6307
49.0500 27.3784 1.6269
49.0700 27.3650 1.6254
49.0900 27.3517 1.6243
49.1100 27.3384 1.6222
49.1300 27.3250 1.6209
49.1500 27.3117 1.6179
49.1700 27.2984 1.6189
49.1900 27.2851 1.6127
49.2100 27.2717 1.6157
49.2300 27.2583 1.6103
49.2500 27.2450 1.6123
49.2700 27.2317 1.6061
49.2900 27.2184 1.6092
49.3100 27.2051 1.6038
49.3300 27.1917 1.6052
49.3500 27.1784 1.6022
49.3700 27.1651 1.5992
49.3900 27.1518 1.5992
49.4100 27.1384 1.5965
49.4300 27.1250 1.5967
49.4500 27.1117 1.5925
49.4700 27.0984 1.5940
49.4900 27.0851 1.5885
49.5100 27.0717 1.5904
49.5300 27.0584 1.5868
49.5500 27.0451 1.5868
49.5700 27.0317 1.5834
49.5900 27.0184 1.5833
49.6100 27.0050 1.5801
49.6300 26.9917 1.5794
49.6500 26.9784 1.5785
49.6700 26.9650 1.5757
49.6900 26.9517 1.5753
49.7100 26.9384 1.5726
49.7300 26.9251 1.5719
49.7500 26.9118 1.5688
49.7700 26.8984 1.5700
49.7900 26.8851 1.5659
49.8100 26.8718 1.5657
49.8300 26.8584 1.5628
49.8500 26.8451 1.5634
49.8700 26.8317 1.5592
49.8900 26.8183 1.5617
49.9100 26.8050 1.5550
49.9300 26.7917 1.5578
49.9500 26.7783 1.5533
49.9700 26.7650 1.5543
49.9900 26.7517 1.5502
50.0100 26.7384 1.5512
50.0300 26.7250 1.5482
50.0500 26.7117 1.5464
50.0700 26.6984 1.5472
50.0900 26.6851 1.5426
50.1100 26.6718 1.5438
50.1300 26.6584 1.5396
50.1500 26.6451 1.5415
50.1700 26.6317 1.5360
50.1900 26.6184 1.5388
50.2100 26.6051 1.5332
50.2300 26.5917 1.5353
50.2500 26.5783 1.5312
50.2700 26.5650 1.5317
50.2900 26.5517 1.5288
50.3100 26.5383 1.5280
50.3300 26.5250 1.5275
50.3500 26.5117 1.5232
50.3700 26.4984 1.5260
50.3900 26.4851 1.5197
50.4100 26.4717 1.5233
50.4300 26.4584 1.5172
50.4500 26.4451 1.5198
50.4700 26.4318 1.5146
50.4900 26.4184 1.5167
50.5100 26.4051 1.5126
50.5300 26.3918 1.5123
50.5500 26.3784 1.5104
50.5700 26.3651 1.5093
50.5900 26.3517 1.5083
50.6100 26.3383 1.5062
50.6300 26.3250 1.5058
50.6500 26.3117 1.5023
50.6700 26.2983 1.5042
50.6900 26.2850 1.4995
50.7100 26.2717 1.5013
50.7300 26.2584 1.4971
50.7500 26.2450 1.4982
50.7700 26.2317 1.4940
50.7900 26.2184 1.4965
50.8100 26.2051 1.4912
50.8300 26.1918 1.4924
50.8500 26.1784 1.4891
50.8700 26.1650 1.4906
50.8900 26.1517 1.4855
50.9100 26.1384 1.4877
50.9300 26.1251 1.4838
50.9500 26.1117 1.4836
50.9700 26.0983 1.4827
50.9900 26.0851 1.4800
51.0100 26.0717 1.4798
51.0300 26.0584 1.4767
51.0500 26.0450 1.4789
51.0700 26.0317 1.4734
51.0900 26.0184 1.4764
51.1100 26.0051 1.4704
51.1300 25.9917 1.4731
51.1500 25.9784 1.4690
51.1700 25.9651 1.4712
51.1900 25.9517 1.4663
51.2100 25.9384 1.4684
51.2300 25.9251 1.4647
51.2500 25.9117 1.4639
51.2700 25.8984 1.4638
51.2900 25.8851 1.4600
51.3100 25.8717 1.4621
51.3300 25.8584 1.4571
51.3500 25.8451 1.4604
51.3700 25.8317 1.4537
51.3900 25.8184 1.4574
51.4100 25.8050 1.4532
51.4300 25.7917 1.4537
51.4500 25.7784 1.4499
51.4700 25.7650 1.4517
51.4900 25.7517 1.4473
51.5100 25.7384 1.4485
51.5300 25.7251 1.4465
51.5500 25.7118 1.4443
51.5700 25.6984 1.4446
51.5900 25.6851 1.4422
51.6100 25.6718 1.4415
51.6300 25.6584 1.4394
51.6500 25.6451 1.4408
51.6700 25.6317 1.4349
51.6900 25.6184 1.4385
51.7100 25.6051 1.4338
51.7300 25.5917 1.4348
51.7500 25.5784 1.4310
51.7700 25.5650 1.4333
51.7900 25.5517 1.4282
51.8100 25.5384 1.4306
51.8300 25.5250 1.4267
51.8500 25.5117 1.4268
51.8700 25.4984 1.4252
51.8900 25.4851 1.4245
51.9100 25.4718 1.4221
51.9300 25.4585 1.4217
51.9500 25.4451 1.4213
51.9700 25.4318 1.4175
51.9900 25.4185 1.4203
52.0100 25.4051 1.4146
52.0300 25.3917 1.4170
52.0500 25.3784 1.4127
52.0700 25.3650 1.4156
52.0900 25.3517 1.4095
52.1100 25.3383 1.4127
52.1300 25.3250 1.4088
52.1500 25.3117 1.4090
52.1700 25.2984 1.4063
52.1900 25.2851 1.4072
52.2100 25.2717 1.4045
52.2300 25.2584 1.4038
52.2500 25.2451 1.4037
52.2700 25.2318 1.3999
52.2900 25.2184 1.4025
52.3100 25.2051 1.3969
52.3300 25.1917 1.3999
52.3500 25.1784 1.3944
52.3700 25.1651 1.3980
52.3900 25.1517 1.3914
52.4100 25.1383 1.3952
52.4300 25.1250 1.3904
52.4500 25.1117 1.3917
52.4700 25.0983 1.3878
52.4900 25.0850 1.3902
52.5100 25.0717 1.3856
52.5300 25.0584 1.3867
52.5500 25.0451 1.3848
52.5700 25.0317 1.3831
52.5900 25.0184 1.3835
52.6100 25.0051 1.3809
52.6300 24.9918 1.3810
52.6500 24.9784 1.3780
52.6700 24.9651 1.3798
52.6900 24.9517 1.3755
52.7100 24.9384 1.3775
52.7300 24.9250 1.3733
52.7500 24.9117 1.3747
52.7700 24.8983 1.3710
52.7900 24.8850 1.3733
52.8100 24.8717 1.3686
52.8300 24.8584 1.3705
52.8500 24.8450 1.3674
52.8700 24.8317 1.3675
52.8900 24.8184 1.3660
52.9100 24.8051 1.3654
52.9300 24.7917 1.3640
52.9500 24.7784 1.3619
52.9700 24.7651 1.3630
52.9900 24.7518 1.3580
53.0100 24.7385 1.3609
53.0300 24.7251 1.3571
53.0500 24.7117 1.3582
53.0700 24.6984 1.3543
53.0900 24.6851 1.3560
53.1100 24.6717 1.3516
53.1300 24.6583 1.3540
53.1500 24.6450 1.3508
53.1700 24.6317 1.3502
53.1900 24.6184 1.3493
53.2100 24.6050 1.3481
53.2300 24.5917 1.3472
53.2500 24.5784 1.3453
53.2700 24.5650 1.3470
53.2900 24.5517 1.3420
53.3100 24.5384 1.3451
53.3300 24.5251 1.3395
53.3500 24.5118 1.3429
53.3700 24.4984 1.3372
53.3900 24.4851 1.3410
53.4100 24.4718 1.3358
53.4300 24.4585 1.3374
53.4500 24.4451 1.3340
53.4700 24.4317 1.3353
53.4900 24.4183 1.3323
53.5100 24.4050 1.3336
53.5300 24.3917 1.3296
53.5500 24.3783 1.3298
53.5700 24.3650 1.3293
53.5900 24.3516 1.3266
53.6100 24.3383 1.3281
53.6300 24.3250 1.3248
53.6500 24.3117 1.3257
53.6700 24.2984 1.3219
53.6900 24.2851 1.3247
53.7100 24.2718 1.3199
53.7300 24.2585 1.3217
53.7500 24.2451 1.3187
53.7700 24.2317 1.3195
53.7900 24.2184 1.3158
53.8100 24.2051 1.3178
53.8300 24.1917 1.3140
53.8500 24.1783 1.3151
53.8700 24.1650 1.3140
53.8900 24.1517 1.3111
53.9100 24.1383 1.3122
53.9300 24.1250 1.3101
53.9500 24.1117 1.3096
53.9700 24.0984 1.3075
53.9900 24.0851 1.3081
54.0100 24.0717 1.3053
54.0300 24.0584 1.3059
54.0500 24.0451 1.3044
54.0700 24.0318 1.3035
54.0900 24.0185 1.3012
54.1100 24.0051 1.3023
54.1300 23.9918 1.2991
54.1500 23.9784 1.2989
54.1700 23.9651 1.2985
54.1900 23.9517 1.2965
54.2100 23.9383 1.2966
54.2300 23.9250 1.2947
54.2500 23.9117 1.2949
54.2700 23.8984 1.2912
54.2900 23.8850 1.2944
54.3100 23.8717 1.2898
54.3300 23.8584 1.2912
54.3500 23.8451 1.2884
54.3700 23.8318 1.2888
54.3900 23.8184 1.2855
54.4100 23.8051 1.2878
54.4300 23.7918 1.2840
54.4500 23.7785 1.2843
54.4700 23.7651 1.2833
54.4900 23.7517 1.2817
54.5100 23.7384 1.2816
54.5300 23.7251 1.2799
54.5500 23.7117 1.2802
54.5700 23.6983 1.2764
54.5900 23.6850 1.2799
54.6100 23.6717 1.2736
54.6300 23.6584 1.2775
54.6500 23.6450 1.2726
54.6700 23.6317 1.2751
54.6900 23.6184 1.2708
54.7100 23.6050 1.2727
54.7300 23.5917 1.2697
54.7500 23.5783 1.2696
54.7700 23.5650 1.2685
54.7900 23.5518 1.2680
54.8100 23.5384 1.2662
54.8300 23.5251 1.2653
54.8500 23.5117 1.2661
54.8700 23.4984 1.2612
54.8900 23.4851 1.2651
54.9100 23.4717 1.2596
54.9300 23.4583 1.2621
54.9500 23.4450 1.2586
54.9700 23.4317 1.2603
54.9900 23.4184 1.2558
55.0100 23.4050 1.2591
55.0300 23.3917 1.2544
55.0500 23.3784 1.2555
55.0700 23.3650 1.2539
55.0900 23.3517 1.2530
55.1100 23.3384 1.2526
55.1300 23.3250 1.2510
55.1500 23.3118 1.2509
55.1700 23.2984 1.2478
55.1900 23.2851 1.2503
55.2100 23.2717 1.2450
55.2300 23.2584 1.2490
55.2500 23.2451 1.2428
55.2700 23.2317 1.2471
55.2900 23.2184 1.2417
55.3100 23.2050 1.2451
55.3300 23.1917 1.2403
55.3500 23.1784 1.2418
55.3700 23.1650 1.2391
55.3900 23.1517 1.2404
55.4100 23.1384 1.2376
55.4300 23.1251 1.2375
55.4500 23.1117 1.2372
55.4700 23.0984 1.2340
55.4900 23.0851 1.2368
55.5100 23.0718 1.2323
55.5300 23.0585 1.2340
55.5500 23.0451 1.2305
55.5700 23.0317 1.2335
55.5900 23.0184 1.2268
55.6100 23.0051 1.2317
55.6300 22.9917 1.2262
55.6500 22.9783 1.2283
55.6700 22.9650 1.2263
55.6900 22.9517 1.2254
55.7100 22.9384 1.2239
55.7300 22.9250 1.2244
55.7500 22.9117 1.2228
55.7700 22.8983 1.2219
55.7900 22.8851 1.2223
55.8100 22.8718 1.2189
55.8300 22.8584 1.2203
55.8500 22.8451 1.2176
55.8700 22.8318 1.2187
55.8900 22.8185 1.2153
55.9100 22.8051 1.2169
55.9300 22.7917 1.2141
55.9500 22.7784 1.2151
55.9700 22.7651 1.2120
55.9900 22.7517 1.2137
56.0100 22.7383 1.2099
56.0300 22.7250 1.2118
56.0500 22.7117 1.2094
56.0700 22.6984 1.2084
56.0900 22.6850 1.2079
56.1100 22.6717 1.2074
56.1300 22.6584 1.2058
56.1500 22.6451 1.2051
56.1700 22.6317 1.2059
56.1900 22.6184 1.2018
56.2100 22.6050 1.2053
56.2300 22.5917 1.1999
56.2500 22.5784 1.2024
56.2700 22.5651 1.1987
56.2900 22.5517 1.2012
56.3100 22.5384 1.1965
56.3300 22.5251 1.1981
56.3500 22.5117 1.1959
56.3700 22.4984 1.1957
56.3900 22.4850 1.1953
56.4100 22.4717 1.1938
56.4300 22.4584 1.1929
56.4500 22.4450 1.1913
56.4700 22.4317 1.1934
56.4900 22.4184 1.1877
56.5100 22.4051 1.1921
56.5300 22.3918 1.1869
56.5500 22.3784 1.1896
56.5700 22.3651 1.1854
56.5900 22.3518 1.1882
56.6100 22.3384 1.1837
56.6300 22.3251 1.1861
56.6500 22.3117 1.1830
56.6700 22.2984 1.1830
56.6900 22.2851 1.1816
56.7100 22.2717 1.1818
56.7300 22.2584 1.1795
56.7500 22.2450 1.1795
56.7700 22.2317 1.1794
56.7900 22.2184 1.1760
56.8100 22.2051 1.1778
56.8300 22.1917 1.1752
56.8500 22.1784 1.1763
56.8700 22.1651 1.1728
56.8900 22.1517 1.1750
56.9100 22.1384 1.1711
56.9300 22.1250 1.1736
56.9500 22.1117 1.1696
56.9700 22.0985 1.1711
56.9900 22.0851 1.1683
57.0100 22.0718 1.1700
57.0300 22.0584 1.1665
57.0500 22.0451 1.1675
57.0700 22.0317 1.1661
57.0900 22.0184 1.1638
57.1100 22.0050 1.1655
57.1300 21.9917 1.1622
57.1500 21.9784 1.1636
57.1700 21.9650 1.1592
57.1900 21.9517 1.1633
57.2100 21.9383 1.1575
57.2300 21.9250 1.1618
57.2500 21.9117 1.1560
57.2700 21.8984 1.1593
57.2900 21.8850 1.1551
57.3100 21.8717 1.1575
57.3300 21.8584 1.1540
57.3500 21.8451 1.1542
57.3700 21.8317 1.1541
57.3900 21.8184 1.1513
57.4100 21.8051 1.1532
57.4300 21.7918 1.1488
57.4500 21.7784 1.1520
57.4700 21.7650 1.1466
57.4900 21.7516 1.1517
57.5100 21.7383 1.1443
57.5300 21.7250 1.1496
57.5500 21.7116 1.1437
57.5700 21.6983 1.1473
57.5900 21.6850 1.1423
57.6100 21.6717 1.1456
57.6300 21.6584 1.1413
57.6500 21.6450 1.1425
57.6700 21.6318 1.1407
57.6900 21.6185 1.1403
57.7100 21.6051 1.1392
57.7300 21.5917 1.1384
57.7500 21.5784 1.1384
57.7700 21.5651 1.1356
57.7900 21.5517 1.1377
57.8100 21.5384 1.1327
57.8300 21.5250 1.1365
57.8500 21.5117 1.1323
57.8700 21.4984 1.1338
57.8900 21.4850 1.1306
57.9100 21.4717 1.1326
57.9300 21.4583 1.1296
57.9500 21.4451 1.1301
57.9700 21.4317 1.1291
57.9900 21.4184 1.1280
58.0100 21.4050 1.1275
58.0300 21.3917 1.1260
58.0500 21.3784 1.1265
58.0700 21.3651 1.1232
58.0900 21.3517 1.1264
58.1100 21.3384 1.1211
58.1300 21.3251 1.1244
58.1500 21.3118 1.1195
58.1700 21.2984 1.1224
58.1900 21.2850 1.1185
58.2100 21.2717 1.1211
58.2300 21.2584 1.1174
58.2500 21.2451 1.1178
58.2700 21.2317 1.1174
58.2900 21.2183 1.1161
58.3100 21.2050 1.1154
58.3300 21.1917 1.1146
58.3500 21.1784 1.1147
58.3700 21.1650 1.1120
58.3900 21.1517 1.1149
58.4100 21.1384 1.1093
58.4300 21.1251 1.1128
58.4500 21.1117 1.1081
58.4700 21.0984 1.1114
58.4900 21.0851 1.1056
58.5100 21.0718 1.1101
58.5300 21.0584 1.1045
58.5500 21.0450 1.1071
58.5700 21.0317 1.1046
58.5900 21.0184 1.1053
58.6100 21.0051 1.1028
58.6300 20.9917 1.1040
58.6500 20.9783 1.1018
58.6700 20.9650 1.1012
58.6900 20.9517 1.1015
58.7100 20.9383 1.0991
58.7300 20.9250 1.0999
58.7500 20.9117 1.0974
58.7700 20.8984 1.0992
58.7900 20.8851 1.0953
58.8100 20.8718 1.0977
58.8300 20.8584 1.0943
58.8500 20.8451 1.0948
58.8700 20.8318 1.0936
58.8900 20.8184 1.0937
58.9100 20.8050 1.0917
58.9300 20.7917 1.0925
58.9500 20.7784 1.0900
58.9700 20.7651 1.0894
58.9900 20.7517 1.0898
59.0100 20.7383 1.0880
59.0300 20.7250 1.0880
59.0500 20.7117 1.0861
59.0700 20.6984 1.0870
59.0900 20.6850 1.0836
59.1100 20.6717 1.0864
59.1300 20.6584 1.0819
59.1500 20.6451 1.0843
59.1700 20.6318 1.0805
59.1900 20.6184 1.0827
59.2100 20.6051 1.0791
59.2300 20.5918 1.0814
59.2500 20.5784 1.0781
59.2700 20.5650 1.0782
59.2900 20.5517 1.0775
59.3100 20.5383 1.0772
59.3300 20.5250 1.0759
59.3500 20.5117 1.0745
59.3700 20.4983 1.0761
59.3900 20.4850 1.0715
59.4100 20.4717 1.0753
59.4300 20.4584 1.0701
59.4500 20.4451 1.0732
59.4700 20.4317 1.0688
59.4900 20.4185 1.0715
59.5100 20.4051 1.0667
59.5300 20.3918 1.0704
59.5500 20.3784 1.0667
59.5700 20.3651 1.0674
59.5900 20.3517 1.0655
59.6100 20.3384 1.0661
59.6300 20.3250 1.0641
59.6500 20.3116 1.0638
59.6700 20.2983 1.0632
59.6900 20.2850 1.0613
59.7100 20.2717 1.0629
59.7300 20.2583 1.0598
59.7500 20.2450 1.0612
59.7700 20.2317 1.0582
59.7900 20.2184 1.0602
59.8100 20.2051 1.0565
59.8300 20.1917 1.0590
59.8500 20.1785 1.0554
59.8700 20.1651 1.0558
59.8900 20.1518 1.0548
59.9100 20.1384 1.0551
59.9300 20.1250 1.0529
59.9500 20.1117 1.0533
59.9700 20.0984 1.0521
59.9900 20.0850 1.0506
60.0100 20.0717 1.0518
60.0300 20.0584 1.0483
60.0500 20.0450 1.0501
60.0700 20.0317 1.0468
60.0900 20.0183 1.0504
60.1100 20.0050 1.0444
60.1300 19.9917 1.0480
60.1500 19.9784 1.0443
60.1700 19.9650 1.0457
60.1900 19.9517 1.0431
60.2100 19.9384 1.0445
60.2300 19.9251 1.0415
60.2500 19.9118 1.0426
60.2700 19.8984 1.0407
60.2900 19.8851 1.0397
60.3100 19.8717 1.0402
60.3300 19.8584 1.0376
60.3500 19.8450 1.0393
60.3700 19.8317 1.0358
60.3900 19.8183 1.0392
60.4100 19.8050 1.0327
60.4300 19.7917 1.0382
60.4500 19.7783 1.0323
60.4700 19.7650 1.0356
60.4900 19.7517 1.0308
60.5100 19.7384 1.0344
60.5300 19.7251 1.0295
60.5500 19.7117 1.0328
60.5700 19.6984 1.0285
60.5900 19.6851 1.0302
60.6100 19.6718 1.0281
60.6300 19.6584 1.0285
60.6500 19.6451 1.0268
60.6700 19.6318 1.0259
60.6900 19.6184 1.0269
60.7100 19.6050 1.0233
60.7300 19.5917 1.0256
60.7500 19.5784 1.0226
60.7700 19.5651 1.0231
60.7900 19.5517 1.0216
60.8100 19.5383 1.0223
60.8300 19.5250 1.0199
60.8500 19.5117 1.0209
60.8700 19.4984 1.0182
60.8900 19.4850 1.0187
60.9100 19.4717 1.0173
60.9300 19.4584 1.0183
60.9500 19.4451 1.0148
60.9700 19.4318 1.0161
60.9900 19.4184 1.0150
61.0100 19.4051 1.0137
61.0300 19.3917 1.0142
61.0500 19.3784 1.0121
61.0700 19.3650 1.0127
61.0900 19.3517 1.0102
61.1100 19.3384 1.0119
61.1300 19.3251 1.0074
61.1500 19.3117 1.0109
61.1700 19.2983 1.0071
61.1900 19.2850 1.0088
61.2100 19.2717 1.0055
61.2300 19.2584 1.0078
61.2500 19.2450 1.0046
61.2700 19.2317 1.0055
61.2900 19.2184 1.0045
61.3100 19.2051 1.0024
61.3300 19.1918 1.0038
61.3500 19.1784 1.0002
61.3700 19.1651 1.0032
61.3900 19.1517 0.9985
61.4100 19.1384 1.0017
61.4300 19.1250 0.9972
61.4500 19.1116 0.9997
61.4700 19.0983 0.9964
61.4900 19.0850 0.9978
61.5100 19.0717 0.9957
61.5300 19.0583 0.9969
61.5500 19.0450 0.9939
61.5700 19.0318 0.9942
61.5900 19.0184 0.9939
61.6100 19.0051 0.9921
61.6300 18.9917 0.9931
61.6500 18.9784 0.9907
61.6700 18.9651 0.9911
61.6900 18.9518 0.9887
61.7100 18.9384 0.9903
61.7300 18.9250 0.9878
61.7500 18.9117 0.9884
61.7700 18.8984 0.9861
61.7900 18.8850 0.9870
61.8100 18.8717 0.9848
61.8300 18.8584 0.9863
61.8500 18.8450 0.9833
61.8700 18.8317 0.9847
61.8900 18.8183 0.9819
61.9100 18.8050 0.9830
61.9300 18.7917 0.9806
61.9500 18.7784 0.9814
61.9700 18.7651 0.9805
61.9900 18.7517 0.9789
62.0100 18.7384 0.9795
62.0300 18.7251 0.9768
62.0500 18.7118 0.9787
62.0700 18.6984 0.9756
62.0900 18.6851 0.9779
62.1100 18.6717 0.9730
62.1300 18.6584 0.9770
62.1500 18.6451 0.9716
62.1700 18.6317 0.9757
62.1900 18.6184 0.9705
62.2100 18.6050 0.9731
62.2300 18.5917 0.9692
62.2500 18.5783 0.9715
62.2700 18.5650 0.9691
62.2900 18.5517 0.9685
62.3100 18.5384 0.9698
62.3300 18.5250 0.9660
62.3500 18.5117 0.9690
62.3700 18.4984 0.9647
62.3900 18.4851 0.9675
62.4100 18.4718 0.9628
62.4300 18.4584 0.9665
62.4500 18.4451 0.9611
62.4700 18.4317 0.9642
62.4900 18.4184 0.9606
62.5100 18.4051 0.9623
62.5300 18.3917 0.9594
62.5500 18.3784 0.9605
62.5700 18.3650 0.9579
62.5900 18.3517 0.9590
62.6100 18.3383 0.9586
62.6300 18.3250 0.9567
62.6500 18.3117 0.9571
62.6700 18.2984 0.9547
62.6900 18.2850 0.9565
62.7100 18.2717 0.9536
62.7300 18.2584 0.9555
62.7500 18.2451 0.9517
62.7700 18.2318 0.9530
62.7900 18.2184 0.9511
62.8100 18.2050 0.9524
62.8300 18.1917 0.9485
62.8500 18.1784 0.9510
62.8700 18.1650 0.9473
62.8900 18.1517 0.9494
62.9100 18.1383 0.9480
62.9300 18.1250 0.9472
62.9500 18.1117 0.9462
62.9700 18.0983 0.9451
62.9900 18.0850 0.9466
63.0100 18.0717 0.9421
63.0300 18.0584 0.9462
63.0500 18.0451 0.9407
63.0700 18.0318 0.9441
63.0900 18.0184 0.9395
63.1100 18.0051 0.9434
63.1300 17.9918 0.9373
63.1500 17.9784 0.9427
63.1700 17.9651 0.9370
63.1900 17.9517 0.9392
63.2100 17.9384 0.9361
63.2300 17.9250 0.9378
63.2500 17.9117 0.9363
63.2700 17.8983 0.9342
63.2900 17.8850 0.9368
63.3100 17.8717 0.9315
63.3300 17.8584 0.9352
63.3500 17.8450 0.9305
63.3700 17.8317 0.9338
63.3900 17.8184 0.9297
63.4100 17.8051 0.9327
63.4300 17.7917 0.9275
63.4500 17.7784 0.9314
63.4700 17.7651 0.9274
63.4900 17.7518 0.9290
63.5100 17.7384 0.9269
63.5300 17.7251 0.9283
63.5500 17.7117 0.9246
63.5700 17.6984 0.9254
63.5900 17.6851 0.9244
63.6100 17.6717 0.9241
63.6300 17.6583 0.9234
63.6500 17.6450 0.9224
63.6700 17.6317 0.9216
63.6900 17.6183 0.9214
63.7100 17.6050 0.9215
63.7300 17.5917 0.9190
63.7500 17.5784 0.9202
63.7700 17.5651 0.9176
63.7900 17.5517 0.9195
63.8100 17.5384 0.9154
63.8300 17.5251 0.9188
63.8500 17.5118 0.9133
63.8700 17.4984 0.9169
63.8900 17.4850 0.9139
63.9100 17.4717 0.9147
63.9300 17.4584 0.9131
63.9500 17.4451 0.9123
63.9700 17.4317 0.9118
63.9900 17.4184 0.9107
64.0100 17.4051 0.9116
64.0300 17.3917 0.9082
64.0500 17.3784 0.9109
64.0700 17.3650 0.9071
64.0900 17.3517 0.9091
64.1100 17.3384 0.9050
64.1300 17.3251 0.9088
64.1500 17.3117 0.9037
64.1700 17.2984 0.9063
64.1900 17.2851 0.9039
64.2100 17.2718 0.9040
64.2300 17.2584 0.9028
64.2500 17.2451 0.9026
64.2700 17.2318 0.9020
64.2900 17.2184 0.9002
64.3100 17.2051 0.9011
64.3300 17.1917 0.8982
64.3500 17.1783 0.9006
64.3700 17.1650 0.8970
64.3900 17.1517 0.8989
64.4100 17.1383 0.8958
64.4300 17.1250 0.8982
64.4500 17.1117 0.8939
64.4700 17.0984 0.8965
64.4900 17.0850 0.8930
64.5100 17.0717 0.8950
64.5300 17.0584 0.8920
64.5500 17.0451 0.8936
64.5700 17.0318 0.8908
64.5900 17.0184 0.8915
64.6100 17.0051 0.8909
64.6300 16.9917 0.8893
64.6500 16.9784 0.8900
64.6700 16.9651 0.8875
64.6900 16.9517 0.8882
64.7100 16.9383 0.8862
64.7300 16.9250 0.8883
64.7500 16.9117 0.8843
64.7700 16.8983 0.8870
64.7900 16.8850 0.8836
64.8100 16.8717 0.8854
64.8300 16.8584 0.8813
64.8500 16.8451 0.8838
64.8700 16.8317 0.8814
64.8900 16.8184 0.8815
64.9100 16.8051 0.8811
64.9300 16.7918 0.8788
64.9500 16.7784 0.8803
64.9700 16.7651 0.8779
64.9900 16.7517 0.8790
65.0100 16.7384 0.8753
65.0300 16.7251 0.8790
65.0500 16.7117 0.8732
65.0700 16.6984 0.8779
65.0900 16.6850 0.8724
65.1100 16.6717 0.8755
65.1300 16.6583 0.8713
65.1500 16.6450 0.8753
65.1700 16.6317 0.8698
65.1900 16.6184 0.8721
65.2100 16.6051 0.8707
65.2300 16.5917 0.8690
65.2500 16.5784 0.8709
65.2700 16.5651 0.8675
65.2900 16.5518 0.8690
65.3100 16.5384 0.8656
65.3300 16.5250 0.8685
65.3500 16.5117 0.8647
65.3700 16.4984 0.8667
65.3900 16.4851 0.8628
65.4100 16.4717 0.8660
65.4300 16.4583 0.8614
65.4500 16.4450 0.8651
65.4700 16.4317 0.8607
65.4900 16.4184 0.8622
65.5100 16.4050 0.8604
65.5300 16.3917 0.8605
65.5500 16.3784 0.8591
65.5700 16.3651 0.8586
65.5900 16.3517 0.8589
65.6100 16.3384 0.8570
65.6300 16.3251 0.8572
65.6500 16.3117 0.8555
65.6700 16.2984 0.8563
65.6900 16.2850 0.8542
65.7100 16.2717 0.8555
65.7300 16.2584 0.8518
65.7500 16.2451 0.8547
65.7700 16.2317 0.8505
65.7900 16.2184 0.8526
65.8100 16.2050 0.8504
65.8300 16.1917 0.8504
65.8500 16.1784 0.8493
65.8700 16.1650 0.8490
65.8900 16.1517 0.8489
65.9100 16.1384 0.8465
65.9300 16.1250 0.8487
65.9500 16.1117 0.8444
65.9700 16.0984 0.8483
65.9900 16.0851 0.8430
66.0100 16.0718 0.8467
66.0300 16.0585 0.8408
66.0500 16.0451 0.8457
66.0700 16.0317 0.8407
66.0900 16.0184 0.8440
66.1100 16.0051 0.8394
66.1300 15.9917 0.8415
66.1500 15.9784 0.8392
66.1700 15.9651 0.8391
66.1900 15.9518 0.8390
66.2100 15.9384 0.8371
66.2300 15.9250 0.8385
66.2500 15.9116 0.8353
66.2700 15.8983 0.8378
66.2900 15.8850 0.8336
66.3100 15.8717 0.8368
66.3300 15.8584 0.8318
66.3500 15.8451 0.8361
66.3700 15.8318 0.8303
66.3900 15.8185 0.8342
66.4100 15.8051 0.8302
66.4300 15.7918 0.8331
66.4500 15.7785 0.8283
66.4700 15.7651 0.8309
66.4900 15.7517 0.8279
66.5100 15.7383 0.8290
66.5300 15.7250 0.8281
66.5500 15.7117 0.8268
66.5700 15.6983 0.8272
66.5900 15.6850 0.8251
66.6100 15.6717 0.8263
66.6300 15.6584 0.8228
66.6500 15.6451 0.8255
66.6700 15.6317 0.8218
66.6900 15.6184 0.8239
66.7100 15.6051 0.8203
66.7300 15.5918 0.8230
66.7500 15.5784 0.8182
66.7700 15.5651 0.8222
66.7900 15.5517 0.8181
66.8100 15.5384 0.8197
66.8300 15.5251 0.8163
66.8500 15.5117 0.8181
66.8700 15.4983 0.8155
66.8900 15.4850 0.8162
66.9100 15.4717 0.8156
66.9300 15.4584 0.8133
66.9500 15.4450 0.8149
66.9700 15.4317 0.8121
66.9900 15.4184 0.8143
67.0100 15.4051 0.8104
67.0300 15.3917 0.8138
67.0500 15.3784 0.8077
67.0700 15.3651 0.8126
67.0900 15.3518 0.8068
67.1100 15.3385 0.8108
67.1300 15.3251 0.8067
67.1500 15.3117 0.8087
67.1700 15.2984 0.8060
67.1900 15.2850 0.8061
67.2100 15.2717 0.8069
67.2300 15.2583 0.8042
67.2500 15.2450 0.8056
67.2700 15.2317 0.8031
67.2900 15.2184 0.8045
67.3100 15.2050 0.8016
67.3300 15.1917 0.8040
67.3500 15.1784 0.7993
67.3700 15.1651 0.8026
67.3900 15.1517 0.7977
67.4100 15.1384 0.8015
67.4300 15.1251 0.7974
67.4500 15.1118 0.7994
67.4700 15.0985 0.7964
67.4900 15.0851 0.7975
67.5100 15.0717 0.7957
67.5300 15.0584 0.7956
67.5500 15.0451 0.7947
67.5700 15.0317 0.7944
67.5900 15.0183 0.7938
67.6100 15.0050 0.7921
67.6300 14.9917 0.7934
67.6500 14.9784 0.7901
67.6700 14.9650 0.7923
67.6900 14.9516 0.7889
67.7100 14.9383 0.7908
67.7300 14.9250 0.7875
67.7500 14.9117 0.7896
67.7700 14.8984 0.7865
67.7900 14.8851 0.7874
67.8100 14.8718 0.7866
67.8300 14.8585 0.7848
67.8500 14.8451 0.7857
67.8700 14.8318 0.7835
67.8900 14.8185 0.7848
67.9100 14.8051 0.7816
67.9300 14.7917 0.7847
67.9500 14.7783 0.7795
67.9700 14.7650 0.7838
67.9900 14.7517 0.7780
68.0100 14.7383 0.7825
68.0300 14.7250 0.7768
68.0500 14.7116 0.7818
68.0700 14.6983 0.7754
68.0900 14.6850 0.7789
68.1100 14.6717 0.7761
68.1300 14.6584 0.7766
68.1500 14.6451 0.7750
68.1700 14.6318 0.7747
68.1900 14.6185 0.7741
68.2100 14.6051 0.7721
68.2300 14.5917 0.7746
68.2500 14.5784 0.7703
68.2700 14.5651 0.7725
68.2900 14.5517 0.7696
68.3100 14.5383 0.7715
68.3300 14.5250 0.7671
68.3500 14.5117 0.7709
68.3700 14.4984 0.7664
68.3900 14.4850 0.7683
68.4100 14.4717 0.7663
68.4300 14.4584 0.7663
68.4500 14.4451 0.7652
68.4700 14.4317 0.7648
68.4900 14.4184 0.7646
68.5100 14.4051 0.7626
68.5300 14.3918 0.7642
68.5500 14.3785 0.7604
68.5700 14.3651 0.7631
68.5900 14.3518 0.7597
68.6100 14.3384 0.7617
68.6300 14.3251 0.7575
68.6500 14.3117 0.7615
68.6700 14.2983 0.7567
68.6900 14.2850 0.7593
68.7100 14.2717 0.7557
68.7300 14.2583 0.7571
68.7500 14.2450 0.7553
68.7700 14.2317 0.7556
68.7900 14.2184 0.7548
68.8100 14.2051 0.7523
68.8300 14.1918 0.7556
68.8500 14.1784 0.7508
68.8700 14.1651 0.7543
68.8900 14.1518 0.7498
68.9100 14.1385 0.7531
68.9300 14.1251 0.7475
68.9500 14.1117 0.7525
68.9700 14.0984 0.7464
68.9900 14.0851 0.7508
69.0100 14.0717 0.7453
69.0300 14.0584 0.7486
69.0500 14.0450 0.7450
69.0700 14.0317 0.7471
69.0900 14.0184 0.7444
69.1100 14.0050 0.7438
69.1300 13.9917 0.7449
69.1500 13.9784 0.7422
69.1700 13.9651 0.7431
69.1900 13.9517 0.7404
69.2100 13.9384 0.7430
69.2300 13.9250 0.7380
69.2500 13.9117 0.7413
69.2700 13.8984 0.7375
69.2900 13.8851 0.7395
69.3100 13.8717 0.7369
69.3300 13.8584 0.7377
69.3500 13.8451 0.7357
69.3700 13.8317 0.7365
69.3900 13.8184 0.7352
69.4100 13.8050 0.7338
69.4300 13.7917 0.7351
69.4500 13.7784 0.7317
69.4700 13.7650 0.7340
69.4900 13.7516 0.7307
69.5100 13.7383 0.7330
69.5300 13.7250 0.7282
69.5500 13.7117 0.7315
69.5700 13.6983 0.7279
69.5900 13.6850 0.7295
69.6100 13.6717 0.7271
69.6300 13.6584 0.7284
69.6500 13.6451 0.7255
69.6700 13.6317 0.7273
69.6900 13.6184 0.7248
69.7100 13.6051 0.7245
69.7300 13.5917 0.7245
69.7500 13.5784 0.7229
69.7700 13.5650 0.7232
69.7900 13.5517 0.7211
69.8100 13.5384 0.7224
69.8300 13.5250 0.7192
69.8500 13.5117 0.7225
69.8700 13.4984 0.7176
69.8900 13.4851 0.7202
69.9100 13.4717 0.7170
69.9300 13.4584 0.7197
69.9500 13.4451 0.7149
69.9700 13.4318 0.7189
69.9900 13.4185 0.7138
70.0100 13.4051 0.7159
70.0300 13.3917 0.7145
70.0500 13.3784 0.7140
70.0700 13.3651 0.7139
70.0900 13.3517 0.7119
70.1100 13.3384 0.7127
70.1300 13.3250 0.7097
70.1500 13.3117 0.7126
70.1700 13.2984 0.7087
70.1900 13.2850 0.7102
70.2100 13.2717 0.7081
70.2300 13.2583 0.7091
70.2500 13.2451 0.7063
70.2700 13.2318 0.7081
70.2900 13.2184 0.7059
70.3100 13.2051 0.7056
70.3300 13.1918 0.7040
70.3500 13.1785 0.7041
70.3700 13.1651 0.7040
70.3900 13.1517 0.7020
70.4100 13.1384 0.7035
70.4300 13.1251 0.6990
70.4500 13.1117 0.7028
70.4700 13.0983 0.6985
70.4900 13.0850 0.7016
70.5100 13.0717 0.6978
70.5300 13.0584 0.7000
70.5500 13.0450 0.6950
70.5700 13.0317 0.6990
70.5900 13.0184 0.6947
70.6100 13.0051 0.6970
70.6300 12.9918 0.6937
70.6500 12.9784 0.6952
70.6700 12.9651 0.6928
70.6900 12.9517 0.6939
70.7100 12.9384 0.6928
70.7300 12.9251 0.6918
70.7500 12.9117 0.6921
70.7700 12.8984 0.6900
70.7900 12.8851 0.6902
70.8100 12.8717 0.6879
70.8300 12.8584 0.6904
70.8500 12.8450 0.6861
70.8700 12.8317 0.6888
70.8900 12.8184 0.6848
70.9100 12.8050 0.6877
70.9300 12.7916 0.6841
70.9500 12.7783 0.6871
70.9700 12.7650 0.6826
70.9900 12.7517 0.6846
71.0100 12.7384 0.6819
71.0300 12.7251 0.6825
71.0500 12.7118 0.6824
71.0700 12.6984 0.6805
71.0900 12.6851 0.6801
71.1100 12.6717 0.6786
71.1300 12.6584 0.6809
71.1500 12.6451 0.6762
71.1700 12.6317 0.6794
71.1900 12.6184 0.6753
71.2100 12.6050 0.6777
71.2300 12.5917 0.6736
71.2500 12.5784 0.6764
71.2700 12.5651 0.6729
71.2900 12.5517 0.6747
71.3100 12.5384 0.6721
71.3300 12.5251 0.6719
71.3500 12.5117 0.6718
71.3700 12.4984 0.6707
71.3900 12.4850 0.6702
71.4100 12.4717 0.6683
71.4300 12.4584 0.6703
71.4500 12.4451 0.6658
71.4700 12.4318 0.6693
71.4900 12.4184 0.6649
71.5100 12.4051 0.6678
71.5300 12.3918 0.6627
71.5500 12.3784 0.6668
71.5700 12.3650 0.6614
71.5900 12.3517 0.6655
71.6100 12.3384 0.6609
71.6300 12.3250 0.6629
71.6500 12.3117 0.6602
71.6700 12.2983 0.6616
71.6900 12.2850 0.6598
71.7100 12.2717 0.6592
71.7300 12.2584 0.6595
71.7500 12.2450 0.6571
71.7700 12.2317 0.6592
71.7900 12.2184 0.6558
71.8100 12.2051 0.6571
71.8300 12.1917 0.6547
71.8500 12.1784 0.6570
71.8700 12.1651 0.6523
71.8900 12.1518 0.6555
71.9100 12.1384 0.6515
71.9300 12.1250 0.6541
71.9500 12.1117 0.6503
71.9700 12.0983 0.6527
71.9900 12.0850 0.6492
72.0100 12.0716 0.6498
72.0300 12.0583 0.6502
72.0500 12.0450 0.6472
72.0700 12.0317 0.6490
72.0900 12.0184 0.6462
72.1100 12.0050 0.6481
72.1300 11.9917 0.6442
72.1500 11.9784 0.6477
72.1700 11.9651 0.6419
72.1900 11.9517 0.6459
72.2100 11.9384 0.6412
72.2300 11.9251 0.6444
72.2500 11.9117 0.6400
72.2700 11.8984 0.6428
72.2900 11.8850 0.6395
72.3100 11.8717 0.6400
72.3300 11.8584 0.6408
72.3500 11.8450 0.6373
72.3700 11.8317 0.6399
72.3900 11.8183 0.6359
72.4100 11.8050 0.6385
72.4300 11.7917 0.6336
72.4500 11.7784 0.6386
72.4700 11.7650 0.6323
72.4900 11.7517 0.6362
72.5100 11.7384 0.6312
72.5300 11.7251 0.6350
72.5500 11.7117 0.6298
72.5700 11.6984 0.6340
72.5900 11.6851 0.6291
72.6100 11.6718 0.6304
72.6300 11.6584 0.6295
72.6500 11.6450 0.6284
72.6700 11.6317 0.6288
72.6900 11.6184 0.6276
72.7100 11.6051 0.6268
72.7300 11.5917 0.6247
72.7500 11.5784 0.6265
72.7700 11.5650 0.6237
72.7900 11.5517 0.6244
72.8100 11.5384 0.6223
72.8300 11.5250 0.6241
72.8500 11.5117 0.6205
72.8700 11.4984 0.6232
72.8900 11.4851 0.6188
72.9100 11.4717 0.6209
72.9300 11.4584 0.6189
72.9500 11.4451 0.6192
72.9700 11.4318 0.6175
72.9900 11.4184 0.6174
73.0100 11.4051 0.6165
73.0300 11.3917 0.6150
73.0500 11.3784 0.6162
73.0700 11.3650 0.6132
73.0900 11.3517 0.6149
73.1100 11.3383 0.6116
73.1300 11.3250 0.6146
73.1500 11.3117 0.6093
73.1700 11.2984 0.6142
73.1900 11.2850 0.6079
73.2100 11.2717 0.6113
73.2300 11.2584 0.6079
73.2500 11.2451 0.6091
73.2700 11.2318 0.6071
73.2900 11.2184 0.6069
73.3100 11.2051 0.6074
73.3300 11.1917 0.6031
73.3500 11.1784 0.6075
73.3700 11.1650 0.6013
73.3900 11.1517 0.6061
73.4100 11.1384 0.6001
73.4300 11.1251 0.6049
73.4500 11.1117 0.5983
73.4700 11.0983 0.6040
73.4900 11.0850 0.5977
73.5100 11.0717 0.6013
73.5300 11.0583 0.5974
73.5500 11.0450 0.5997
73.5700 11.0317 0.5963
73.5900 11.0184 0.5981
73.6100 11.0051 0.5958
73.6300 10.9918 0.5947
73.6500 10.9784 0.5960
73.6700 10.9651 0.5933
73.6900 10.9518 0.5941
73.7100 10.9384 0.5922
73.7300 10.9250 0.5928
73.7500 10.9117 0.5902
73.7700 10.8983 0.5922
73.7900 10.8850 0.5893
73.8100 10.8717 0.5899
73.8300 10.8583 0.5882
73.8500 10.8450 0.5883
73.8700 10.8317 0.5859
73.8900 10.8184 0.5879
73.9100 10.8051 0.5862
73.9300 10.7917 0.5850
73.9500 10.7785 0.5849
73.9700 10.7651 0.5830
73.9900 10.7518 0.5844
74.0100 10.7384 0.5817
74.0300 10.7251 0.5835
74.0500 10.7118 0.5790
74.0700 10.6984 0.5824
74.0900 10.6850 0.5780
74.1100 10.6717 0.5812
74.1300 10.6583 0.5765
74.1500 10.6450 0.5803
74.1700 10.6317 0.5746
74.1900 10.6183 0.5788
74.2100 10.6050 0.5750
74.2300 10.5917 0.5749
74.2500 10.5784 0.5753
74.2700 10.5650 0.5723
74.2900 10.5517 0.5749
74.3100 10.5384 0.5700
74.3300 10.5251 0.5749
74.3500 10.5118 0.5667
74.3700 10.4984 0.5739
74.3900 10.4850 0.5666
74.4100 10.4717 0.5709
74.4300 10.4584 0.5661
74.4500 10.4450 0.5698
74.4700 10.4317 0.5640
74.4900 10.4184 0.5685
74.5100 10.4050 0.5641
74.5300 10.3917 0.5654
74.5500 10.3783 0.5640
74.5700 10.3650 0.5632
74.5900 10.3517 0.5625
74.6100 10.3384 0.5613
74.6300 10.3250 0.5630
74.6500 10.3117 0.5591
74.6700 10.2984 0.5612
74.6900 10.2851 0.5586
74.7100 10.2718 0.5584
74.7300 10.2584 0.5573
74.7500 10.2450 0.5580
74.7700 10.2317 0.5551
74.7900 10.2184 0.5571
74.8100 10.2050 0.5538
74.8300 10.1917 0.5551
74.8500 10.1783 0.5527
74.8700 10.1650 0.5543
74.8900 10.1517 0.5512
74.9100 10.1383 0.5521
74.9300 10.1250 0.5517
74.9500 10.1117 0.5487
74.9700 10.0984 0.5510
74.9900 10.0850 0.5484
75.0100 10.0717 0.5490
75.0300 10.0584 0.5459
75.0500 10.0451 0.5491
75.0700 10.0318 0.5433
75.0900 10.0184 0.5483
75.1100 10.0051 0.5428
75.1300 9.9918 0.5451
75.1500 9.9784 0.5420
75.1700 9.9650 0.5444
75.1900 9.9517 0.5412
75.2100 9.9383 0.5409
75.2300 9.9250 0.5419
75.2500 9.9117 0.5383
75.2700 9.8983 0.5412
75.2900 9.8850 0.5369
75.3100 9.8717 0.5396
75.3300 9.8584 0.5350
75.3500 9.8450 0.5390
75.3700 9.8317 0.5332
75.3900 9.8184 0.5370
75.4100 9.8051 0.5324
75.4300 9.7918 0.5351
75.4500 9.7784 0.5320
75.4700 9.7651 0.5336
75.4900 9.7518 0.5301
75.5100 9.7384 0.5312
75.5300 9.7250 0.5302
75.5500 9.7117 0.5285
75.5700 9.6983 0.5288
75.5900 9.6850 0.5276
75.6100 9.6717 0.5273
75.6300 9.6583 0.5258
75.6500 9.6450 0.5272
75.6700 9.6317 0.5235
75.6900 9.6184 0.5258
75.7100 9.6051 0.5227
75.7300 9.5917 0.5243
75.7500 9.5784 0.5206
75.7700 9.5651 0.5226
75.7900 9.5518 0.5194
75.8100 9.5385 0.5214
75.8300 9.5251 0.5184
75.8500 9.5118 0.5192
75.8700 9.4984 0.5177
75.8900 9.4850 0.5176
75.9100 9.4717 0.5165
75.9300 9.4583 0.5147
75.9500 9.4450 0.5169
75.9700 9.4317 0.5117
75.9900 9.4183 0.5158
76.0100 9.4050 0.5117
76.0300 9.3917 0.5138
76.0500 9.3784 0.5097
76.0700 9.3651 0.5132
76.0900 9.3517 0.5078
76.1100 9.3384 0.5114
76.1300 9.3251 0.5074
76.1500 9.3118 0.5086
76.1700 9.2984 0.5067
76.1900 9.2851 0.5072
76.2100 9.2717 0.5053
76.2300 9.2584 0.5038
76.2500 9.2450 0.5067
76.2700 9.2317 0.5014
76.2900 9.2184 0.5055
76.3100 9.2050 0.5004
76.3300 9.1917 0.5030
76.3500 9.1783 0.4991
76.3700 9.1650 0.5021
76.3900 9.1517 0.4978
76.4100 9.1384 0.4999
76.4300 9.1250 0.4975
76.4500 9.1117 0.4978
76.4700 9.0984 0.4960
76.4900 9.0851 0.4966
76.5100 9.0717 0.4945
76.5300 9.0584 0.4938
76.5500 9.0450 0.4950
76.5700 9.0317 0.4912
76.5900 9.0184 0.4934
76.6100 9.0050 0.4906
76.6300 8.9917 0.4910
76.6500 8.9783 0.4895
76.6700 8.9650 0.4912
76.6900 8.9517 0.4872
76.7100 8.9383 0.4889
76.7300 8.9250 0.4867
76.7500 8.9117 0.4871
76.7700 8.8984 0.4851
76.7900 8.8850 0.4870
76.8100 8.8717 0.4842
76.8300 8.8584 0.4837
76.8500 8.8451 0.4838
76.8700 8.8318 0.4811
76.8900 8.8184 0.4839
76.9100 8.8050 0.4793
76.9300 8.7917 0.4821
76.9500 8.7784 0.4766
76.9700 8.7651 0.4818
76.9900 8.7517 0.4760
77.0100 8.7384 0.4801
77.0300 8.7251 0.4747
77.0500 8.7117 0.4784
77.0700 8.6983 0.4728
77.0900 8.6850 0.4773
77.1100 8.6717 0.4729
77.1300 8.6584 0.4737
77.1500 8.6451 0.4735
77.1700 8.6317 0.4709
77.1900 8.6184 0.4732
77.2100 8.6051 0.4693
77.2300 8.5918 0.4722
77.2500 8.5784 0.4664
77.2700 8.5650 0.4717
77.2900 8.5517 0.4653
77.3100 8.5384 0.4693
77.3300 8.5251 0.4651
77.3500 8.5117 0.4672
77.3700 8.4983 0.4631
77.3900 8.4850 0.4649
77.4100 8.4717 0.4622
77.4300 8.4584 0.4625
77.4500 8.4450 0.4623
77.4700 8.4317 0.4600
77.4900 8.4184 0.4604
77.5100 8.4051 0.4583
77.5300 8.3918 0.4598
77.5500 8.3784 0.4559
77.5700 8.3651 0.4592
77.5900 8.3518 0.4548
77.6100 8.3384 0.4564
77.6300 8.3251 0.4537
77.6500 8.3117 0.4552
77.6700 8.2984 0.4515
77.6900 8.2850 0.4538
77.7100 8.2717 0.4501
77.7300 8.2583 0.4512
77.7500 8.2450 0.4500
77.7700 8.2317 0.4493
77.7900 8.2184 0.4485
77.8100 8.2050 0.4484
77.8300 8.1917 0.4484
77.8500 8.1784 0.4445
77.8700 8.1651 0.4481
77.8900 8.1517 0.4434
77.9100 8.1384 0.4461
77.9300 8.1251 0.4421
77.9500 8.1118 0.4452
77.9700 8.0984 0.4402
77.9900 8.0850 0.4436
78.0100 8.0717 0.4393
78.0300 8.0584 0.4402
78.0500 8.0451 0.4399
78.0700 8.0317 0.4391
78.0900 8.0183 0.4385
78.1100 8.0050 0.4368
78.1300 7.9917 0.4382
78.1500 7.9784 0.4333
78.1700 7.9650 0.4378
78.1900 7.9517 0.4322
78.2100 7.9384 0.4353
78.2300 7.9251 0.4302
78.2500 7.9117 0.4338
78.2700 7.8984 0.4289
78.2900 7.8851 0.4328
78.3100 7.8718 0.4287
78.3300 7.8584 0.4296
78.3500 7.8450 0.4281
78.3700 7.8317 0.4274
78.3900 7.8184 0.4265
78.4100 7.8051 0.4257
78.4300 7.7917 0.4265
78.4500 7.7784 0.4223
78.4700 7.7651 0.4257
78.4900 7.7517 0.4215
78.5100 7.7384 0.4239
78.5300 7.7250 0.4206
78.5500 7.7117 0.4223
78.5700 7.6984 0.4185
78.5900 7.6850 0.4207
78.6100 7.6717 0.4178
78.6300 7.6584 0.4185
78.6500 7.6451 0.4167
78.6700 7.6318 0.4168
78.6900 7.6184 0.4142
78.7100 7.6051 0.4162
78.7300 7.5917 0.4134
78.7500 7.5784 0.4144
78.7700 7.5651 0.4115
78.7900 7.5517 0.4132
78.8100 7.5383 0.4101
78.8300 7.5250 0.4111
78.8500 7.5117 0.4095
78.8700 7.4983 0.4084
78.8900 7.4850 0.4098
78.9100 7.4717 0.4066
78.9300 7.4584 0.4072
78.9500 7.4450 0.4051
78.9700 7.4317 0.4069
78.9900 7.4184 0.4028
79.0100 7.4051 0.4053
79.0300 7.3918 0.4024
79.0500 7.3784 0.4028
79.0700 7.3650 0.4008
79.0900 7.3517 0.4016
79.1100 7.3384 0.4001
79.1300 7.3251 0.3983
79.1500 7.3117 0.4004
79.1700 7.2983 0.3951
79.1900 7.2850 0.3988
79.2100 7.2717 0.3939
79.2300 7.2583 0.3968
79.2500 7.2450 0.3931
79.2700 7.2316 0.3962
79.2900 7.2183 0.3904
79.3100 7.2050 0.3945
79.3300 7.1917 0.3907
79.3500 7.1784 0.3926
79.3700 7.1651 0.3895
79.3900 7.1518 0.3904
79.4100 7.1384 0.3878
79.4300 7.1251 0.3887
79.4500 7.1117 0.3880
79.4700 7.0984 0.3853
79.4900 7.0851 0.3868
79.5100 7.0717 0.3840
79.5300 7.0584 0.3848
79.5500 7.0450 0.3829
79.5700 7.0317 0.3844
79.5900 7.0184 0.3806
79.6100 7.0050 0.3819
79.6300 6.9917 0.3795
79.6500 6.9784 0.3806
79.6700 6.9651 0.3779
79.6900 6.9517 0.3797
79.7100 6.9384 0.3763
79.7300 6.9251 0.3770
79.7500 6.9118 0.3764
79.7700 6.8984 0.3745
79.7900 6.8851 0.3758
79.8100 6.8718 0.3731
79.8300 6.8585 0.3736
79.8500 6.8451 0.3698
79.8700 6.8317 0.3739
79.8900 6.8183 0.3687
79.9100 6.8050 0.3717
79.9300 6.7917 0.3668
79.9500 6.7784 0.3699
79.9700 6.7650 0.3650
79.9900 6.7517 0.3692
80.0100 6.7384 0.3640
80.0300 6.7251 0.3663
80.0500 6.7117 0.3646
80.0700 6.6984 0.3628
80.0900 6.6851 0.3639
80.1100 6.6717 0.3613
80.1300 6.6584 0.3630
80.1500 6.6450 0.3584
80.1700 6.6317 0.3627
80.1900 6.6184 0.3568
80.2100 6.6051 0.3606
80.2300 6.5917 0.3557
80.2500 6.5784 0.3582
80.2700 6.5650 0.3544
80.2900 6.5517 0.3568
80.3100 6.5383 0.3532
80.3300 6.5250 0.3539
80.3500 6.5116 0.3541
80.3700 6.4983 0.3509
80.3900 6.4850 0.3527
80.4100 6.4717 0.3492
80.4300 6.4584 0.3520
80.4500 6.4451 0.3466
80.4700 6.4318 0.3500
80.4900 6.4184 0.3454
80.5100 6.4051 0.3474
80.5300 6.3917 0.3453
80.5500 6.3784 0.3453
80.5700 6.3651 0.3440
80.5900 6.3517 0.3443
80.6100 6.3384 0.3425
80.6300 6.3251 0.3414
80.6500 6.3117 0.3419
80.6700 6.2984 0.3401
80.6900 6.2850 0.3398
80.7100 6.2716 0.3392
80.7300 6.2583 0.3379
80.7500 6.2450 0.3368
80.7700 6.2317 0.3374
80.7900 6.2184 0.3346
80.8100 6.2051 0.3362
80.8300 6.1918 0.3340
80.8500 6.1785 0.3340
80.8700 6.1651 0.3315
80.8900 6.1518 0.3331
80.9100 6.1384 0.3299
80.9300 6.1251 0.3305
80.9500 6.1118 0.3297
80.9700 6.0984 0.3291
80.9900 6.0850 0.3269
81.0100 6.0717 0.3277
81.0300 6.0583 0.3268
81.0500 6.0450 0.3245
81.0700 6.0316 0.3269
81.0900 6.0184 0.3217
81.1100 6.0051 0.3250
81.1300 5.9917 0.3208
81.1500 5.9784 0.3237
81.1700 5.9651 0.3190
81.1900 5.9518 0.3225
81.2100 5.9385 0.3182
81.2300 5.9251 0.3195
81.2500 5.9117 0.3177
81.2700 5.8984 0.3170
81.2900 5.8851 0.3159
81.3100 5.8717 0.3157
81.3300 5.8583 0.3156
81.3500 5.8450 0.3129
81.3700 5.8317 0.3147
81.3900 5.8183 0.3107
81.4100 5.8050 0.3134
81.4300 5.7916 0.3100
81.4500 5.7784 0.3112
81.4700 5.7651 0.3077
81.4900 5.7517 0.3102
81.5100 5.7384 0.3073
81.5300 5.7251 0.3080
81.5500 5.7118 0.3062
81.5700 5.6985 0.3067
81.5900 5.6851 0.3031
81.6100 5.6717 0.3061
81.6300 5.6584 0.3015
81.6500 5.6450 0.3026
81.6700 5.6317 0.3012
81.6900 5.6183 0.3019
81.7100 5.6050 0.2992
81.7300 5.5917 0.2998
81.7500 5.5784 0.2986
81.7700 5.5650 0.2968
81.7900 5.5517 0.2982
81.8100 5.5384 0.2947
81.8300 5.5251 0.2954
81.8500 5.5117 0.2933
81.8700 5.4984 0.2948
81.8900 5.4851 0.2912
81.9100 5.4718 0.2942
81.9300 5.4585 0.2895
81.9500 5.4451 0.2913
81.9700 5.4317 0.2897
81.9900 5.4184 0.2898
82.0100 5.4051 0.2877
82.0300 5.3917 0.2869
82.0500 5.3784 0.2868
82.0700 5.3650 0.2843
82.0900 5.3517 0.2865
82.1100 5.3384 0.2834
82.1300 5.3250 0.2836
82.1500 5.3116 0.2818
82.1700 5.2983 0.2824
82.1900 5.2850 0.2798
82.2100 5.2717 0.2820
82.2300 5.2584 0.2786
82.2500 5.2451 0.2796
82.2700 5.2318 0.2775
82.2900 5.2184 0.2776
82.3100 5.2051 0.2757
82.3300 5.1918 0.2751
82.3500 5.1784 0.2754
82.3700 5.1651 0.2718
82.3900 5.1518 0.2740
82.4100 5.1384 0.2713
82.4300 5.1250 0.2721
82.4500 5.1117 0.2704
82.4700 5.0984 0.2713
82.4900 5.0850 0.2677
82.5100 5.0716 0.2708
82.5300 5.0583 0.2658
82.5500 5.0450 0.2683
82.5700 5.0317 0.2644
82.5900 5.0184 0.2665
82.6100 5.0051 0.2626
82.6300 4.9918 0.2648
82.6500 4.9785 0.2622
82.6700 4.9651 0.2622
82.6900 4.9518 0.2616
82.7100 4.9384 0.2600
82.7300 4.9251 0.2607
82.7500 4.9117 0.2576
82.7700 4.8983 0.2596
82.7900 4.8850 0.2549
82.8100 4.8717 0.2581
82.8300 4.8583 0.2535
82.8500 4.8450 0.2564
82.8700 4.8316 0.2526
82.8900 4.8183 0.2551
82.9100 4.8051 0.2510
82.9300 4.7917 0.2530
82.9500 4.7784 0.2506
82.9700 4.7651 0.2501
82.9900 4.7518 0.2502
83.0100 4.7385 0.2474
83.0300 4.7251 0.2487
83.0500 4.7118 0.2456
83.0700 4.6984 0.2481
83.0900 4.6851 0.2424
83.1100 4.6717 0.2462
83.1300 4.6583 0.2425
83.1500 4.6450 0.2440
83.1700 4.6317 0.2415
83.1900 4.6183 0.2421
83.2100 4.6050 0.2397
83.2300 4.5917 0.2403
83.2500 4.5784 0.2389
83.2700 4.5651 0.2371
83.2900 4.5518 0.2383
83.3100 4.5384 0.2351
83.3300 4.5251 0.2368
83.3500 4.5118 0.2327
83.3700 4.4985 0.2364
83.3900 4.4851 0.2304
83.4100 4.4717 0.2357
83.4300 4.4584 0.2296
83.4500 4.4451 0.2333
83.4700 4.4317 0.2284
83.4900 4.4183 0.2323
83.5100 4.4050 0.2267
83.5300 4.3917 0.2305
83.5500 4.3784 0.2256
83.5700 4.3651 0.2278
83.5900 4.3517 0.2245
83.6100 4.3383 0.2252
83.6300 4.3250 0.2237
83.6500 4.3117 0.2228
83.6700 4.2984 0.2245
83.6900 4.2850 0.2196
83.7100 4.2717 0.2238
83.7300 4.2584 0.2187
83.7500 4.2451 0.2218
83.7700 4.2317 0.2170
83.7900 4.2184 0.2196
83.8100 4.2051 0.2152
83.8300 4.1918 0.2175
83.8500 4.1784 0.2141
83.8700 4.1650 0.2157
83.8900 4.1517 0.2125
83.9100 4.1384 0.2143
83.9300 4.1250 0.2117
83.9500 4.1117 0.2121
83.9700 4.0983 0.2122
83.9900 4.0850 0.2085
84.0100 4.0717 0.2111
84.0300 4.0584 0.2071
84.0500 4.0450 0.2101
84.0700 4.0317 0.2057
84.0900 4.0184 0.2087
84.1100 4.0051 0.2039
84.1300 3.9917 0.2060
84.1500 3.9784 0.2035
84.1700 3.9651 0.2032
84.1900 3.9517 0.2014
84.2100 3.9384 0.2018
84.2300 3.9250 0.2004
84.2500 3.9117 0.1990
84.2700 3.8984 0.2009
84.2900 3.8850 0.1969
84.3100 3.8717 0.2002
84.3300 3.8583 0.1954
84.3500 3.8451 0.1980
84.3700 3.8317 0.1944
84.3900 3.8184 0.1963
84.4100 3.8051 0.1930
84.4300 3.7917 0.1935
84.4500 3.7784 0.1915
84.4700 3.7651 0.1918
84.4900 3.7517 0.1892
84.5100 3.7384 0.1908
84.5300 3.7251 0.1874
84.5500 3.7117 0.1885
84.5700 3.6984 0.1880
84.5900 3.6850 0.1868
84.6100 3.6717 0.1867
84.6300 3.6584 0.1857
84.6500 3.6450 0.1857
84.6700 3.6317 0.1834
84.6900 3.6183 0.1848
84.7100 3.6050 0.1806
84.7300 3.5917 0.1825
84.7500 3.5784 0.1795
84.7700 3.5651 0.1810
84.7900 3.5518 0.1773
84.8100 3.5385 0.1796
84.8300 3.5251 0.1762
84.8500 3.5117 0.1783
84.8700 3.4984 0.1763
84.8900 3.4851 0.1756
84.9100 3.4717 0.1746
84.9300 3.4583 0.1744
84.9500 3.4450 0.1745
84.9700 3.4317 0.1717
84.9900 3.4184 0.1736
85.0100 3.4051 0.1702
85.0300 3.3917 0.1717
85.0500 3.3784 0.1689
85.0700 3.3651 0.1704
85.0900 3.3517 0.1670
85.1100 3.3384 0.1686
85.1300 3.3251 0.1661
85.1500 3.3118 0.1667
85.1700 3.2984 0.1654
85.1900 3.2851 0.1648
85.2100 3.2717 0.1640
85.2300 3.2584 0.1633
85.2500 3.2451 0.1628
85.2700 3.2318 0.1608
85.2900 3.2184 0.1627
85.3100 3.2050 0.1602
85.3300 3.1917 0.1618
85.3500 3.1784 0.1573
85.3700 3.1650 0.1605
85.3900 3.1517 0.1561
85.4100 3.1384 0.1592
85.4300 3.1251 0.1546
85.4500 3.1118 0.1575
85.4700 3.0984 0.1534
85.4900 3.0850 0.1561
85.5100 3.0717 0.1517
85.5300 3.0584 0.1539
85.5500 3.0451 0.1519
85.5700 3.0317 0.1526
85.5900 3.0184 0.1527
85.6100 3.0051 0.1515
85.6300 2.9917 0.1518
85.6500 2.9784 0.1499
85.6700 2.9650 0.1524
85.6900 2.9517 0.1480
85.7100 2.9384 0.1512
85.7300 2.9251 0.1463
85.7500 2.9117 0.1482
85.7700 2.8984 0.1450
85.7900 2.8851 0.1476
85.8100 2.8717 0.1424
85.8300 2.8584 0.1467
85.8500 2.8450 0.1413
85.8700 2.8317 0.1440
85.8900 2.8184 0.1411
85.9100 2.8051 0.1406
85.9300 2.7918 0.1396
85.9500 2.7784 0.1385
85.9700 2.7651 0.1387
85.9900 2.7518 0.1357
86.0100 2.7384 0.1383
86.0300 2.7250 0.1342
86.0500 2.7117 0.1357
86.0700 2.6984 0.1317
86.0900 2.6850 0.1340
86.1100 2.6717 0.1290
86.1300 2.6583 0.1329
86.1500 2.6450 0.1280
86.1700 2.6317 0.1300
86.1900 2.6184 0.1274
86.2100 2.6051 0.1281
86.2300 2.5917 0.1265
86.2500 2.5785 0.1250
86.2700 2.5651 0.1251
86.2900 2.5518 0.1220
86.3100 2.5384 0.1243
86.3300 2.5251 0.1198
86.3500 2.5118 0.1217
86.3700 2.4984 0.1184
86.3900 2.4850 0.1200
86.4100 2.4717 0.1159
86.4300 2.4583 0.1185
86.4500 2.4450 0.1146
86.4700 2.4316 0.1160
86.4900 2.4183 0.1141
86.5100 2.4050 0.1139
86.5300 2.3917 0.1119
86.5500 2.3784 0.1106
86.5700 2.3650 0.1112
86.5900 2.3517 0.1078
86.6100 2.3385 0.1100
86.6300 2.3251 0.1066
86.6500 2.3118 0.1082
86.6700 2.2984 0.1056
86.6900 2.2851 0.1060
86.7100 2.2717 0.1026
86.7300 2.2584 0.1043
86.7500 2.2450 0.1008
86.7700 2.2317 0.1021
86.7900 2.2184 0.0985
86.8100 2.2050 0.1002
86.8300 2.1917 0.0967
86.8500 2.1783 0.0989
86.8700 2.1650 0.0964
86.8900 2.1517 0.0955
86.9100 2.1384 0.0952
86.9300 2.1250 0.0934
86.9500 2.1117 0.0936
86.9700 2.0984 0.0915
86.9900 2.0851 0.0939
87.0100 2.0717 0.0891
87.0300 2.0584 0.0926
87.0500 2.0451 0.0866
87.0700 2.0318 0.0897
87.0900 2.0184 0.0846
87.1100 2.0050 0.0881
87.1300 1.9917 0.0829
87.1500 1.9784 0.0849
87.1700 1.9651 0.0824
87.1900 1.9517 0.0819
87.2100 1.9384 0.0812
87.2300 1.9250 0.0802
87.2500 1.9117 0.0800
87.2700 1.8984 0.0785
87.2900 1.8850 0.0791
87.3100 1.8717 0.0758
87.3300 1.8584 0.0776
87.3500 1.8451 0.0741
87.3700 1.8317 0.0760
87.3900 1.8184 0.0725
87.4100 1.8051 0.0733
87.4300 1.7918 0.0701
87.4500 1.7784 0.0707
87.4700 1.7650 0.0692
87.4900 1.7517 0.0686
87.5100 1.7384 0.0670
87.5300 1.7250 0.0666
87.5500 1.7117 0.0667
87.5700 1.6983 0.0649
87.5900 1.6850 0.0653
87.6100 1.6717 0.0609
87.6300 1.6584 0.0632
87.6500 1.6450 0.0594
87.6700 1.6317 0.0613
87.6900 1.6184 0.0580
87.7100 1.6051 0.0592
87.7300 1.5918 0.0545
87.7500 1.5784 0.0568
87.7700 1.5651 0.0531
87.7900 1.5518 0.0542
87.8100 1.5384 0.0510
87.8300 1.5251 0.0525
87.8500 1.5117 0.0493
87.8700 1.4984 0.0505
87.8900 1.4851 0.0481
87.9100 1.4717 0.0470
87.9300 1.4583 0.0467
87.9500 1.4450 0.0456
87.9700 1.4317 0.0443
87.9900 1.4184 0.0429
88.0100 1.4050 0.0432
88.0300 1.3917 0.0401
88.0500 1.3784 0.0415
88.0700 1.3651 0.0381
88.0900 1.3518 0.0398
88.1100 1.3384 0.0359
88.1300 1.3251 0.0391
88.1500 1.3118 0.0353
88.1700 1.2984 0.0366
88.1900 1.2851 0.0347
88.2100 1.2717 0.0339
88.2300 1.2584 0.0325
88.2500 1.2450 0.0320
88.2700 1.2317 0.0324
88.2900 1.2183 0.0318
88.3100 1.2050 0.0309
88.3300 1.1917 0.0299
88.3500 1.1784 0.0283
88.3700 1.1651 0.0277
88.3900 1.1517 0.0272
88.4100 1.1384 0.0257
88.4300 1.1251 0.0255
88.4500 1.1118 0.0226
88.4700 1.0984 0.0232
88.4900 1.0851 0.0217
88.5100 1.0717 0.0199
88.5300 1.0584 0.0196
88.5500 1.0450 0.0189
88.5700 1.0316 0.0172
88.5900 1.0183 0.0160
88.6100 1.0050 0.0150
88.6300 0.9917 0.0134
88.6500 0.9783 0.0127
88.6700 0.9650 0.0113
88.6900 0.9517 0.0114
88.7100 0.9384 0.0079
88.7300 0.9251 0.0101
88.7500 0.9117 0.0055
88.7700 0.8985 0.0074
88.7900 0.8852 0.0047
88.8100 0.8718 0.0045
88.8300 0.8584 0.0021
88.8500 0.8450 0.0024
88.8700 0.8317 -0.0001
88.8900 0.8184 -0.0004
88.9100 0.8050 -0.0017
88.9300 0.7917 -0.0029
88.9500 0.7783 -0.0039
88.9700 0.7650 -0.0053
88.9900 0.7517 -0.0056
89.0100 0.7384 -0.0081
89.0300 0.7250 -0.0072
89.0500 0.7117 -0.0102
89.0700 0.6984 -0.0097
89.0900 0.6851 -0.0126
89.1100 0.6717 -0.0114
89.1300 0.6584 -0.0150
89.1500 0.6451 -0.0143
89.1700 0.6318 -0.0169
89.1900 0.6184 -0.0166
89.2100 0.6050 -0.0176
89.2300 0.5917 -0.0186
89.2500 0.5784 -0.0205
89.2700 0.5650 -0.0205
89.2900 0.5517 -0.0212
89.3100 0.5383 -0.0229
89.3300 0.5250 -0.0234
89.3500 0.5117 -0.0244
89.3700 0.4983 -0.0254
89.3900 0.4850 -0.0254
89.4100 0.4717 -0.0264
89.4300 0.4584 -0.0270
89.4500 0.4450 -0.0280
89.4700 0.4317 -0.0279
89.4900 0.4184 -0.0291
89.5100 0.4051 -0.0299
89.5300 0.3918 -0.0297
89.5500 0.3784 -0.0313
89.5700 0.3651 -0.0305
89.5900 0.3518 -0.0325
89.6100 0.3384 -0.0324
89.6300 0.3250 -0.0328
89.6500 0.3117 -0.0335
89.6700 0.2983 -0.0337
89.6900 0.2850 -0.0346
89.7100 0.2717 -0.0321
89.7300 0.2583 -0.0357
89.7500 0.2450 -0.0315
89.7700 0.2317 -0.0353
89.7900 0.2184 -0.0320
89.8100 0.2050 -0.0355
89.8300 0.1917 -0.0320
89.8500 0.1784 -0.0351
89.8700 0.1651 -0.0322
89.8900 0.1518 -0.0347
89.9100 0.1384 -0.0339
89.9300 0.1250 -0.0336
89.9500 0.1117 -0.0338
89.9700 0.0984 -0.0337
89.9900 0.0850 -0.0347
90.0100 0.0717 -0.0323
90.0300 0.0583 -0.0355
90.0500 0.0450 -0.0325
90.0700 0.0317 -0.0351
90.0900 0.0183 -0.0325
90.1100 0.0050 -0.0342
90.1180 -0.0002 -0.0307
