Raw Data
Time Displacement Force
(s) (mm) (N)
0.0000 0.0000 -0.0213
0.0200 0.0001 -0.0217
0.0400 0.0018 -0.0080
0.0600 0.0089 -0.0141
0.0800 0.0204 -0.0211
0.1000 0.0327 -0.0227
0.1200 0.0453 -0.0211
0.1400 0.0587 -0.0203
0.1600 0.0728 -0.0223
0.1800 0.0871 -0.0224
0.2000 0.1011 -0.0228
0.2200 0.1147 -0.0214
0.2400 0.1281 -0.0218
0.2600 0.1414 -0.0189
0.2800 0.1547 -0.0199
0.3000 0.1680 -0.0179
0.3200 0.1814 -0.0177
0.3400 0.1948 -0.0153
0.3600 0.2081 -0.0157
0.3800 0.2214 -0.0129
0.4000 0.2347 -0.0117
0.4200 0.2481 -0.0109
0.4400 0.2614 -0.0104
0.4600 0.2747 -0.0064
0.4800 0.2881 -0.0080
0.5000 0.3014 -0.0038
0.5200 0.3148 -0.0042
0.5400 0.3282 -0.0006
0.5600 0.3415 0.0006
0.5800 0.3548 0.0031
0.6000 0.3682 0.0046
0.6200 0.3815 0.0060
0.6400 0.3948 0.0083
0.6600 0.4081 0.0080
0.6800 0.4214 0.0123
0.7000 0.4347 0.0129
0.7200 0.4481 0.0170
0.7400 0.4614 0.0166
0.7600 0.4747 0.0226
0.7800 0.4881 0.0202
0.8000 0.5014 0.0272
0.8200 0.5148 0.0249
0.8400 0.5281 0.0297
0.8600 0.5415 0.0305
0.8800 0.5549 0.0337
0.9000 0.5682 0.0354
0.9200 0.5815 0.0370
0.9400 0.5948 0.0407
0.9600 0.6082 0.0402
0.9800 0.6215 0.0453
1.0000 0.6348 0.0455
1.0200 0.6481 0.0487
1.0400 0.6614 0.0494
1.0600 0.6747 0.0535
1.0800 0.6881 0.0536
1.1000 0.7014 0.0584
1.1200 0.7147 0.0578
1.1400 0.7281 0.0615
1.1600 0.7414 0.0620
1.1800 0.7547 0.0660
1.2000 0.7681 0.0671
1.2200 0.7814 0.0688
1.2400 0.7948 0.0719
1.2600 0.8081 0.0729
1.2800 0.8214 0.0758
1.3000 0.8348 0.0779
1.3200 0.8481 0.0801
1.3400 0.8615 0.0817
1.3600 0.8748 0.0840
1.3800 0.8881 0.0856
1.4000 0.9015 0.0883
1.4200 0.9148 0.0899
1.4400 0.9282 0.0925
1.4600 0.9414 0.0938
1.4800 0.9547 0.0971
1.5000 0.9680 0.0978
1.5200 0.9814 0.1003
1.5400 0.9947 0.1019
1.5600 1.0080 0.1044
1.5800 1.0214 0.1057
1.6000 1.0348 0.1082
1.6200 1.0482 0.1094
1.6400 1.0615 0.1119
1.6600 1.0748 0.1148
1.6800 1.0882 0.1148
1.7000 1.1015 0.1189
1.7200 1.1148 0.1190
1.7400 1.1281 0.1230
1.7600 1.1414 0.1228
1.7800 1.1548 0.1272
1.8000 1.1681 0.1265
1.8200 1.1814 0.1302
1.8400 1.1947 0.1311
1.8600 1.2080 0.1333
1.8800 1.2214 0.1356
1.9000 1.2347 0.1365
1.9200 1.2481 0.1392
1.9400 1.2614 0.1394
1.9600 1.2748 0.1436
1.9800 1.2882 0.1434
2.0000 1.3015 0.1469
2.0200 1.3148 0.1472
2.0400 1.3282 0.1510
2.0600 1.3415 0.1502
2.0800 1.3548 0.1555
2.1000 1.3681 0.1540
2.1200 1.3814 0.1582
2.1400 1.3948 0.1578
2.1600 1.4081 0.1611
2.1800 1.4214 0.1627
2.2000 1.4347 0.1644
2.2200 1.4480 0.1661
2.2400 1.4614 0.1677
2.2600 1.4748 0.1701
2.2800 1.4881 0.1710
2.3000 1.5014 0.1739
2.3200 1.5148 0.1748
2.3400 1.5282 0.1774
2.3600 1.5415 0.1774
2.3800 1.5548 0.1815
2.4000 1.5682 0.1806
2.4200 1.5815 0.1843
2.4400 1.5948 0.1846
2.4600 1.6081 0.1882
2.4800 1.6214 0.1873
2.5000 1.6347 0.1918
2.5200 1.6481 0.1917
2.5400 1.6613 0.1941
2.5600 1.6747 0.1955
2.5800 1.6880 0.1970
2.6000 1.7014 0.1987
2.6200 1.7147 0.1998
2.6400 1.7281 0.2031
2.6600 1.7414 0.2025
2.6800 1.7548 0.2074
2.7000 1.7682 0.2050
2.7200 1.7815 0.2108
2.7400 1.7948 0.2085
2.7600 1.8082 0.2141
2.7800 1.8215 0.2118
2.8000 1.8348 0.2174
2.8200 1.8481 0.2160
2.8400 1.8614 0.2189
2.8600 1.8748 0.2203
2.8800 1.8881 0.2212
2.9000 1.9014 0.2245
2.9200 1.9147 0.2240
2.9400 1.9281 0.2285
2.9600 1.9415 0.2266
2.9800 1.9548 0.2322
3.0000 1.9681 0.2298
3.0200 1.9814 0.2350
3.0400 1.9948 0.2327
3.0600 2.0082 0.2387
3.0800 2.0214 0.2361
3.1000 2.0347 0.2420
3.1200 2.0481 0.2407
3.1400 2.0615 0.2436
3.1600 2.0748 0.2451
3.1800 2.0881 0.2463
3.2000 2.1014 0.2488
3.2200 2.1148 0.2491
3.2400 2.1281 0.2516
3.2600 2.1415 0.2518
3.2800 2.1548 0.2544
3.3000 2.1681 0.2558
3.3200 2.1814 0.2577
3.3400 2.1948 0.2581
3.3600 2.2081 0.2607
3.3800 2.2214 0.2603
3.4000 2.2348 0.2642
3.4200 2.2481 0.2636
3.4400 2.2615 0.2670
3.4600 2.2748 0.2671
3.4800 2.2881 0.2701
3.5000 2.3015 0.2695
3.5200 2.3148 0.2735
3.5400 2.3281 0.2733
3.5600 2.3414 0.2764
3.5800 2.3548 0.2759
3.6000 2.3681 0.2796
3.6200 2.3814 0.2792
3.6400 2.3947 0.2819
3.6600 2.4080 0.2831
3.6800 2.4214 0.2836
3.7000 2.4347 0.2872
3.7200 2.4480 0.2861
3.7400 2.4614 0.2897
3.7600 2.4748 0.2893
3.7800 2.4882 0.2926
3.8000 2.5015 0.2926
3.8200 2.5149 0.2952
3.8400 2.5282 0.2964
3.8600 2.5415 0.2968
3.8800 2.5548 0.2998
3.9000 2.5681 0.3003
3.9200 2.5814 0.3026
3.9400 2.5947 0.3023
3.9600 2.6081 0.3050
3.9800 2.6214 0.3043
4.0000 2.6347 0.3086
4.0200 2.6481 0.3077
4.0400 2.6614 0.3105
4.0600 2.6748 0.3108
4.0800 2.6881 0.3133
4.1000 2.7014 0.3140
4.1200 2.7148 0.3157
4.1400 2.7282 0.3170
4.1600 2.7415 0.3186
4.1800 2.7548 0.3196
4.2000 2.7681 0.3223
4.2200 2.7815 0.3212
4.2400 2.7948 0.3250
4.2600 2.8081 0.3247
4.2800 2.8214 0.3278
4.3000 2.8348 0.3280
4.3200 2.8481 0.3301
4.3400 2.8614 0.3309
4.3600 2.8747 0.3323
4.3800 2.8880 0.3349
4.4000 2.9014 0.3346
4.4200 2.9148 0.3372
4.4400 2.9281 0.3374
4.4600 2.9414 0.3404
4.4800 2.9548 0.3396
4.5000 2.9682 0.3433
4.5200 2.9815 0.3420
4.5400 2.9948 0.3458
4.5600 3.0081 0.3458
4.5800 3.0215 0.3474
4.6000 3.0348 0.3489
4.6200 3.0481 0.3504
4.6400 3.0614 0.3516
4.6600 3.0748 0.3520
4.6800 3.0881 0.3554
4.7000 3.1014 0.3538
4.7200 3.1147 0.3584
4.7400 3.1281 0.3573
4.7600 3.1414 0.3599
4.7800 3.1548 0.3597
4.8000 3.1681 0.3627
4.8200 3.1814 0.3626
4.8400 3.1948 0.3646
4.8600 3.2082 0.3662
4.8800 3.2215 0.3666
4.9000 3.2348 0.3688
4.9200 3.2481 0.3699
4.9400 3.2614 0.3716
4.9600 3.2748 0.3718
4.9800 3.2881 0.3753
5.0000 3.3014 0.3738
5.0200 3.3147 0.3775
5.0400 3.3281 0.3762
5.0600 3.3414 0.3793
5.0800 3.3547 0.3782
5.1000 3.3681 0.3818
5.1200 3.3814 0.3808
5.1400 3.3948 0.3839
5.1600 3.4081 0.3851
5.1800 3.4214 0.3863
5.2000 3.4348 0.3863
5.2200 3.4482 0.3896
5.2400 3.4615 0.3890
5.2600 3.4748 0.3920
5.2800 3.4881 0.3924
5.3000 3.5015 0.3935
5.3200 3.5148 0.3950
5.3400 3.5282 0.3959
5.3600 3.5415 0.3982
5.3800 3.5548 0.3974
5.4000 3.5681 0.4007
5.4200 3.5814 0.4002
5.4400 3.5947 0.4029
5.4600 3.6081 0.4036
5.4800 3.6214 0.4052
5.5000 3.6347 0.4050
5.5200 3.6480 0.4087
5.5400 3.6614 0.4076
5.5600 3.6748 0.4103
5.5800 3.6882 0.4113
5.6000 3.7015 0.4115
5.6200 3.7148 0.4144
5.6400 3.7281 0.4144
5.6600 3.7415 0.4173
5.6800 3.7549 0.4156
5.7000 3.7682 0.4200
5.7200 3.7814 0.4187
5.7400 3.7948 0.4213
5.7600 3.8081 0.4212
5.7800 3.8214 0.4232
5.8000 3.8347 0.4236
5.8200 3.8480 0.4264
5.8400 3.8614 0.4264
5.8600 3.8747 0.4276
5.8800 3.8881 0.4292
5.9000 3.9014 0.4297
5.9200 3.9148 0.4313
5.9400 3.9281 0.4315
5.9600 3.9415 0.4346
5.9800 3.9548 0.4336
6.0000 3.9681 0.4377
6.0200 3.9815 0.4362
6.0400 3.9948 0.4393
6.0600 4.0081 0.4390
6.0800 4.0214 0.4419
6.1000 4.0347 0.4410
6.1200 4.0481 0.4447
6.1400 4.0614 0.4430
6.1600 4.0747 0.4465
6.1800 4.0881 0.4459
6.2000 4.1014 0.4491
6.2200 4.1148 0.4481
6.2400 4.1281 0.4511
6.2600 4.1415 0.4510
6.2800 4.1548 0.4520
6.3000 4.1682 0.4539
6.3200 4.1815 0.4530
6.3400 4.1948 0.4555
6.3600 4.2081 0.4559
6.3800 4.2214 0.4586
6.4000 4.2348 0.4566
6.4200 4.2481 0.4624
6.4400 4.2614 0.4600
6.4600 4.2748 0.4639
6.4800 4.2881 0.4620
6.5000 4.3015 0.4663
6.5200 4.3148 0.4644
6.5400 4.3281 0.4687
6.5600 4.3414 0.4673
6.5800 4.3548 0.4695
6.6000 4.3681 0.4707
6.6200 4.3814 0.4711
6.6400 4.3947 0.4728
6.6600 4.4081 0.4729
6.6800 4.4215 0.4760
6.7000 4.4348 0.4739
6.7200 4.4481 0.4789
6.7400 4.4615 0.4763
6.7600 4.4749 0.4799
6.7800 4.4882 0.4793
6.8000 4.5015 0.4829
6.8200 4.5148 0.4810
6.8400 4.5281 0.4848
6.8600 4.5415 0.4837
6.8800 4.5548 0.4858
6.9000 4.5680 0.4872
6.9200 4.5814 0.4879
6.9400 4.5947 0.4888
6.9600 4.6081 0.4894
6.9800 4.6214 0.4920
7.0000 4.6348 0.4906
7.0200 4.6481 0.4945
7.0400 4.6615 0.4933
7.0600 4.6748 0.4963
7.0800 4.6882 0.4950
7.1000 4.7015 0.4987
7.1200 4.7149 0.4964
7.1400 4.7282 0.5013
7.1600 4.7415 0.4989
7.1800 4.7548 0.5026
7.2000 4.7681 0.5014
7.2200 4.7815 0.5051
7.2400 4.7948 0.5036
7.2600 4.8081 0.5067
7.2800 4.8214 0.5076
7.3000 4.8347 0.5072
7.3200 4.8481 0.5098
7.3400 4.8614 0.5100
7.3600 4.8747 0.5123
7.3800 4.8881 0.5113
7.4000 4.9015 0.5155
7.4200 4.9148 0.5129
7.4400 4.9281 0.5178
7.4600 4.9415 0.5153
7.4800 4.9549 0.5189
7.5000 4.9682 0.5177
7.5200 4.9815 0.5212
7.5400 4.9948 0.5200
7.5600 5.0081 0.5217
7.5800 5.0215 0.5232
7.6000 5.0347 0.5220
7.6200 5.0480 0.5254
7.6400 5.0614 0.5248
7.6600 5.0747 0.5270
7.6800 5.0881 0.5261
7.7000 5.1014 0.5304
7.7200 5.1148 0.5273
7.7400 5.1282 0.5323
7.7600 5.1415 0.5303
7.7800 5.1548 0.5336
7.8000 5.1681 0.5325
7.8200 5.1815 0.5362
7.8400 5.1948 0.5344
7.8600 5.2081 0.5379
7.8800 5.2214 0.5383
7.9000 5.2347 0.5388
7.9200 5.2480 0.5406
7.9400 5.2614 0.5407
7.9600 5.2747 0.5421
7.9800 5.2881 0.5431
8.0000 5.3014 0.5450
8.0200 5.3147 0.5445
8.0400 5.3281 0.5470
8.0600 5.3414 0.5468
8.0800 5.3548 0.5494
8.1000 5.3682 0.5482
8.1200 5.3815 0.5520
8.1400 5.3948 0.5500
8.1600 5.4081 0.5539
8.1800 5.4215 0.5532
8.2000 5.4348 0.5547
8.2200 5.4481 0.5555
8.2400 5.4614 0.5566
8.2600 5.4747 0.5572
8.2800 5.4881 0.5580
8.3000 5.5014 0.5602
8.3200 5.5147 0.5594
8.3400 5.5280 0.5622
8.3600 5.5414 0.5615
8.3800 5.5547 0.5643
8.4000 5.5681 0.5625
8.4200 5.5814 0.5673
8.4400 5.5948 0.5644
8.4600 5.6081 0.5690
8.4800 5.6215 0.5673
8.5000 5.6348 0.5691
8.5200 5.6481 0.5703
8.5400 5.6614 0.5715
8.5600 5.6748 0.5720
8.5800 5.6882 0.5723
8.6000 5.7015 0.5749
8.6200 5.7148 0.5739
8.6400 5.7282 0.5768
8.6600 5.7415 0.5764
8.6800 5.7548 0.5782
8.7000 5.7681 0.5781
8.7200 5.7814 0.5810
8.7400 5.7947 0.5794
8.7600 5.8080 0.5833
8.7800 5.8214 0.5813
8.8000 5.8347 0.5833
8.8200 5.8481 0.5829
8.8400 5.8615 0.5848
8.8600 5.8749 0.5851
8.8800 5.8882 0.5862
8.9000 5.9015 0.5879
8.9200 5.9149 0.5880
8.9400 5.9282 0.5896
8.9600 5.9415 0.5907
8.9800 5.9548 0.5923
9.0000 5.9681 0.5914
9.0200 5.9814 0.5950
9.0400 5.9947 0.5931
9.0600 6.0080 0.5964
9.0800 6.0214 0.5953
9.1000 6.0347 0.5982
9.1200 6.0481 0.5968
9.1400 6.0614 0.6000
9.1600 6.0748 0.5982
9.1800 6.0881 0.6004
9.2000 6.1015 0.6010
9.2200 6.1148 0.6017
9.2400 6.1281 0.6036
9.2600 6.1415 0.6035
9.2800 6.1548 0.6057
9.3000 6.1682 0.6037
9.3200 6.1815 0.6088
9.3400 6.1948 0.6065
9.3600 6.2081 0.6103
9.3800 6.2214 0.6086
9.4000 6.2347 0.6124
9.4200 6.2480 0.6096
9.4400 6.2614 0.6153
9.4600 6.2747 0.6119
9.4800 6.2881 0.6157
9.5000 6.3014 0.6152
9.5200 6.3147 0.6165
9.5400 6.3281 0.6175
9.5600 6.3415 0.6183
9.5800 6.3548 0.6191
9.6000 6.3682 0.6186
9.6200 6.3815 0.6220
9.6400 6.3948 0.6207
9.6600 6.4082 0.6227
9.6800 6.4215 0.6233
9.7000 6.4348 0.6246
9.7200 6.4481 0.6243
9.7400 6.4614 0.6269
9.7600 6.4747 0.6265
9.7800 6.4880 0.6275
9.8000 6.5013 0.6278
9.8200 6.5147 0.6288
9.8400 6.5281 0.6300
9.8600 6.5414 0.6305
9.8800 6.5548 0.6321
9.9000 6.5681 0.6312
9.9200 6.5815 0.6342
9.9400 6.5949 0.6324
9.9600 6.6082 0.6345
9.9800 6.6215 0.6350
10.0000 6.6348 0.6373
10.0200 6.6482 0.6357
10.0400 6.6615 0.6396
10.0600 6.6748 0.6378
10.0800 6.6881 0.6410
10.1000 6.7015 0.6401
10.1200 6.7148 0.6427
10.1400 6.7281 0.6415
10.1600 6.7414 0.6440
10.1800 6.7548 0.6442
10.2000 6.7681 0.6450
10.2200 6.7814 0.6465
10.2400 6.7947 0.6467
10.2600 6.8081 0.6476
10.2800 6.8215 0.6482
10.3000 6.8348 0.6497
10.3200 6.8481 0.6498
10.3400 6.8614 0.6519
10.3600 6.8748 0.6514
10.3800 6.8882 0.6534
10.4000 6.9015 0.6535
10.4200 6.9148 0.6557
10.4400 6.9281 0.6550
10.4600 6.9414 0.6567
10.4800 6.9548 0.6580
10.5000 6.9681 0.6573
10.5200 6.9814 0.6607
10.5400 6.9947 0.6590
10.5600 7.0081 0.6614
10.5800 7.0214 0.6605
10.6000 7.0347 0.6639
10.6200 7.0481 0.6616
10.6400 7.0615 0.6656
10.6600 7.0748 0.6635
10.6800 7.0881 0.6670
10.7000 7.1014 0.6664
10.7200 7.1148 0.6684
10.7400 7.1281 0.6671
10.7600 7.1415 0.6695
10.7800 7.1548 0.6704
10.8000 7.1681 0.6687
10.8200 7.1815 0.6730
10.8400 7.1948 0.6700
10.8600 7.2081 0.6741
10.8800 7.2214 0.6721
10.9000 7.2347 0.6761
10.9200 7.2480 0.6730
10.9400 7.2614 0.6780
10.9600 7.2747 0.6753
10.9800 7.2881 0.6778
11.0000 7.3015 0.6773
11.0200 7.3149 0.6796
11.0400 7.3282 0.6787
11.0600 7.3415 0.6815
11.0800 7.3549 0.6815
11.1000 7.3682 0.6812
11.1200 7.3815 0.6847
11.1400 7.3947 0.6834
11.1600 7.4081 0.6859
11.1800 7.4214 0.6852
11.2000 7.4347 0.6879
11.2200 7.4480 0.6858
11.2400 7.4614 0.6900
11.2600 7.4747 0.6882
11.2800 7.4881 0.6907
11.3000 7.5014 0.6896
11.3200 7.5148 0.6933
11.3400 7.5281 0.6907
11.3600 7.5415 0.6953
11.3800 7.5549 0.6926
11.4000 7.5682 0.6953
11.4200 7.5815 0.6947
11.4400 7.5948 0.6971
11.4600 7.6082 0.6964
11.4800 7.6215 0.6978
11.5000 7.6348 0.6997
11.5200 7.6481 0.6978
11.5400 7.6614 0.7016
11.5600 7.6748 0.6989
11.5800 7.6881 0.7027
11.6000 7.7014 0.7005
11.6200 7.7147 0.7046
11.6400 7.7281 0.6998
11.6600 7.7414 0.7061
11.6800 7.7548 0.7031
11.7000 7.7681 0.7066
11.7200 7.7815 0.7060
11.7400 7.7948 0.7081
11.7600 7.8081 0.7081
11.7800 7.8215 0.7090
11.8000 7.8348 0.7111
11.8200 7.8482 0.7096
11.8400 7.8615 0.7136
11.8600 7.8748 0.7113
11.8800 7.8881 0.7147
11.9000 7.9014 0.7134
11.9200 7.9148 0.7170
11.9400 7.9281 0.7144
11.9600 7.9414 0.7184
11.9800 7.9547 0.7171
12.0000 7.9681 0.7191
12.0200 7.9814 0.7181
12.0400 7.9948 0.7220
12.0600 8.0081 0.7190
12.0800 8.0215 0.7217
12.1000 8.0348 0.7218
12.1200 8.0481 0.7222
12.1400 8.0614 0.7240
12.1600 8.0748 0.7246
12.1800 8.0882 0.7251
12.2000 8.1015 0.7254
12.2200 8.1148 0.7276
12.2400 8.1281 0.7263
12.2600 8.1414 0.7291
12.2800 8.1548 0.7284
12.3000 8.1681 0.7308
12.3200 8.1814 0.7297
12.3400 8.1947 0.7335
12.3600 8.2081 0.7300
12.3800 8.2214 0.7343
12.4000 8.2348 0.7331
12.4200 8.2481 0.7348
12.4400 8.2615 0.7352
12.4600 8.2748 0.7361
12.4800 8.2881 0.7368
12.5000 8.3015 0.7367
12.5200 8.3148 0.7399
12.5400 8.3282 0.7369
12.5600 8.3415 0.7414
12.5800 8.3548 0.7391
12.6000 8.3681 0.7431
12.6200 8.3815 0.7406
12.6400 8.3948 0.7444
12.6600 8.4081 0.7428
12.6800 8.4214 0.7450
12.7000 8.4347 0.7452
12.7200 8.4480 0.7454
12.7400 8.4613 0.7477
12.7600 8.4747 0.7465
12.7800 8.4881 0.7492
12.8000 8.5015 0.7474
12.8200 8.5148 0.7515
12.8400 8.5281 0.7496
12.8600 8.5415 0.7525
12.8800 8.5548 0.7518
12.9000 8.5682 0.7528
12.9200 8.5815 0.7521
12.9400 8.5948 0.7558
12.9600 8.6081 0.7530
12.9800 8.6214 0.7567
13.0000 8.6348 0.7543
13.0200 8.6481 0.7579
13.0400 8.6614 0.7571
13.0600 8.6747 0.7600
13.0800 8.6881 0.7578
13.1000 8.7014 0.7598
13.1200 8.7147 0.7599
13.1400 8.7281 0.7604
13.1600 8.7415 0.7613
13.1800 8.7548 0.7631
13.2000 8.7682 0.7632
13.2200 8.7815 0.7629
13.2400 8.7948 0.7661
13.2600 8.8081 0.7643
13.2800 8.8215 0.7675
13.3000 8.8348 0.7658
13.3200 8.8481 0.7697
13.3400 8.8614 0.7667
13.3600 8.8748 0.7706
13.3800 8.8881 0.7690
13.4000 8.9014 0.7717
13.4200 8.9147 0.7718
13.4400 8.9281 0.7723
13.4600 8.9415 0.7732
13.4800 8.9548 0.7737
13.5000 8.9681 0.7750
13.5200 8.9815 0.7737
13.5400 8.9948 0.7784
13.5600 9.0081 0.7741
13.5800 9.0214 0.7797
13.6000 9.0348 0.7763
13.6200 9.0481 0.7816
13.6400 9.0615 0.7772
13.6600 9.0748 0.7837
13.6800 9.0881 0.7792
13.7000 9.1015 0.7837
13.7200 9.1148 0.7822
13.7400 9.1281 0.7843
13.7600 9.1414 0.7839
13.7800 9.1547 0.7859
13.8000 9.1681 0.7864
13.8200 9.1814 0.7854
13.8400 9.1947 0.7886
13.8600 9.2081 0.7863
13.8800 9.2214 0.7888
13.9000 9.2348 0.7872
13.9200 9.2481 0.7907
13.9400 9.2615 0.7883
13.9600 9.2748 0.7931
13.9800 9.2882 0.7894
14.0000 9.3015 0.7938
14.0200 9.3148 0.7921
14.0400 9.3281 0.7956
14.0600 9.3415 0.7932
14.0800 9.3548 0.7970
14.1000 9.3681 0.7955
14.1200 9.3814 0.7978
14.1400 9.3947 0.7974
14.1600 9.4080 0.7982
14.1800 9.4214 0.7988
14.2000 9.4347 0.7997
14.2200 9.4481 0.8014
14.2400 9.4615 0.7994
14.2600 9.4748 0.8046
14.2800 9.4882 0.7998
14.3000 9.5015 0.8055
14.3200 9.5148 0.8020
14.3400 9.5282 0.8069
14.3600 9.5415 0.8039
14.3800 9.5548 0.8083
14.4000 9.5681 0.8067
14.4200 9.5815 0.8077
14.4400 9.5948 0.8094
14.4600 9.6081 0.8085
14.4800 9.6214 0.8103
14.5000 9.6347 0.8103
14.5200 9.6481 0.8122
14.5400 9.6614 0.8101
14.5600 9.6747 0.8149
14.5800 9.6881 0.8117
14.6000 9.7014 0.8154
14.6200 9.7148 0.8126
14.6400 9.7281 0.8166
14.6600 9.7415 0.8137
14.6800 9.7548 0.8182
14.7000 9.7682 0.8155
14.7200 9.7815 0.8179
14.7400 9.7948 0.8184
14.7600 9.8081 0.8192
14.7800 9.8214 0.8195
14.8000 9.8348 0.8208
14.8200 9.8481 0.8214
14.8400 9.8614 0.8211
14.8600 9.8747 0.8235
14.8800 9.8881 0.8233
14.9000 9.9014 0.8240
14.9200 9.9147 0.8240
14.9400 9.9281 0.8264
14.9600 9.9414 0.8248
14.9800 9.9549 0.8273
15.0000 9.9682 0.8271
15.0200 9.9815 0.8286
15.0400 9.9948 0.8285
15.0600 10.0082 0.8304
15.0800 10.0215 0.8296
15.1000 10.0348 0.8318
15.1200 10.0481 0.8312
15.1400 10.0614 0.8320
15.1600 10.0747 0.8328
15.1800 10.0881 0.8337
15.2000 10.1014 0.8346
15.2200 10.1147 0.8343
15.2400 10.1281 0.8369
15.2600 10.1414 0.8344
15.2800 10.1548 0.8391
15.3000 10.1681 0.8366
15.3200 10.1815 0.8397
15.3400 10.1949 0.8377
15.3600 10.2082 0.8406
15.3800 10.2215 0.8395
15.4000 10.2348 0.8420
15.4200 10.2482 0.8409
15.4400 10.2615 0.8410
15.4600 10.2748 0.8420
15.4800 10.2881 0.8424
15.5000 10.3014 0.8432
15.5200 10.3147 0.8432
15.5400 10.3281 0.8450
15.5600 10.3414 0.8430
15.5800 10.3547 0.8475
15.6000 10.3680 0.8447
15.6200 10.3814 0.8480
15.6400 10.3948 0.8466
15.6600 10.4081 0.8495
15.6800 10.4214 0.8482
15.7000 10.4348 0.8510
15.7200 10.4482 0.8495
15.7400 10.4615 0.8520
15.7600 10.4748 0.8504
15.7800 10.4881 0.8529
15.8000 10.5015 0.8424
15.8200 10.5148 0.8268
15.8400 10.5281 0.8174
15.8600 10.5415 0.8179
15.8800 10.5548 0.8212
15.9000 10.5682 0.8239
15.9200 10.5814 0.8258
15.9400 10.5947 0.8277
15.9600 10.6080 0.8304
15.9800 10.6214 0.8296
16.0000 10.6347 0.8332
16.0200 10.6480 0.8334
16.0400 10.6614 0.8352
16.0600 10.6748 0.8359
16.0800 10.6882 0.8391
16.1000 10.7015 0.8375
16.1200 10.7148 0.8413
16.1400 10.7282 0.8414
16.1600 10.7415 0.8430
16.1800 10.7548 0.8444
16.2000 10.7681 0.8455
16.2200 10.7814 0.8465
16.2400 10.7948 0.8471
16.2600 10.8081 0.8499
16.2800 10.8214 0.8484
16.3000 10.8347 0.8520
16.3200 10.8480 0.8509
16.3400 10.8614 0.8537
16.3600 10.8747 0.8530
16.3800 10.8881 0.8560
16.4000 10.9014 0.8542
16.4200 10.9148 0.8575
16.4400 10.9282 0.8574
16.4600 10.9415 0.8580
16.4800 10.9548 0.8600
16.5000 10.9682 0.8599
16.5200 10.9815 0.8614
16.5400 10.9948 0.8615
16.5600 11.0081 0.8641
16.5800 11.0214 0.8615
16.6000 11.0348 0.8650
16.6200 11.0481 0.8639
16.6400 11.0614 0.8667
16.6600 11.0747 0.8652
16.6800 11.0880 0.8691
16.7000 11.1014 0.8662
16.7200 11.1148 0.8697
16.7400 11.1281 0.8693
16.7600 11.1414 0.8715
16.7800 11.1548 0.8700
16.8000 11.1682 0.8739
16.8200 11.1815 0.8717
16.8400 11.1948 0.8746
16.8600 11.2082 0.8740
16.8800 11.2215 0.8749
16.9000 11.2348 0.8760
16.9200 11.2481 0.8763
16.9400 11.2614 0.8773
16.9600 11.2748 0.8774
16.9800 11.2881 0.8802
17.0000 11.3014 0.8773
17.0200 11.3147 0.8823
17.0400 11.3280 0.8787
17.0600 11.3414 0.8841
17.0800 11.3548 0.8790
17.1000 11.3681 0.8854
17.1200 11.3814 0.8812
17.1400 11.3948 0.8861
17.1600 11.4082 0.8838
17.1800 11.4215 0.8860
17.2000 11.4348 0.8861
17.2200 11.4481 0.8871
17.2400 11.4615 0.8871
17.2600 11.4748 0.8871
17.2800 11.4881 0.8899
17.3000 11.5014 0.8877
17.3200 11.5148 0.8911
17.3400 11.5281 0.8896
17.3600 11.5414 0.8927
17.3800 11.5548 0.8899
17.4000 11.5681 0.8953
17.4200 11.5814 0.8910
17.4400 11.5948 0.8954
17.4600 11.6081 0.8940
17.4800 11.6214 0.8961
17.5000 11.6348 0.8949
17.5200 11.6482 0.8973
17.5400 11.6614 0.8969
17.5600 11.6747 0.8985
17.5800 11.6881 0.8982
17.6000 11.7015 0.8997
17.6200 11.7148 0.8992
17.6400 11.7281 0.9011
17.6600 11.7414 0.9015
17.6800 11.7548 0.9012
17.7000 11.7681 0.9041
17.7200 11.7814 0.9012
17.7400 11.7947 0.9063
17.7600 11.8080 0.9030
17.7800 11.8214 0.9070
17.8000 11.8347 0.9033
17.8200 11.8481 0.9084
17.8400 11.8614 0.9051
17.8600 11.8748 0.9090
17.8800 11.8881 0.9075
17.9000 11.9015 0.9091
17.9200 11.9148 0.9087
17.9400 11.9281 0.9095
17.9600 11.9415 0.9120
17.9800 11.9548 0.9092
18.0000 11.9681 0.9149
18.0200 11.9814 0.9104
18.0400 11.9948 0.9157
18.0600 12.0081 0.9122
18.0800 12.0214 0.9173
18.1000 12.0347 0.9137
18.1200 12.0480 0.9184
18.1400 12.0614 0.9156
18.1600 12.0747 0.9180
18.1800 12.0881 0.9183
18.2000 12.1014 0.9183
18.2200 12.1148 0.9189
18.2400 12.1282 0.9197
18.2600 12.1416 0.9209
18.2800 12.1549 0.9208
18.3000 12.1682 0.9228
18.3200 12.1816 0.9213
18.3400 12.1949 0.9234
18.3600 12.2081 0.9235
18.3800 12.2214 0.9250
18.4000 12.2348 0.9240
18.4200 12.2481 0.9261
18.4400 12.2614 0.9251
18.4600 12.2747 0.9263
18.4800 12.2880 0.9274
18.5000 12.3014 0.9278
18.5200 12.3148 0.9276
18.5400 12.3281 0.9298
18.5600 12.3415 0.9294
18.5800 12.3548 0.9304
18.6000 12.3682 0.9317
18.6200 12.3815 0.9308
18.6400 12.3948 0.9328
18.6600 12.4081 0.9323
18.6800 12.4215 0.9353
18.7000 12.4348 0.9323
18.7200 12.4481 0.9371
18.7400 12.4614 0.9340
18.7600 12.4748 0.9380
18.7800 12.4881 0.9352
18.8000 12.5014 0.9390
18.8200 12.5147 0.9364
18.8400 12.5280 0.9400
18.8600 12.5414 0.9381
18.8800 12.5548 0.9398
18.9000 12.5681 0.9406
18.9200 12.5814 0.9410
18.9400 12.5948 0.9416
18.9600 12.6082 0.9414
18.9800 12.6215 0.9444
19.0000 12.6348 0.9413
19.0200 12.6481 0.9467
19.0400 12.6615 0.9427
19.0600 12.6748 0.9472
19.0800 12.6881 0.9446
19.1000 12.7014 0.9486
19.1200 12.7147 0.9458
19.1400 12.7281 0.9499
19.1600 12.7414 0.9477
19.1800 12.7547 0.9497
19.2000 12.7680 0.9497
19.2200 12.7814 0.9506
19.2400 12.7948 0.9500
19.2600 12.8081 0.9516
19.2800 12.8214 0.9527
19.3000 12.8348 0.9507
19.3200 12.8482 0.9550
19.3400 12.8615 0.9510
19.3600 12.8748 0.9566
19.3800 12.8881 0.9529
19.4000 12.9015 0.9586
19.4200 12.9148 0.9532
19.4400 12.9281 0.9598
19.4600 12.9414 0.9555
19.4800 12.9547 0.9602
19.5000 12.9681 0.9572
19.5200 12.9815 0.9618
19.5400 12.9948 0.9586
19.5600 13.0081 0.9625
19.5800 13.0214 0.9606
19.6000 13.0348 0.9620
19.6200 13.0481 0.9634
19.6400 13.0614 0.9627
19.6600 13.0748 0.9654
19.6800 13.0882 0.9635
19.7000 13.1015 0.9675
19.7200 13.1148 0.9636
19.7400 13.1281 0.9693
19.7600 13.1415 0.9654
19.7800 13.1549 0.9702
19.8000 13.1682 0.9664
19.8200 13.1815 0.9719
19.8400 13.1948 0.9673
19.8600 13.2081 0.9730
19.8800 13.2215 0.9694
19.9000 13.2347 0.9727
19.9200 13.2481 0.9722
19.9400 13.2614 0.9732
19.9600 13.2747 0.9736
19.9800 13.2880 0.9742
20.0000 13.3013 0.9766
20.0200 13.3147 0.9737
20.0400 13.3282 0.9782
20.0600 13.3415 0.9753
20.0800 13.3548 0.9793
20.1000 13.3682 0.9763
20.1200 13.3815 0.9806
20.1400 13.3949 0.9767
20.1600 13.4082 0.9821
20.1800 13.4214 0.9789
20.2000 13.4348 0.9827
20.2200 13.4481 0.9808
20.2400 13.4614 0.9834
20.2600 13.4747 0.9819
20.2800 13.4880 0.9837
20.3000 13.5014 0.9841
20.3200 13.5147 0.9839
20.3400 13.5280 0.9855
20.3600 13.5414 0.9850
20.3800 13.5547 0.9858
20.4000 13.5681 0.9866
20.4200 13.5815 0.9880
20.4400 13.5948 0.9866
20.4600 13.6081 0.9895
20.4800 13.6215 0.9875
20.5000 13.6349 0.9900
20.5200 13.6481 0.9892
20.5400 13.6614 0.9923
20.5600 13.6747 0.9909
20.5800 13.6881 0.9926
20.6000 13.7014 0.9925
20.6200 13.7147 0.9930
20.6400 13.7280 0.9951
20.6600 13.7414 0.9942
20.6800 13.7548 0.9962
20.7000 13.7681 0.9940
20.7200 13.7815 0.9981
20.7400 13.7948 0.9958
20.7600 13.8082 0.9995
20.7800 13.8215 0.9974
20.8000 13.8348 1.0002
20.8200 13.8481 0.9976
20.8400 13.8614 1.0021
20.8600 13.8748 0.9995
20.8800 13.8881 1.0026
20.9000 13.9015 1.0026
20.9200 13.9148 1.0023
20.9400 13.9281 1.0040
20.9600 13.9415 1.0030
20.9800 13.9548 1.0056
21.0000 13.9681 1.0042
21.0200 13.9814 1.0075
21.0400 13.9948 1.0049
21.0600 14.0081 1.0086
21.0800 14.0214 1.0067
21.1000 14.0347 1.0095
21.1200 14.0481 1.0077
21.1400 14.0615 1.0116
21.1600 14.0748 1.0087
21.1800 14.0881 1.0119
21.2000 14.1015 1.0117
21.2200 14.1149 1.0123
21.2400 14.1282 1.0126
21.2600 14.1414 1.0147
21.2800 14.1548 1.0139
21.3000 14.1681 1.0149
21.3200 14.1815 1.0160
21.3400 14.1948 1.0161
21.3600 14.2081 1.0172
21.3800 14.2214 1.0175
21.4000 14.2347 1.0186
21.4200 14.2481 1.0174
21.4400 14.2614 1.0204
21.4600 14.2748 1.0183
21.4800 14.2881 1.0215
21.5000 14.3015 1.0195
21.5200 14.3148 1.0232
21.5400 14.3281 1.0204
21.5600 14.3415 1.0240
21.5800 14.3548 1.0219
21.6000 14.3682 1.0243
21.6200 14.3815 1.0249
21.6400 14.3948 1.0239
21.6600 14.4081 1.0260
21.6800 14.4215 1.0244
21.7000 14.4348 1.0269
21.7200 14.4481 1.0249
21.7400 14.4614 1.0291
21.7600 14.4748 1.0263
21.7800 14.4881 1.0299
21.8000 14.5014 1.0281
21.8200 14.5147 1.0317
21.8400 14.5281 1.0297
21.8600 14.5415 1.0325
21.8800 14.5548 1.0317
21.9000 14.5682 1.0320
21.9200 14.5815 1.0344
21.9400 14.5949 1.0326
21.9600 14.6082 1.0355
21.9800 14.6215 1.0348
22.0000 14.6348 1.0364
22.0200 14.6481 1.0355
22.0400 14.6615 1.0377
22.0600 14.6748 1.0368
22.0800 14.6881 1.0387
22.1000 14.7014 1.0386
22.1200 14.7147 1.0400
22.1400 14.7281 1.0382
22.1600 14.7414 1.0418
22.1800 14.7548 1.0398
22.2000 14.7682 1.0423
22.2200 14.7815 1.0419
22.2400 14.7948 1.0422
22.2600 14.8081 1.0440
22.2800 14.8215 1.0439
22.3000 14.8348 1.0449
22.3200 14.8482 1.0447
22.3400 14.8615 1.0467
22.3600 14.8747 1.0462
22.3800 14.8881 1.0480
22.4000 14.9014 1.0471
22.4200 14.9147 1.0495
22.4400 14.9281 1.0466
22.4600 14.9414 1.0521
22.4800 14.9547 1.0486
22.5000 14.9681 1.0522
22.5200 14.9814 1.0502
22.5400 14.9948 1.0532
22.5600 15.0082 1.0522
22.5800 15.0215 1.0537
22.6000 15.0348 1.0542
22.6200 15.0481 1.0546
22.6400 15.0615 1.0558
22.6600 15.0748 1.0550
22.6800 15.0882 1.0567
22.7000 15.1014 1.0566
22.7200 15.1147 1.0592
22.7400 15.1281 1.0562
22.7600 15.1414 1.0606
22.7800 15.1547 1.0578
22.8000 15.1680 1.0612
22.8200 15.1814 1.0595
22.8400 15.1947 1.0628
22.8600 15.2081 1.0606
22.8800 15.2214 1.0638
22.9000 15.2347 1.0622
22.9200 15.2481 1.0649
22.9400 15.2615 1.0639
22.9600 15.2748 1.0653
22.9800 15.2881 1.0650
23.0000 15.3014 1.0669
23.0200 15.3148 1.0671
23.0400 15.3282 1.0665
23.0600 15.3415 1.0690
23.0800 15.3548 1.0683
23.1000 15.3681 1.0702
23.1200 15.3815 1.0693
23.1400 15.3948 1.0714
23.1600 15.4081 1.0699
23.1800 15.4213 1.0729
23.2000 15.4346 1.0722
23.2200 15.4480 1.0737
23.2400 15.4613 1.0733
23.2600 15.4747 1.0750
23.2800 15.4881 1.0741
23.3000 15.5015 1.0763
23.3200 15.5149 1.0763
23.3400 15.5282 1.0766
23.3600 15.5415 1.0781
23.3800 15.5549 1.0775
23.4000 15.5682 1.0778
23.4200 15.5815 1.0780
23.4400 15.5948 1.0790
23.4600 15.6081 1.0778
23.4800 15.6214 1.0810
23.5000 15.6347 1.0802
23.5200 15.6480 1.0813
23.5400 15.6614 1.0817
23.5600 15.6747 1.0830
23.5800 15.6881 1.0823
23.6000 15.7014 1.0840
23.6200 15.7148 1.0849
23.6400 15.7281 1.0840
23.6600 15.7415 1.0859
23.6800 15.7549 1.0861
23.7000 15.7682 1.0869
23.7200 15.7815 1.0868
23.7400 15.7949 1.0891
23.7600 15.8082 1.0870
23.7800 15.8215 1.0907
23.8000 15.8348 1.0892
23.8200 15.8481 1.0917
23.8400 15.8614 1.0901
23.8600 15.8748 1.0926
23.8800 15.8881 1.0919
23.9000 15.9014 1.0940
23.9200 15.9147 1.0931
23.9400 15.9281 1.0947
23.9600 15.9414 1.0946
23.9800 15.9547 1.0962
24.0000 15.9681 1.0956
24.0200 15.9815 1.0973
24.0400 15.9948 1.0975
24.0600 16.0082 1.0972
24.0800 16.0215 1.0992
24.1000 16.0349 1.0998
24.1200 16.0482 1.1002
24.1400 16.0615 1.1004
24.1600 16.0748 1.1018
24.1800 16.0881 1.1014
24.2000 16.1014 1.1020
24.2200 16.1148 1.1029
24.2400 16.1280 1.1031
24.2600 16.1413 1.1037
24.2800 16.1547 1.1055
24.3000 16.1681 1.1035
24.3200 16.1814 1.1070
24.3400 16.1948 1.1060
24.3600 16.2081 1.1072
24.3800 16.2215 1.1076
24.4000 16.2348 1.1075
24.4200 16.2482 1.1094
24.4400 16.2615 1.1086
24.4600 16.2748 1.1116
24.4800 16.2882 1.1094
24.5000 16.3015 1.1121
24.5200 16.3148 1.1117
24.5400 16.3281 1.1137
24.5600 16.3414 1.1122
24.5800 16.3548 1.1152
24.6000 16.3681 1.1133
24.6200 16.3814 1.1160
24.6400 16.3948 1.1153
24.6600 16.4081 1.1161
24.6800 16.4214 1.1167
24.7000 16.4347 1.1164
24.7200 16.4481 1.1182
24.7400 16.4615 1.1167
24.7600 16.4748 1.1189
24.7800 16.4881 1.1176
24.8000 16.5014 1.1202
24.8200 16.5148 1.1191
24.8400 16.5282 1.1215
24.8600 16.5415 1.1203
24.8800 16.5548 1.1228
24.9000 16.5681 1.1212
24.9200 16.5815 1.1245
24.9400 16.5948 1.1225
24.9600 16.6081 1.1251
24.9800 16.6214 1.1242
25.0000 16.6347 1.1264
25.0200 16.6481 1.1255
25.0400 16.6614 1.1272
25.0600 16.6748 1.1274
25.0800 16.6881 1.1284
25.1000 16.7015 1.1286
25.1200 16.7148 1.1298
25.1400 16.7281 1.1303
25.1600 16.7414 1.1300
25.1800 16.7548 1.1330
25.2000 16.7682 1.1304
25.2200 16.7815 1.1337
25.2400 16.7948 1.1320
25.2600 16.8081 1.1354
25.2800 16.8214 1.1328
25.3000 16.8348 1.1360
25.3200 16.8480 1.1351
25.3400 16.8614 1.1369
25.3600 16.8747 1.1369
25.3800 16.8881 1.1369
25.4000 16.9014 1.1379
25.4200 16.9147 1.1380
25.4400 16.9281 1.1403
25.4600 16.9415 1.1384
25.4800 16.9549 1.1420
25.5000 16.9682 1.1386
25.5200 16.9815 1.1430
25.5400 16.9948 1.1406
25.5600 17.0082 1.1446
25.5800 17.0215 1.1411
25.6000 17.0347 1.1460
25.6200 17.0481 1.1429
25.6400 17.0614 1.1465
25.6600 17.0747 1.1454
25.6800 17.0880 1.1468
25.7000 17.1014 1.1467
25.7200 17.1147 1.1473
25.7400 17.1281 1.1480
25.7600 17.1415 1.1475
25.7800 17.1548 1.1505
25.8000 17.1681 1.1489
25.8200 17.1815 1.1510
25.8400 17.1949 1.1501
25.8600 17.2082 1.1532
25.8800 17.2215 1.1507
25.9000 17.2348 1.1555
25.9200 17.2482 1.1520
25.9400 17.2615 1.1565
25.9600 17.2748 1.1543
25.9800 17.2881 1.1574
26.0000 17.3014 1.1561
26.0200 17.3148 1.1576
26.0400 17.3281 1.1577
26.0600 17.3414 1.1583
26.0800 17.3547 1.1598
26.1000 17.3681 1.1595
26.1200 17.3814 1.1606
26.1400 17.3948 1.1607
26.1600 17.4081 1.1624
26.1800 17.4215 1.1613
26.2000 17.4348 1.1642
26.2200 17.4481 1.1619
26.2400 17.4615 1.1654
26.2600 17.4748 1.1631
26.2800 17.4882 1.1668
26.3000 17.5015 1.1639
26.3200 17.5148 1.1678
26.3400 17.5281 1.1655
26.3600 17.5414 1.1680
26.3800 17.5548 1.1676
26.4000 17.5681 1.1694
26.4200 17.5814 1.1688
26.4400 17.5947 1.1698
26.4600 17.6081 1.1706
26.4800 17.6214 1.1695
26.5000 17.6348 1.1727
26.5200 17.6481 1.1706
26.5400 17.6615 1.1743
26.5600 17.6749 1.1708
26.5800 17.6882 1.1759
26.6000 17.7015 1.1725
26.6200 17.7148 1.1766
26.6400 17.7281 1.1749
26.6600 17.7415 1.1768
26.6800 17.7548 1.1764
26.7000 17.7681 1.1787
26.7200 17.7814 1.1777
26.7400 17.7948 1.1794
26.7600 17.8081 1.1802
26.7800 17.8214 1.1797
26.8000 17.8347 1.1813
26.8200 17.8481 1.1810
26.8400 17.8614 1.1822
26.8600 17.8747 1.1818
26.8800 17.8881 1.1848
26.9000 17.9014 1.1823
26.9200 17.9148 1.1854
26.9400 17.9282 1.1841
26.9600 17.9415 1.1865
26.9800 17.9548 1.1848
27.0000 17.9682 1.1873
27.0200 17.9815 1.1857
27.0400 17.9948 1.1883
27.0600 18.0081 1.1876
27.0800 18.0214 1.1897
27.1000 18.0348 1.1885
27.1200 18.0481 1.1912
27.1400 18.0614 1.1901
27.1600 18.0747 1.1915
27.1800 18.0880 1.1932
27.2000 18.1014 1.1916
27.2200 18.1147 1.1952
27.2400 18.1281 1.1932
27.2600 18.1415 1.1957
27.2800 18.1549 1.1940
27.3000 18.1682 1.1975
27.3200 18.1815 1.1954
27.3400 18.1948 1.1984
27.3600 18.2082 1.1966
27.3800 18.2215 1.1987
27.4000 18.2348 1.1989
27.4200 18.2481 1.2004
27.4400 18.2614 1.2003
27.4600 18.2748 1.2002
27.4800 18.2881 1.2024
27.5000 18.3014 1.2013
27.5200 18.3147 1.2038
27.5400 18.3281 1.2020
27.5600 18.3414 1.2051
27.5800 18.3547 1.2034
27.6000 18.3681 1.2063
27.6200 18.3814 1.2056
27.6400 18.3948 1.2078
27.6600 18.4082 1.2069
27.6800 18.4215 1.2081
27.7000 18.4348 1.2086
27.7200 18.4482 1.2095
27.7400 18.4615 1.2092
27.7600 18.4748 1.2105
27.7800 18.4881 1.2114
27.8000 18.5014 1.2111
27.8200 18.5148 1.2128
27.8400 18.5281 1.2128
27.8600 18.5414 1.2138
27.8800 18.5547 1.2137
27.9000 18.5681 1.2159
27.9200 18.5815 1.2139
27.9400 18.5948 1.2176
27.9600 18.6081 1.2161
27.9800 18.6215 1.2187
28.0000 18.6348 1.2168
28.0200 18.6481 1.2206
28.0400 18.6614 1.2186
28.0600 18.6748 1.2214
28.0800 18.6881 1.2206
28.1000 18.7015 1.2216
28.1200 18.7148 1.2223
28.1400 18.7281 1.2227
28.1600 18.7415 1.2236
28.1800 18.7548 1.2224
28.2000 18.7681 1.2256
28.2200 18.7814 1.2225
28.2400 18.7947 1.2279
28.2600 18.8081 1.2244
28.2800 18.8214 1.2285
28.3000 18.8347 1.2261
28.3200 18.8480 1.2298
28.3400 18.8614 1.2278
28.3600 18.8748 1.2306
28.3800 18.8881 1.2289
28.4000 18.9015 1.2321
28.4200 18.9148 1.2307
28.4400 18.9282 1.2328
28.4600 18.9415 1.2333
28.4800 18.9548 1.2329
28.5000 18.9681 1.2356
28.5200 18.9814 1.2341
28.5400 18.9948 1.2368
28.5600 19.0081 1.2357
28.5800 19.0214 1.2381
28.6000 19.0347 1.2367
28.6200 19.0480 1.2400
28.6400 19.0614 1.2375
28.6600 19.0747 1.2407
28.6800 19.0881 1.2395
28.7000 19.1014 1.2417
28.7200 19.1148 1.2400
28.7400 19.1281 1.2439
28.7600 19.1415 1.2414
28.7800 19.1548 1.2442
28.8000 19.1682 1.2441
28.8200 19.1815 1.2445
28.8400 19.1948 1.2459
28.8600 19.2081 1.2462
28.8800 19.2214 1.2474
28.9000 19.2348 1.2465
28.9200 19.2481 1.2492
28.9400 19.2614 1.2479
28.9600 19.2747 1.2509
28.9800 19.2881 1.2489
29.0000 19.3014 1.2522
29.0200 19.3148 1.2492
29.0400 19.3281 1.2543
29.0600 19.3414 1.2511
29.0800 19.3548 1.2545
29.1000 19.3681 1.2527
29.1200 19.3815 1.2555
29.1400 19.3948 1.2551
29.1600 19.4082 1.2559
29.1800 19.4215 1.2567
29.2000 19.4348 1.2558
29.2200 19.4481 1.2580
29.2400 19.4615 1.2570
29.2600 19.4748 1.2593
29.2800 19.4881 1.2582
29.3000 19.5014 1.2607
29.3200 19.5147 1.2584
29.3400 19.5280 1.2628
29.3600 19.5414 1.2603
29.3800 19.5548 1.2629
29.4000 19.5681 1.2629
29.4200 19.5815 1.2637
29.4400 19.5948 1.2637
29.4600 19.6082 1.2650
29.4800 19.6215 1.2661
29.5000 19.6348 1.2657
29.5200 19.6481 1.2675
29.5400 19.6615 1.2671
29.5600 19.6748 1.2679
29.5800 19.6881 1.2696
29.6000 19.7014 1.2693
29.6200 19.7147 1.2700
29.6400 19.7280 1.2718
29.6600 19.7414 1.2713
29.6800 19.7547 1.2723
29.7000 19.7681 1.2729
29.7200 19.7814 1.2734
29.7400 19.7947 1.2737
29.7600 19.8081 1.2751
29.7800 19.8214 1.2755
29.8000 19.8348 1.2762
29.8200 19.8482 1.2768
29.8400 19.8615 1.2780
29.8600 19.8748 1.2781
29.8800 19.8882 1.2793
29.9000 19.9015 1.2801
29.9200 19.9148 1.2795
29.9400 19.9281 1.2824
29.9600 19.9414 1.2811
29.9800 19.9547 1.2837
30.0000 19.9681 1.2819
30.0200 19.9814 1.2847
30.0400 19.9947 1.2826
30.0600 20.0080 1.2856
30.0800 20.0214 1.2843
30.1000 20.0348 1.2855
30.1200 20.0481 1.2866
30.1400 20.0614 1.2873
30.1600 20.0748 1.2880
30.1800 20.0881 1.2885
30.2000 20.1014 1.2911
30.2200 20.1148 1.2884
30.2400 20.1281 1.2931
30.2600 20.1415 1.2902
30.2800 20.1548 1.2941
30.3000 20.1681 1.2922
30.3200 20.1815 1.2957
30.3400 20.1948 1.2933
30.3600 20.2082 1.2963
30.3800 20.2215 1.2957
30.4000 20.2347 1.2965
30.4200 20.2480 1.2981
30.4400 20.2614 1.2983
30.4600 20.2747 1.2992
30.4800 20.2880 1.2994
30.5000 20.3014 1.3014
30.5200 20.3148 1.3007
30.5400 20.3282 1.3023
30.5600 20.3415 1.3026
30.5800 20.3548 1.3037
30.6000 20.3682 1.3038
30.6200 20.3815 1.3054
30.6400 20.3949 1.3039
30.6600 20.4081 1.3072
30.6800 20.4214 1.3059
30.7000 20.4347 1.3082
30.7200 20.4481 1.3069
30.7400 20.4614 1.3101
30.7600 20.4747 1.3083
30.7800 20.4880 1.3107
30.8000 20.5014 1.3106
30.8200 20.5147 1.3105
30.8400 20.5281 1.3117
30.8600 20.5414 1.3119
30.8800 20.5548 1.3127
30.9000 20.5682 1.3128
30.9200 20.5815 1.3151
30.9400 20.5948 1.3126
30.9600 20.6082 1.3169
30.9800 20.6215 1.3140
31.0000 20.6348 1.3170
31.0200 20.6481 1.3141
31.0400 20.6614 1.3194
31.0600 20.6748 1.3161
31.0800 20.6881 1.3188
31.1000 20.7014 1.3192
31.1200 20.7147 1.3198
31.1400 20.7280 1.3209
31.1600 20.7414 1.3214
31.1800 20.7547 1.3217
31.2000 20.7681 1.3223
31.2200 20.7814 1.3240
31.2400 20.7948 1.3232
31.2600 20.8082 1.3254
31.2800 20.8215 1.3248
31.3000 20.8348 1.3271
31.3200 20.8482 1.3263
31.3400 20.8615 1.3280
31.3600 20.8748 1.3280
31.3800 20.8881 1.3289
31.4000 20.9014 1.3299
31.4200 20.9148 1.3301
31.4400 20.9281 1.3303
31.4600 20.9414 1.3325
31.4800 20.9547 1.3308
31.5000 20.9680 1.3345
31.5200 20.9814 1.3325
31.5400 20.9947 1.3353
31.5600 21.0081 1.3340
31.5800 21.0214 1.3376
31.6000 21.0348 1.3359
31.6200 21.0482 1.3376
31.6400 21.0615 1.3383
31.6600 21.0748 1.3383
31.6800 21.0882 1.3404
31.7000 21.1015 1.3400
31.7200 21.1148 1.3418
31.7400 21.1281 1.3408
31.7600 21.1414 1.3442
31.7800 21.1548 1.3414
31.8000 21.1681 1.3446
31.8200 21.1814 1.3431
31.8400 21.1947 1.3448
31.8600 21.2081 1.3450
31.8800 21.2214 1.3457
31.9000 21.2348 1.3476
31.9200 21.2481 1.3460
31.9400 21.2614 1.3506
31.9600 21.2748 1.3471
31.9800 21.2882 1.3515
32.0000 21.3015 1.3492
32.0200 21.3147 1.3525
32.0400 21.3281 1.3513
32.0600 21.3415 1.3544
32.0800 21.3548 1.3524
32.1000 21.3681 1.3554
32.1200 21.3814 1.3549
32.1400 21.3948 1.3569
32.1600 21.4081 1.3557
32.1800 21.4214 1.3584
32.2000 21.4348 1.3571
32.2200 21.4481 1.3595
32.2400 21.4614 1.3595
32.2600 21.4748 1.3602
32.2800 21.4881 1.3610
32.3000 21.5014 1.3625
32.3200 21.5148 1.3628
32.3400 21.5281 1.3624
32.3600 21.5415 1.3653
32.3800 21.5548 1.3638
32.4000 21.5681 1.3658
32.4200 21.5815 1.3654
32.4400 21.5948 1.3675
32.4600 21.6081 1.3663
32.4800 21.6214 1.3694
32.5000 21.6348 1.3677
32.5200 21.6481 1.3699
32.5400 21.6614 1.3701
32.5600 21.6747 1.3705
32.5800 21.6881 1.3712
32.6000 21.7014 1.3720
32.6200 21.7147 1.3737
32.6400 21.7280 1.3722
32.6600 21.7414 1.3764
32.6800 21.7548 1.3736
32.7000 21.7682 1.3770
32.7200 21.7815 1.3753
32.7400 21.7949 1.3785
32.7600 21.8082 1.3772
32.7800 21.8216 1.3798
32.8000 21.8349 1.3786
32.8200 21.8481 1.3800
32.8400 21.8614 1.3807
32.8600 21.8747 1.3806
32.8800 21.8881 1.3822
32.9000 21.9014 1.3820
32.9200 21.9147 1.3842
32.9400 21.9280 1.3822
32.9600 21.9414 1.3870
32.9800 21.9548 1.3843
33.0000 21.9681 1.3871
33.0200 21.9815 1.3861
33.0400 21.9948 1.3886
33.0600 22.0082 1.3870
33.0800 22.0215 1.3906
33.1000 22.0348 1.3897
33.1200 22.0481 1.3913
33.1400 22.0615 1.3906
33.1600 22.0748 1.3930
33.1800 22.0881 1.3919
33.2000 22.1014 1.3949
33.2200 22.1148 1.3947
33.2400 22.1281 1.3950
33.2600 22.1414 1.3967
33.2800 22.1548 1.3967
33.3000 22.1681 1.3977
33.3200 22.1814 1.3988
33.3400 22.1948 1.3993
33.3600 22.2081 1.3991
33.3800 22.2214 1.4019
33.4000 22.2348 1.4008
33.4200 22.2482 1.4029
33.4400 22.2615 1.4023
33.4600 22.2748 1.4056
33.4800 22.2881 1.4033
33.5000 22.3015 1.4072
33.5200 22.3148 1.4056
33.5400 22.3281 1.4074
33.5600 22.3414 1.4083
33.5800 22.3547 1.4088
33.6000 22.3681 1.4098
33.6200 22.3814 1.4094
33.6400 22.3947 1.4113
33.6600 22.4080 1.4099
33.6800 22.4214 1.4133
33.7000 22.4348 1.4113
33.7200 22.4481 1.4147
33.7400 22.4614 1.4118
33.7600 22.4748 1.4166
33.7800 22.4881 1.4124
33.8000 22.5015 1.4185
33.8200 22.5148 1.4155
33.8400 22.5281 1.4185
33.8600 22.5415 1.4182
33.8800 22.5548 1.4193
33.9000 22.5681 1.4203
33.9200 22.5814 1.4206
33.9400 22.5948 1.4232
33.9600 22.6081 1.4206
33.9800 22.6214 1.4254
34.0000 22.6347 1.4228
34.0200 22.6481 1.4264
34.0400 22.6614 1.4242
34.0600 22.6748 1.4283
34.0800 22.6881 1.4252
34.1000 22.7014 1.4300
34.1200 22.7148 1.4273
34.1400 22.7281 1.4305
34.1600 22.7415 1.4291
34.1800 22.7548 1.4316
34.2000 22.7681 1.4306
34.2200 22.7815 1.4333
34.2400 22.7949 1.4325
34.2600 22.8082 1.4343
34.2800 22.8215 1.4350
34.3000 22.8348 1.4367
34.3200 22.8481 1.4358
34.3400 22.8615 1.4370
34.3600 22.8748 1.4387
34.3800 22.8881 1.4376
34.4000 22.9014 1.4409
34.4200 22.9147 1.4384
34.4400 22.9280 1.4420
34.4600 22.9414 1.4397
34.4800 22.9547 1.4437
34.5000 22.9682 1.4406
34.5200 22.9815 1.4441
34.5400 22.9948 1.4434
34.5600 23.0081 1.4441
34.5800 23.0215 1.4463
34.6000 23.0349 1.4459
34.6200 23.0482 1.4472
34.6400 23.0615 1.4469
34.6600 23.0747 1.4508
34.6800 23.0881 1.4474
34.7000 23.1014 1.4522
34.7200 23.1147 1.4490
34.7400 23.1280 1.4534
34.7600 23.1414 1.4509
34.7800 23.1547 1.4553
34.8000 23.1680 1.4519
34.8200 23.1814 1.4555
34.8400 23.1947 1.4544
34.8600 23.2081 1.4561
34.8800 23.2215 1.4555
34.9000 23.2348 1.4578
34.9200 23.2481 1.4576
34.9400 23.2615 1.4591
34.9600 23.2748 1.4603
34.9800 23.2881 1.4605
35.0000 23.3014 1.4623
35.0200 23.3147 1.4622
35.0400 23.3281 1.4635
35.0600 23.3414 1.4638
35.0800 23.3547 1.4674
35.1000 23.3681 1.4644
35.1200 23.3814 1.4684
35.1400 23.3948 1.4672
35.1600 23.4081 1.4698
35.1800 23.4215 1.4687
35.2000 23.4348 1.4725
35.2200 23.4481 1.4699
35.2400 23.4615 1.4736
35.2600 23.4748 1.4722
35.2800 23.4881 1.4754
35.3000 23.5015 1.4739
35.3200 23.5148 1.4771
35.3400 23.5282 1.4763
35.3600 23.5415 1.4778
35.3800 23.5548 1.4800
35.4000 23.5682 1.4783
35.4200 23.5815 1.4814
35.4400 23.5948 1.4807
35.4600 23.6081 1.4832
35.4800 23.6214 1.4817
35.5000 23.6348 1.4849
35.5200 23.6481 1.4826
35.5400 23.6614 1.4862
35.5600 23.6747 1.4855
35.5800 23.6881 1.4866
35.6000 23.7015 1.4864
35.6200 23.7148 1.4883
35.6400 23.7281 1.4876
35.6600 23.7415 1.4889
35.6800 23.7549 1.4905
35.7000 23.7682 1.4896
35.7200 23.7815 1.4922
35.7400 23.7948 1.4920
35.7600 23.8081 1.4938
35.7800 23.8215 1.4927
35.8000 23.8348 1.4962
35.8200 23.8481 1.4943
35.8400 23.8614 1.4972
35.8600 23.8747 1.4974
35.8800 23.8881 1.4985
35.9000 23.9014 1.4985
35.9200 23.9147 1.5013
35.9400 23.9281 1.5003
35.9600 23.9415 1.5025
35.9800 23.9548 1.5028
36.0000 23.9681 1.5035
36.0200 23.9815 1.5052
36.0400 23.9948 1.5060
36.0600 24.0081 1.5071
36.0800 24.0215 1.5069
36.1000 24.0348 1.5100
36.1200 24.0481 1.5079
36.1400 24.0615 1.5107
36.1600 24.0748 1.5101
36.1800 24.0881 1.5126
36.2000 24.1014 1.5117
36.2200 24.1148 1.5146
36.2400 24.1281 1.5129
36.2600 24.1414 1.5166
36.2800 24.1547 1.5144
36.3000 24.1681 1.5179
36.3200 24.1815 1.5164
36.3400 24.1948 1.5193
36.3600 24.2081 1.5192
36.3800 24.2215 1.5195
36.4000 24.2348 1.5221
36.4200 24.2482 1.5208
36.4400 24.2615 1.5237
36.4600 24.2748 1.5225
36.4800 24.2881 1.5255
36.5000 24.3015 1.5227
36.5200 24.3148 1.5276
36.5400 24.3281 1.5240
36.5600 24.3414 1.5288
36.5800 24.3547 1.5265
36.6000 24.3681 1.5297
36.6200 24.3814 1.5288
36.6400 24.3947 1.5322
36.6600 24.4081 1.5313
36.6800 24.4215 1.5318
36.7000 24.4349 1.5348
36.7200 24.4482 1.5337
36.7400 24.4615 1.5355
36.7600 24.4748 1.5354
36.7800 24.4882 1.5372
36.8000 24.5015 1.5357
36.8200 24.5148 1.5403
36.8400 24.5281 1.5375
36.8600 24.5414 1.5418
36.8800 24.5547 1.5403
36.9000 24.5680 1.5439
36.9200 24.5814 1.5412
36.9400 24.5947 1.5469
36.9600 24.6081 1.5430
36.9800 24.6214 1.5475
37.0000 24.6348 1.5466
37.0200 24.6482 1.5493
37.0400 24.6615 1.5482
37.0600 24.6748 1.5509
37.0800 24.6881 1.5514
37.1000 24.7015 1.5512
37.1200 24.7148 1.5545
37.1400 24.7282 1.5527
37.1600 24.7415 1.5562
37.1800 24.7548 1.5546
37.2000 24.7681 1.5582
37.2200 24.7814 1.5554
37.2400 24.7947 1.5603
37.2600 24.8080 1.5579
37.2800 24.8214 1.5604
37.3000 24.8347 1.5612
37.3200 24.8481 1.5619
37.3400 24.8614 1.5624
37.3600 24.8747 1.5638
37.3800 24.8881 1.5651
37.4000 24.9015 1.5639
37.4200 24.9148 1.5675
37.4400 24.9281 1.5669
37.4600 24.9414 1.5689
37.4800 24.9548 1.5686
37.5000 24.9682 1.5713
37.5200 24.9815 1.5699
37.5400 24.9948 1.5729
37.5600 25.0081 1.5714
37.5800 25.0215 1.5738
37.6000 25.0348 1.5726
37.6200 25.0481 1.5749
37.6400 25.0614 1.5747
37.6600 25.0747 1.5773
37.6800 25.0880 1.5774
37.7000 25.1014 1.5780
37.7200 25.1147 1.5806
37.7400 25.1281 1.5792
37.7600 25.1415 1.5816
37.7800 25.1549 1.5815
37.8000 25.1682 1.5836
37.8200 25.1815 1.5815
37.8400 25.1948 1.5865
37.8600 25.2082 1.5847
37.8800 25.2215 1.5880
37.9000 25.2348 1.5870
37.9200 25.2481 1.5905
37.9400 25.2614 1.5889
37.9600 25.2748 1.5919
37.9800 25.2880 1.5921
38.0000 25.3013 1.5935
38.0200 25.3147 1.5940
38.0400 25.3281 1.5947
38.0600 25.3414 1.5955
38.0800 25.3547 1.5956
38.1000 25.3681 1.5980
38.1200 25.3815 1.5964
38.1400 25.3949 1.6004
38.1600 25.4082 1.5981
38.1800 25.4215 1.6029
38.2000 25.4348 1.5998
38.2200 25.4482 1.6049
38.2400 25.4615 1.6018
38.2600 25.4748 1.6067
38.2800 25.4881 1.6053
38.3000 25.5014 1.6074
38.3200 25.5148 1.6088
38.3400 25.5281 1.6097
38.3600 25.5414 1.6108
38.3800 25.5547 1.6110
38.4000 25.5681 1.6141
38.4200 25.5814 1.6125
38.4400 25.5948 1.6161
38.4600 25.6081 1.6143
38.4800 25.6215 1.6186
38.5000 25.6348 1.6165
38.5200 25.6482 1.6210
38.5400 25.6615 1.6174
38.5600 25.6748 1.6235
38.5800 25.6882 1.6203
38.6000 25.7015 1.6237
38.6200 25.7148 1.6233
38.6400 25.7281 1.6260
38.6600 25.7414 1.6245
38.6800 25.7548 1.6269
38.7000 25.7680 1.6282
38.7200 25.7813 1.6288
38.7400 25.7947 1.6302
38.7600 25.8081 1.6305
38.7800 25.8214 1.6318
38.8000 25.8348 1.6319
38.8200 25.8481 1.6347
38.8400 25.8615 1.6329
38.8600 25.8748 1.6367
38.8800 25.8882 1.6351
38.9000 25.9015 1.6371
38.9200 25.9148 1.6371
38.9400 25.9282 1.6400
38.9600 25.9415 1.6381
38.9800 25.9548 1.6424
39.0000 25.9681 1.6413
39.0200 25.9814 1.6444
39.0400 25.9948 1.6437
39.0600 26.0081 1.6467
39.0800 26.0214 1.6462
39.1000 26.0348 1.6487
39.1200 26.0481 1.6498
39.1400 26.0614 1.6498
39.1600 26.0747 1.6519
39.1800 26.0881 1.6525
39.2000 26.1015 1.6537
39.2200 26.1148 1.6540
39.2400 26.1281 1.6562
39.2600 26.1414 1.6552
39.2800 26.1548 1.6582
39.3000 26.1682 1.6571
39.3200 26.1815 1.6604
39.3400 26.1948 1.6597
39.3600 26.2081 1.6631
39.3800 26.2215 1.6613
39.4000 26.2348 1.6648
39.4200 26.2481 1.6656
39.4400 26.2614 1.6666
39.4600 26.2747 1.6670
39.4800 26.2881 1.6704
39.5000 26.3014 1.6694
39.5200 26.3148 1.6724
39.5400 26.3281 1.6728
39.5600 26.3414 1.6734
39.5800 26.3548 1.6745
39.6000 26.3681 1.6757
39.6200 26.3814 1.6761
39.6400 26.3948 1.6766
39.6600 26.4082 1.6789
39.6800 26.4215 1.6776
39.7000 26.4348 1.6811
39.7200 26.4481 1.6807
39.7400 26.4614 1.6840
39.7600 26.4748 1.6818
39.7800 26.4881 1.6864
39.8000 26.5014 1.6849
39.8200 26.5147 1.6880
39.8400 26.5281 1.6874
39.8600 26.5414 1.6895
39.8800 26.5547 1.6896
39.9000 26.5681 1.6916
39.9200 26.5815 1.6912
39.9400 26.5948 1.6924
39.9600 26.6082 1.6942
39.9800 26.6215 1.6939
40.0000 26.6349 1.6962
40.0200 26.6482 1.6959
40.0400 26.6615 1.6982
40.0600 26.6748 1.6972
40.0800 26.6880 1.7020
40.1000 26.7014 1.6999
40.1200 26.7147 1.7028
40.1400 26.7280 1.7025
40.1600 26.7414 1.7052
40.1800 26.7547 1.7055
40.2000 26.7681 1.7078
40.2200 26.7815 1.7076
40.2400 26.7948 1.7084
40.2600 26.8081 1.7106
40.2800 26.8215 1.7107
40.3000 26.8349 1.7127
40.3200 26.8482 1.7137
40.3400 26.8614 1.7164
40.3600 26.8748 1.7151
40.3800 26.8881 1.7196
40.4000 26.9015 1.7178
40.4200 26.9148 1.7217
40.4400 26.9281 1.7220
40.4600 26.9414 1.7246
40.4800 26.9548 1.7239
40.5000 26.9681 1.7280
40.5200 26.9814 1.7268
40.5400 26.9947 1.7295
40.5600 27.0081 1.7307
40.5800 27.0214 1.7324
40.6000 27.0348 1.7328
40.6200 27.0481 1.7346
40.6400 27.0615 1.7365
40.6600 27.0748 1.7357
40.6800 27.0882 1.7402
40.7000 27.1015 1.7376
40.7200 27.1148 1.7432
40.7400 27.1282 1.7406
40.7600 27.1415 1.7445
40.7800 27.1548 1.7436
40.8000 27.1681 1.7476
40.8200 27.1814 1.7454
40.8400 27.1948 1.7489
40.8600 27.2081 1.7485
40.8800 27.2214 1.7496
40.9000 27.2347 1.7504
40.9200 27.2481 1.7515
40.9400 27.2614 1.7531
40.9600 27.2748 1.7519
40.9800 27.2881 1.7572
41.0000 27.3015 1.7543
41.0200 27.3148 1.7595
41.0400 27.3282 1.7581
41.0600 27.3415 1.7620
41.0800 27.3548 1.7608
41.1000 27.3682 1.7650
41.1200 27.3815 1.7642
41.1400 27.3947 1.7663
41.1600 27.4081 1.7679
41.1800 27.4214 1.7681
41.2000 27.4348 1.7701
41.2200 27.4481 1.7703
41.2400 27.4614 1.7728
41.2600 27.4748 1.7709
41.2800 27.4881 1.7767
41.3000 27.5014 1.7731
41.3200 27.5148 1.7789
41.3400 27.5281 1.7767
41.3600 27.5414 1.7821
41.3800 27.5548 1.7789
41.4000 27.5681 1.7853
41.4200 27.5815 1.7830
41.4400 27.5948 1.7873
41.4600 27.6082 1.7865
41.4800 27.6215 1.7907
41.5000 27.6348 1.7894
41.5200 27.6481 1.7934
41.5400 27.6615 1.7928
41.5600 27.6748 1.7953
41.5800 27.6881 1.7963
41.6000 27.7014 1.7963
41.6200 27.7147 1.7986
41.6400 27.7280 1.7983
41.6600 27.7414 1.8022
41.6800 27.7547 1.8003
41.7000 27.7680 1.8065
41.7200 27.7814 1.8034
41.7400 27.7948 1.8086
41.7600 27.8082 1.8069
41.7800 27.8215 1.8123
41.8000 27.8348 1.8095
41.8200 27.8482 1.8150
41.8400 27.8615 1.8130
41.8600 27.8748 1.8161
41.8800 27.8881 1.8176
41.9000 27.9014 1.8186
41.9200 27.9148 1.8192
41.9400 27.9281 1.8207
41.9600 27.9414 1.8233
41.9800 27.9547 1.8220
42.0000 27.9680 1.8268
42.0200 27.9814 1.8251
42.0400 27.9947 1.8294
42.0600 28.0081 1.8285
42.0800 28.0214 1.8330
42.1000 28.0348 1.8314
42.1200 28.0482 1.8362
42.1400 28.0615 1.8348
42.1600 28.0748 1.8367
42.1800 28.0882 1.8394
42.2000 28.1015 1.8397
42.2200 28.1148 1.8411
42.2400 28.1281 1.8428
42.2600 28.1414 1.8460
42.2800 28.1548 1.8451
42.3000 28.1681 1.8504
42.3200 28.1814 1.8495
42.3400 28.1947 1.8537
42.3600 28.2081 1.8531
42.3800 28.2214 1.8572
42.4000 28.2348 1.8576
42.4200 28.2482 1.8611
42.4400 28.2615 1.8608
42.4600 28.2749 1.8640
42.4800 28.2882 1.8645
42.5000 28.3014 1.8685
42.5200 28.3148 1.8676
42.5400 28.3281 1.8725
42.5600 28.3415 1.8712
42.5800 28.3548 1.8736
42.6000 28.3681 1.8743
42.6200 28.3815 1.8750
42.6400 28.3948 1.8773
42.6600 28.4082 1.8781
42.6800 28.4214 1.8820
42.7000 28.4347 1.8810
42.7200 28.4481 1.8858
42.7400 28.4614 1.8842
42.7600 28.4747 1.8885
42.7800 28.4881 1.8879
42.8000 28.5014 1.8921
42.8200 28.5148 1.8900
42.8400 28.5281 1.8948
42.8600 28.5415 1.8943
42.8800 28.5548 1.8963
42.9000 28.5682 1.8985
42.9200 28.5815 1.8988
42.9400 28.5948 1.9022
42.9600 28.6081 1.9011
42.9800 28.6214 1.9059
43.0000 28.6348 1.9047
43.0200 28.6481 1.9095
43.0400 28.6614 1.9098
43.0600 28.6747 1.9129
43.0800 28.6880 1.9140
43.1000 28.7014 1.9176
43.1200 28.7147 1.9174
43.1400 28.7280 1.9215
43.1600 28.7414 1.9234
43.1800 28.7548 1.9257
43.2000 28.7681 1.9276
43.2200 28.7814 1.9314
43.2400 28.7948 1.9327
43.2600 28.8081 1.9348
43.2800 28.8215 1.9383
43.3000 28.8348 1.9386
43.3200 28.8481 1.9429
43.3400 28.8614 1.9445
43.3600 28.8748 1.9467
43.3800 28.8881 1.9476
43.4000 28.9014 1.9524
43.4200 28.9147 1.9510
43.4400 28.9281 1.9564
43.4600 28.9414 1.9542
43.4800 28.9548 1.9588
43.5000 28.9681 1.9558
43.5200 28.9814 1.9604
43.5400 28.9948 1.9580
43.5600 29.0081 1.9626
43.5800 29.0215 1.9630
43.6000 29.0348 1.9663
43.6200 29.0481 1.9689
43.6400 29.0615 1.9709
43.6600 29.0749 1.9715
43.6800 29.0881 1.9734
43.7000 29.1015 1.9769
43.7200 29.1148 1.9773
43.7400 29.1281 1.9828
43.7600 29.1414 1.9833
43.7800 29.1547 1.9886
43.8000 29.1680 1.9879
43.8200 29.1814 1.9949
43.8400 29.1948 1.9934
43.8600 29.2081 2.0000
43.8800 29.2214 1.9998
43.9000 29.2348 2.0041
43.9200 29.2482 2.0056
43.9400 29.2615 2.0094
43.9600 29.2748 2.0110
43.9800 29.2882 2.0138
44.0000 29.3015 2.0171
44.0200 29.3148 2.0171
44.0400 29.3281 2.0211
44.0600 29.3414 2.0219
44.0800 29.3547 2.0251
44.1000 29.3680 2.0258
44.1200 29.3814 2.0302
44.1400 29.3947 2.0294
44.1600 29.4081 2.0337
44.1800 29.4214 2.0342
44.2000 29.4347 2.0366
44.2200 29.4481 2.0382
44.2400 29.4614 2.0427
44.2600 29.4748 2.0441
44.2800 29.4882 2.0491
44.3000 29.5015 2.0512
44.3200 29.5148 2.0551
44.3400 29.5282 2.0569
44.3600 29.5415 2.0614
44.3800 29.5548 2.0641
44.4000 29.5681 2.0665
44.4200 29.5814 2.0719
44.4400 29.5948 2.0714
44.4600 29.6081 2.0783
44.4800 29.6214 2.0771
44.5000 29.6347 2.0850
44.5200 29.6480 2.0820
44.5400 29.6614 2.0908
44.5600 29.6747 2.0864
44.5800 29.6881 2.0919
44.6000 29.7014 2.0922
44.6200 29.7148 2.0968
44.6400 29.7281 2.0970
44.6600 29.7415 2.1011
44.6800 29.7548 2.1003
44.7000 29.7681 2.1022
44.7200 29.7815 2.1060
44.7400 29.7948 2.1082
44.7600 29.8081 2.1126
44.7800 29.8215 2.1150
44.8000 29.8348 2.1199
44.8200 29.8482 2.1212
44.8400 29.8615 2.1278
44.8600 29.8748 2.1281
44.8800 29.8880 2.1337
44.9000 29.9014 2.1359
44.9200 29.9147 2.1401
44.9400 29.9280 2.1413
44.9600 29.9414 2.1471
44.9800 29.9548 2.1478
45.0000 29.9682 2.1522
45.0200 29.9815 2.1543
45.0400 29.9948 2.1560
45.0480 30.0000 2.1547
45.0490 30.0007 2.1544
45.0500 30.0013 2.1540
45.0700 30.0118 2.1379
45.0900 30.0141 2.1273
45.1100 30.0058 2.1299
45.1300 29.9930 2.1329
45.1500 29.9802 2.1184
45.1700 29.9673 2.1110
45.1900 29.9538 2.1002
45.2100 29.9398 2.0934
45.2300 29.9257 2.0847
45.2500 29.9119 2.0775
45.2700 29.8984 2.0709
45.2900 29.8851 2.0593
45.3100 29.8718 2.0558
45.3300 29.8585 2.0460
45.3500 29.8451 2.0426
45.3700 29.8318 2.0324
45.3900 29.8185 2.0307
45.4100 29.8051 2.0191
45.4300 29.7917 2.0177
45.4500 29.7784 2.0083
45.4700 29.7650 2.0048
45.4900 29.7517 1.9964
45.5100 29.7383 1.9936
45.5300 29.7250 1.9858
45.5500 29.7116 1.9823
45.5700 29.6983 1.9768
45.5900 29.6850 1.9702
45.6100 29.6716 1.9671
45.6300 29.6583 1.9601
45.6500 29.6450 1.9570
45.6700 29.6317 1.9500
45.6900 29.6183 1.9480
45.7100 29.6050 1.9409
45.7300 29.5917 1.9379
45.7500 29.5784 1.9328
45.7700 29.5651 1.9287
45.7900 29.5517 1.9236
45.8100 29.5384 1.9206
45.8300 29.5250 1.9149
45.8500 29.5117 1.9113
45.8700 29.4984 1.9075
45.8900 29.4850 1.9033
45.9100 29.4717 1.8995
45.9300 29.4584 1.8953
45.9500 29.4450 1.8912
45.9700 29.4317 1.8873
45.9900 29.4183 1.8848
46.0100 29.4050 1.8790
46.0300 29.3917 1.8775
46.0500 29.3783 1.8719
46.0700 29.3650 1.8707
46.0900 29.3517 1.8645
46.1100 29.3384 1.8642
46.1300 29.3251 1.8564
46.1500 29.3117 1.8569
46.1700 29.2984 1.8511
46.1900 29.2851 1.8493
46.2100 29.2718 1.8446
46.2300 29.2584 1.8424
46.2500 29.2450 1.8388
46.2700 29.2316 1.8349
46.2900 29.2183 1.8335
46.3100 29.2050 1.8280
46.3300 29.1916 1.8265
46.3500 29.1783 1.8218
46.3700 29.1649 1.8213
46.3900 29.1516 1.8153
46.4100 29.1383 1.8158
46.4300 29.1250 1.8085
46.4500 29.1117 1.8100
46.4700 29.0984 1.8040
46.4900 29.0851 1.8032
46.5100 29.0717 1.7981
46.5300 29.0583 1.7973
46.5500 29.0450 1.7933
46.5700 29.0317 1.7905
46.5900 29.0183 1.7892
46.6100 29.0050 1.7844
46.6300 28.9916 1.7831
46.6500 28.9783 1.7792
46.6700 28.9650 1.7783
46.6900 28.9516 1.7739
46.7100 28.9382 1.7734
46.7300 28.9249 1.7682
46.7500 28.9116 1.7685
46.7700 28.8983 1.7629
46.7900 28.8850 1.7640
46.8100 28.8717 1.7577
46.8300 28.8584 1.7594
46.8500 28.8451 1.7524
46.8700 28.8317 1.7535
46.8900 28.8184 1.7486
46.9100 28.8050 1.7480
46.9300 28.7917 1.7433
46.9500 28.7783 1.7437
46.9700 28.7650 1.7384
46.9900 28.7516 1.7390
47.0100 28.7383 1.7350
47.0300 28.7250 1.7324
47.0500 28.7116 1.7316
47.0700 28.6983 1.7267
47.0900 28.6850 1.7288
47.1100 28.6717 1.7206
47.1300 28.6584 1.7240
47.1500 28.6450 1.7174
47.1700 28.6317 1.7175
47.1900 28.6184 1.7144
47.2100 28.6051 1.7130
47.2300 28.5917 1.7086
47.2500 28.5783 1.7107
47.2700 28.5650 1.7044
47.2900 28.5517 1.7046
47.3100 28.5384 1.7026
47.3300 28.5250 1.6978
47.3500 28.5116 1.6992
47.3700 28.4983 1.6932
47.3900 28.4850 1.6945
47.4100 28.4717 1.6903
47.4300 28.4583 1.6897
47.4500 28.4450 1.6862
47.4700 28.4317 1.6856
47.4900 28.4183 1.6814
47.5100 28.4050 1.6836
47.5300 28.3916 1.6770
47.5500 28.3784 1.6785
47.5700 28.3650 1.6745
47.5900 28.3517 1.6729
47.6100 28.3383 1.6717
47.6300 28.3250 1.6697
47.6500 28.3117 1.6662
47.6700 28.2984 1.6661
47.6900 28.2850 1.6627
47.7100 28.2716 1.6610
47.7300 28.2583 1.6609
47.7500 28.2450 1.6559
47.7700 28.2317 1.6567
47.7900 28.2183 1.6528
47.8100 28.2050 1.6531
47.8300 28.1917 1.6484
47.8500 28.1783 1.6503
47.8700 28.1650 1.6441
47.8900 28.1516 1.6468
47.9100 28.1384 1.6408
47.9300 28.1250 1.6430
47.9500 28.1117 1.6376
47.9700 28.0983 1.6376
47.9900 28.0850 1.6352
48.0100 28.0717 1.6331
48.0300 28.0584 1.6322
48.0500 28.0450 1.6299
48.0700 28.0316 1.6286
48.0900 28.0183 1.6251
48.1100 28.0050 1.6272
48.1300 27.9916 1.6202
48.1500 27.9783 1.6236
48.1700 27.9650 1.6184
48.1900 27.9517 1.6179
48.2100 27.9383 1.6160
48.2300 27.9250 1.6145
48.2500 27.9117 1.6129
48.2700 27.8984 1.6113
48.2900 27.8850 1.6094
48.3100 27.8717 1.6070
48.3300 27.8583 1.6074
48.3500 27.8450 1.6031
48.3700 27.8317 1.6041
48.3900 27.8184 1.5995
48.4100 27.8050 1.6015
48.4300 27.7916 1.5966
48.4500 27.7783 1.5971
48.4700 27.7650 1.5945
48.4900 27.7516 1.5931
48.5100 27.7383 1.5907
48.5300 27.7250 1.5913
48.5500 27.7117 1.5874
48.5700 27.6984 1.5877
48.5900 27.6850 1.5845
48.6100 27.6717 1.5845
48.6300 27.6584 1.5817
48.6500 27.6451 1.5811
48.6700 27.6317 1.5784
48.6900 27.6184 1.5773
48.7100 27.6050 1.5762
48.7300 27.5917 1.5730
48.7500 27.5783 1.5735
48.7700 27.5650 1.5704
48.7900 27.5516 1.5704
48.8100 27.5383 1.5664
48.8300 27.5250 1.5680
48.8500 27.5116 1.5626
48.8700 27.4983 1.5647
48.8900 27.4850 1.5594
48.9100 27.4717 1.5616
48.9300 27.4583 1.5572
48.9500 27.4450 1.5582
48.9700 27.4317 1.5544
48.9900 27.4184 1.5540
49.0100 27.4050 1.5533
49.0300 27.3917 1.5498
49.0500 27.3783 1.5510
49.0700 27.3650 1.5464
49.0900 27.3517 1.5478
49.1100 27.3384 1.5434
49.1300 27.3250 1.5455
49.1500 27.3116 1.5409
49.1700 27.2983 1.5424
49.1900 27.2850 1.5380
49.2100 27.2716 1.5389
49.2300 27.2583 1.5361
49.2500 27.2450 1.5359
49.2700 27.2317 1.5332
49.2900 27.2184 1.5323
49.3100 27.2050 1.5313
49.3300 27.1917 1.5289
49.3500 27.1784 1.5294
49.3700 27.1650 1.5257
49.3900 27.1517 1.5262
49.4100 27.1383 1.5227
49.4300 27.1250 1.5240
49.4500 27.1117 1.5196
49.4700 27.0984 1.5207
49.4900 27.0850 1.5171
49.5100 27.0716 1.5180
49.5300 27.0583 1.5141
49.5500 27.0450 1.5163
49.5700 27.0317 1.5106
49.5900 27.0183 1.5136
49.6100 27.0050 1.5086
49.6300 26.9917 1.5102
49.6500 26.9784 1.5060
49.6700 26.9650 1.5076
49.6900 26.9517 1.5037
49.7100 26.9383 1.5043
49.7300 26.9251 1.5020
49.7500 26.9117 1.5002
49.7700 26.8984 1.4997
49.7900 26.8850 1.4978
49.8100 26.8717 1.4972
49.8300 26.8584 1.4940
49.8500 26.8450 1.4963
49.8700 26.8316 1.4910
49.8900 26.8183 1.4936
49.9100 26.8050 1.4884
49.9300 26.7917 1.4904
49.9500 26.7783 1.4859
49.9700 26.7649 1.4882
49.9900 26.7516 1.4838
50.0100 26.7383 1.4846
50.0300 26.7250 1.4818
50.0500 26.7117 1.4814
50.0700 26.6984 1.4794
50.0900 26.6851 1.4791
50.1100 26.6717 1.4766
50.1300 26.6584 1.4760
50.1500 26.6450 1.4747
50.1700 26.6317 1.4731
50.1900 26.6184 1.4716
50.2100 26.6050 1.4705
50.2300 26.5916 1.4694
50.2500 26.5783 1.4677
50.2700 26.5649 1.4679
50.2900 26.5516 1.4648
50.3100 26.5383 1.4651
50.3300 26.5249 1.4625
50.3500 26.5117 1.4628
50.3700 26.4983 1.4593
50.3900 26.4850 1.4607
50.4100 26.4716 1.4572
50.4300 26.4583 1.4575
50.4500 26.4451 1.4549
50.4700 26.4318 1.4545
50.4900 26.4184 1.4528
50.5100 26.4050 1.4515
50.5300 26.3917 1.4513
50.5500 26.3783 1.4479
50.5700 26.3650 1.4498
50.5900 26.3516 1.4457
50.6100 26.3383 1.4469
50.6300 26.3250 1.4436
50.6500 26.3117 1.4445
50.6700 26.2983 1.4408
50.6900 26.2849 1.4423
50.7100 26.2716 1.4386
50.7300 26.2583 1.4394
50.7500 26.2450 1.4371
50.7700 26.2316 1.4363
50.7900 26.2183 1.4350
50.8100 26.2050 1.4338
50.8300 26.1917 1.4326
50.8500 26.1783 1.4308
50.8700 26.1650 1.4316
50.8900 26.1517 1.4273
50.9100 26.1384 1.4287
50.9300 26.1250 1.4258
50.9500 26.1116 1.4268
50.9700 26.0983 1.4239
50.9900 26.0850 1.4234
51.0100 26.0717 1.4216
51.0300 26.0583 1.4209
51.0500 26.0450 1.4195
51.0700 26.0316 1.4191
51.0900 26.0183 1.4170
51.1100 26.0050 1.4163
51.1300 25.9916 1.4154
51.1500 25.9783 1.4134
51.1700 25.9650 1.4140
51.1900 25.9517 1.4112
51.2100 25.9384 1.4109
51.2300 25.9250 1.4088
51.2500 25.9117 1.4090
51.2700 25.8984 1.4058
51.2900 25.8850 1.4071
51.3100 25.8717 1.4040
51.3300 25.8583 1.4047
51.3500 25.8450 1.4014
51.3700 25.8317 1.4031
51.3900 25.8183 1.3990
51.4100 25.8050 1.4008
51.4300 25.7916 1.3965
51.4500 25.7783 1.3976
51.4700 25.7650 1.3956
51.4900 25.7517 1.3948
51.5100 25.7383 1.3945
51.5300 25.7251 1.3921
51.5500 25.7117 1.3919
51.5700 25.6984 1.3891
51.5900 25.6850 1.3911
51.6100 25.6717 1.3869
51.6300 25.6584 1.3881
51.6500 25.6450 1.3846
51.6700 25.6316 1.3862
51.6900 25.6183 1.3822
51.7100 25.6050 1.3848
51.7300 25.5917 1.3800
51.7500 25.5783 1.3814
51.7700 25.5649 1.3784
51.7900 25.5516 1.3798
51.8100 25.5383 1.3765
51.8300 25.5250 1.3770
51.8500 25.5116 1.3748
51.8700 25.4983 1.3743
51.8900 25.4850 1.3731
51.9100 25.4717 1.3716
51.9300 25.4584 1.3708
51.9500 25.4450 1.3696
51.9700 25.4317 1.3693
51.9900 25.4184 1.3655
52.0100 25.4051 1.3678
52.0300 25.3917 1.3639
52.0500 25.3783 1.3655
52.0700 25.3650 1.3619
52.0900 25.3516 1.3633
52.1100 25.3383 1.3602
52.1300 25.3249 1.3609
52.1500 25.3116 1.3594
52.1700 25.2983 1.3585
52.1900 25.2850 1.3573
52.2100 25.2717 1.3566
52.2300 25.2583 1.3553
52.2500 25.2450 1.3545
52.2700 25.2317 1.3530
52.2900 25.2184 1.3514
52.3100 25.2050 1.3516
52.3300 25.1917 1.3491
52.3500 25.1784 1.3489
52.3700 25.1650 1.3461
52.3900 25.1516 1.3479
52.4100 25.1383 1.3436
52.4300 25.1249 1.3454
52.4500 25.1116 1.3426
52.4700 25.0983 1.3431
52.4900 25.0849 1.3405
52.5100 25.0716 1.3414
52.5300 25.0583 1.3393
52.5500 25.0450 1.3385
52.5700 25.0317 1.3376
52.5900 25.0184 1.3362
52.6100 25.0051 1.3360
52.6300 24.9917 1.3342
52.6500 24.9783 1.3336
52.6700 24.9650 1.3316
52.6900 24.9516 1.3331
52.7100 24.9383 1.3291
52.7300 24.9250 1.3305
52.7500 24.9116 1.3279
52.7700 24.8983 1.3280
52.7900 24.8850 1.3257
52.8100 24.8716 1.3266
52.8300 24.8583 1.3226
52.8500 24.8449 1.3240
52.8700 24.8316 1.3213
52.8900 24.8183 1.3218
52.9100 24.8050 1.3190
52.9300 24.7917 1.3206
52.9500 24.7783 1.3174
52.9700 24.7650 1.3171
52.9900 24.7517 1.3162
53.0100 24.7384 1.3150
53.0300 24.7250 1.3147
53.0500 24.7117 1.3123
53.0700 24.6984 1.3129
53.0900 24.6850 1.3100
53.1100 24.6717 1.3112
53.1300 24.6583 1.3085
53.1500 24.6450 1.3089
53.1700 24.6317 1.3064
53.1900 24.6183 1.3071
53.2100 24.6049 1.3034
53.2300 24.5916 1.3063
53.2500 24.5783 1.3018
53.2700 24.5650 1.3031
53.2900 24.5516 1.3007
53.3100 24.5383 1.3005
53.3300 24.5250 1.2990
53.3500 24.5117 1.2987
53.3700 24.4984 1.2976
53.3900 24.4851 1.2955
53.4100 24.4717 1.2966
53.4300 24.4584 1.2930
53.4500 24.4451 1.2942
53.4700 24.4317 1.2917
53.4900 24.4183 1.2926
53.5100 24.4050 1.2896
53.5300 24.3916 1.2904
53.5500 24.3783 1.2875
53.5700 24.3649 1.2884
53.5900 24.3516 1.2865
53.6100 24.3383 1.2857
53.6300 24.3250 1.2843
53.6500 24.3116 1.2842
53.6700 24.2983 1.2829
53.6900 24.2850 1.2814
53.7100 24.2717 1.2814
53.7300 24.2584 1.2797
53.7500 24.2450 1.2792
53.7700 24.2317 1.2779
53.7900 24.2184 1.2771
53.8100 24.2050 1.2755
53.8300 24.1916 1.2761
53.8500 24.1783 1.2739
53.8700 24.1650 1.2745
53.8900 24.1516 1.2714
53.9100 24.1383 1.2725
53.9300 24.1249 1.2696
53.9500 24.1116 1.2709
53.9700 24.0983 1.2684
53.9900 24.0850 1.2682
54.0100 24.0717 1.2671
54.0300 24.0583 1.2665
54.0500 24.0450 1.2651
54.0700 24.0317 1.2648
54.0900 24.0184 1.2637
54.1100 24.0051 1.2620
54.1300 23.9917 1.2629
54.1500 23.9784 1.2590
54.1700 23.9650 1.2609
54.1900 23.9516 1.2580
54.2100 23.9383 1.2594
54.2300 23.9250 1.2551
54.2500 23.9116 1.2577
54.2700 23.8983 1.2539
54.2900 23.8849 1.2554
54.3100 23.8716 1.2529
54.3300 23.8583 1.2526
54.3500 23.8451 1.2514
54.3700 23.8317 1.2511
54.3900 23.8184 1.2500
54.4100 23.8050 1.2485
54.4300 23.7917 1.2485
54.4500 23.7784 1.2460
54.4700 23.7651 1.2468
54.4900 23.7517 1.2442
54.5100 23.7384 1.2458
54.5300 23.7250 1.2413
54.5500 23.7117 1.2439
54.5700 23.6983 1.2406
54.5900 23.6850 1.2413
54.6100 23.6717 1.2392
54.6300 23.6583 1.2399
54.6500 23.6450 1.2374
54.6700 23.6316 1.2382
54.6900 23.6183 1.2359
54.7100 23.6050 1.2355
54.7300 23.5916 1.2353
54.7500 23.5783 1.2335
54.7700 23.5650 1.2323
54.7900 23.5517 1.2320
54.8100 23.5384 1.2308
54.8300 23.5250 1.2290
54.8500 23.5117 1.2303
54.8700 23.4983 1.2267
54.8900 23.4850 1.2285
54.9100 23.4717 1.2249
54.9300 23.4583 1.2274
54.9500 23.4450 1.2226
54.9700 23.4316 1.2252
54.9900 23.4183 1.2215
55.0100 23.4050 1.2231
55.0300 23.3916 1.2197
55.0500 23.3783 1.2218
55.0700 23.3650 1.2179
55.0900 23.3516 1.2195
55.1100 23.3383 1.2184
55.1300 23.3250 1.2161
55.1500 23.3117 1.2172
55.1700 23.2984 1.2139
55.1900 23.2850 1.2152
55.2100 23.2717 1.2119
55.2300 23.2584 1.2144
55.2500 23.2451 1.2086
55.2700 23.2317 1.2125
55.2900 23.2183 1.2084
55.3100 23.2050 1.2098
55.3300 23.1916 1.2070
55.3500 23.1783 1.2085
55.3700 23.1649 1.2050
55.3900 23.1516 1.2073
55.4100 23.1383 1.2042
55.4300 23.1250 1.2043
55.4500 23.1117 1.2035
55.4700 23.0983 1.2019
55.4900 23.0850 1.2015
55.5100 23.0717 1.2006
55.5300 23.0584 1.1996
55.5500 23.0450 1.1983
55.5700 23.0317 1.1985
55.5900 23.0183 1.1966
55.6100 23.0050 1.1969
55.6300 22.9917 1.1945
55.6500 22.9783 1.1957
55.6700 22.9649 1.1929
55.6900 22.9516 1.1935
55.7100 22.9383 1.1915
55.7300 22.9250 1.1918
55.7500 22.9116 1.1889
55.7700 22.8983 1.1912
55.7900 22.8850 1.1873
55.8100 22.8717 1.1883
55.8300 22.8584 1.1873
55.8500 22.8451 1.1856
55.8700 22.8318 1.1861
55.8900 22.8184 1.1839
55.9100 22.8051 1.1840
55.9300 22.7917 1.1825
55.9500 22.7783 1.1835
55.9700 22.7650 1.1792
55.9900 22.7516 1.1824
56.0100 22.7382 1.1779
56.0300 22.7249 1.1805
56.0500 22.7116 1.1765
56.0700 22.6983 1.1778
56.0900 22.6850 1.1757
56.1100 22.6716 1.1751
56.1300 22.6583 1.1759
56.1500 22.6450 1.1720
56.1700 22.6317 1.1747
56.1900 22.6183 1.1704
56.2100 22.6050 1.1728
56.2300 22.5917 1.1691
56.2500 22.5784 1.1717
56.2700 22.5650 1.1674
56.2900 22.5517 1.1695
56.3100 22.5383 1.1665
56.3300 22.5250 1.1671
56.3500 22.5117 1.1652
56.3700 22.4983 1.1656
56.3900 22.4850 1.1636
56.4100 22.4716 1.1635
56.4300 22.4583 1.1629
56.4500 22.4450 1.1615
56.4700 22.4316 1.1613
56.4900 22.4183 1.1605
56.5100 22.4050 1.1589
56.5300 22.3917 1.1585
56.5500 22.3784 1.1586
56.5700 22.3650 1.1570
56.5900 22.3517 1.1561
56.6100 22.3384 1.1555
56.6300 22.3250 1.1549
56.6500 22.3116 1.1532
56.6700 22.2983 1.1536
56.6900 22.2850 1.1508
56.7100 22.2717 1.1524
56.7300 22.2583 1.1501
56.7500 22.2450 1.1500
56.7700 22.2317 1.1486
56.7900 22.2184 1.1492
56.8100 22.2050 1.1461
56.8300 22.1916 1.1464
56.8500 22.1783 1.1466
56.8700 22.1650 1.1443
56.8900 22.1517 1.1445
56.9100 22.1383 1.1425
56.9300 22.1250 1.1438
56.9500 22.1117 1.1399
56.9700 22.0984 1.1432
56.9900 22.0851 1.1379
57.0100 22.0717 1.1412
57.0300 22.0584 1.1370
57.0500 22.0450 1.1388
57.0700 22.0317 1.1352
57.0900 22.0183 1.1378
57.1100 22.0050 1.1346
57.1300 21.9916 1.1343
57.1500 21.9783 1.1342
57.1700 21.9650 1.1324
57.1900 21.9516 1.1330
57.2100 21.9383 1.1313
57.2300 21.9250 1.1314
57.2500 21.9117 1.1288
57.2700 21.8983 1.1307
57.2900 21.8850 1.1282
57.3100 21.8717 1.1287
57.3300 21.8584 1.1267
57.3500 21.8451 1.1272
57.3700 21.8317 1.1246
57.3900 21.8183 1.1267
57.4100 21.8050 1.1234
57.4300 21.7917 1.1240
57.4500 21.7783 1.1218
57.4700 21.7649 1.1221
57.4900 21.7516 1.1202
57.5100 21.7383 1.1214
57.5300 21.7249 1.1182
57.5500 21.7116 1.1193
57.5700 21.6983 1.1178
57.5900 21.6850 1.1176
57.6100 21.6717 1.1162
57.6300 21.6583 1.1163
57.6500 21.6450 1.1154
57.6700 21.6317 1.1130
57.6900 21.6184 1.1156
57.7100 21.6050 1.1115
57.7300 21.5917 1.1128
57.7500 21.5783 1.1110
57.7700 21.5650 1.1116
57.7900 21.5517 1.1092
57.8100 21.5383 1.1096
57.8300 21.5250 1.1080
57.8500 21.5117 1.1072
57.8700 21.4983 1.1064
57.8900 21.4850 1.1053
57.9100 21.4716 1.1045
57.9300 21.4583 1.1035
57.9500 21.4450 1.1041
57.9700 21.4317 1.1012
57.9900 21.4183 1.1034
58.0100 21.4050 1.0994
58.0300 21.3917 1.1011
58.0500 21.3784 1.0988
58.0700 21.3650 1.1003
58.0900 21.3517 1.0967
58.1100 21.3383 1.0981
58.1300 21.3251 1.0954
58.1500 21.3117 1.0964
58.1700 21.2983 1.0944
58.1900 21.2850 1.0956
58.2100 21.2717 1.0916
58.2300 21.2584 1.0935
58.2500 21.2450 1.0909
58.2700 21.2317 1.0910
58.2900 21.2183 1.0913
58.3100 21.2050 1.0894
58.3300 21.1917 1.0884
58.3500 21.1783 1.0877
58.3700 21.1650 1.0882
58.3900 21.1517 1.0856
58.4100 21.1384 1.0869
58.4300 21.1250 1.0842
58.4500 21.1117 1.0852
58.4700 21.0983 1.0821
58.4900 21.0850 1.0848
58.5100 21.0717 1.0800
58.5300 21.0584 1.0840
58.5500 21.0450 1.0788
58.5700 21.0317 1.0807
58.5900 21.0183 1.0786
58.6100 21.0050 1.0786
58.6300 20.9916 1.0771
58.6500 20.9783 1.0771
58.6700 20.9650 1.0759
58.6900 20.9517 1.0747
58.7100 20.9383 1.0760
58.7300 20.9250 1.0729
58.7500 20.9117 1.0742
58.7700 20.8984 1.0714
58.7900 20.8850 1.0734
58.8100 20.8717 1.0685
58.8300 20.8583 1.0729
58.8500 20.8450 1.0687
58.8700 20.8317 1.0688
58.8900 20.8184 1.0682
58.9100 20.8050 1.0680
58.9300 20.7916 1.0667
58.9500 20.7783 1.0661
58.9700 20.7650 1.0657
58.9900 20.7516 1.0640
59.0100 20.7382 1.0647
59.0300 20.7249 1.0625
59.0500 20.7116 1.0629
59.0700 20.6983 1.0610
59.0900 20.6850 1.0621
59.1100 20.6717 1.0581
59.1300 20.6584 1.0613
59.1500 20.6451 1.0568
59.1700 20.6317 1.0595
59.1900 20.6183 1.0558
59.2100 20.6050 1.0586
59.2300 20.5917 1.0530
59.2500 20.5784 1.0573
59.2700 20.5650 1.0527
59.2900 20.5516 1.0544
59.3100 20.5383 1.0520
59.3300 20.5250 1.0527
59.3500 20.5116 1.0506
59.3700 20.4983 1.0503
59.3900 20.4850 1.0505
59.4100 20.4717 1.0479
59.4300 20.4583 1.0500
59.4500 20.4450 1.0465
59.4700 20.4317 1.0484
59.4900 20.4184 1.0448
59.5100 20.4051 1.0478
59.5300 20.3917 1.0422
59.5500 20.3783 1.0465
59.5700 20.3650 1.0421
59.5900 20.3517 1.0436
59.6100 20.3383 1.0406
59.6300 20.3250 1.0427
59.6500 20.3116 1.0396
59.6700 20.2983 1.0398
59.6900 20.2850 1.0394
59.7100 20.2716 1.0378
59.7300 20.2583 1.0379
59.7500 20.2450 1.0365
59.7700 20.2317 1.0369
59.7900 20.2183 1.0345
59.8100 20.2050 1.0361
59.8300 20.1917 1.0328
59.8500 20.1784 1.0343
59.8700 20.1651 1.0322
59.8900 20.1517 1.0318
59.9100 20.1383 1.0314
59.9300 20.1250 1.0308
59.9500 20.1117 1.0294
59.9700 20.0983 1.0285
59.9900 20.0849 1.0289
60.0100 20.0716 1.0273
60.0300 20.0583 1.0265
60.0500 20.0450 1.0267
60.0700 20.0316 1.0245
60.0900 20.0183 1.0256
60.1100 20.0050 1.0248
60.1300 19.9917 1.0223
60.1500 19.9783 1.0242
60.1700 19.9650 1.0213
60.1900 19.9517 1.0224
60.2100 19.9384 1.0195
60.2300 19.9251 1.0227
60.2500 19.9117 1.0171
60.2700 19.8983 1.0210
60.2900 19.8850 1.0159
60.3100 19.8717 1.0188
60.3300 19.8583 1.0147
60.3500 19.8450 1.0183
60.3700 19.8316 1.0136
60.3900 19.8183 1.0149
60.4100 19.8050 1.0141
60.4300 19.7916 1.0124
60.4500 19.7783 1.0138
60.4700 19.7650 1.0104
60.4900 19.7517 1.0124
60.5100 19.7383 1.0090
60.5300 19.7250 1.0119
60.5500 19.7117 1.0073
60.5700 19.6984 1.0095
60.5900 19.6850 1.0073
60.6100 19.6717 1.0072
60.6300 19.6584 1.0058
60.6500 19.6451 1.0067
60.6700 19.6318 1.0034
60.6900 19.6184 1.0045
60.7100 19.6050 1.0041
60.7300 19.5916 1.0024
60.7500 19.5783 1.0026
60.7700 19.5650 1.0015
60.7900 19.5516 1.0007
60.8100 19.5383 0.9996
60.8300 19.5249 1.0001
60.8500 19.5116 0.9983
60.8700 19.4983 0.9985
60.8900 19.4850 0.9975
60.9100 19.4717 0.9972
60.9300 19.4584 0.9952
60.9500 19.4451 0.9966
60.9700 19.4317 0.9938
60.9900 19.4184 0.9943
61.0100 19.4050 0.9931
61.0300 19.3917 0.9925
61.0500 19.3784 0.9918
61.0700 19.3650 0.9914
61.0900 19.3516 0.9912
61.1100 19.3383 0.9888
61.1300 19.3250 0.9902
61.1500 19.3116 0.9873
61.1700 19.2983 0.9888
61.1900 19.2850 0.9868
61.2100 19.2717 0.9872
61.2300 19.2583 0.9845
61.2500 19.2450 0.9874
61.2700 19.2317 0.9826
61.2900 19.2184 0.9858
61.3100 19.2051 0.9819
61.3300 19.1917 0.9836
61.3500 19.1784 0.9808
61.3700 19.1650 0.9822
61.3900 19.1517 0.9797
61.4100 19.1383 0.9794
61.4300 19.1249 0.9801
61.4500 19.1116 0.9774
61.4700 19.0983 0.9785
61.4900 19.0849 0.9764
61.5100 19.0716 0.9773
61.5300 19.0583 0.9751
61.5500 19.0450 0.9764
61.5700 19.0317 0.9733
61.5900 19.0184 0.9740
61.6100 19.0050 0.9729
61.6300 18.9917 0.9732
61.6500 18.9784 0.9710
61.6700 18.9651 0.9723
61.6900 18.9517 0.9697
61.7100 18.9383 0.9701
61.7300 18.9250 0.9693
61.7500 18.9117 0.9686
61.7700 18.8984 0.9670
61.7900 18.8850 0.9676
61.8100 18.8716 0.9658
61.8300 18.8583 0.9650
61.8500 18.8450 0.9665
61.8700 18.8316 0.9636
61.8900 18.8183 0.9643
61.9100 18.8050 0.9626
61.9300 18.7917 0.9636
61.9500 18.7783 0.9597
61.9700 18.7650 0.9632
61.9900 18.7517 0.9584
62.0100 18.7384 0.9609
62.0300 18.7250 0.9582
62.0500 18.7117 0.9589
62.0700 18.6983 0.9567
62.0900 18.6850 0.9582
62.1100 18.6717 0.9552
62.1300 18.6584 0.9551
62.1500 18.6450 0.9558
62.1700 18.6316 0.9540
62.1900 18.6183 0.9535
62.2100 18.6050 0.9524
62.2300 18.5917 0.9533
62.2500 18.5783 0.9501
62.2700 18.5650 0.9523
62.2900 18.5517 0.9486
62.3100 18.5383 0.9503
62.3300 18.5250 0.9485
62.3500 18.5116 0.9496
62.3700 18.4984 0.9462
62.3900 18.4850 0.9482
62.4100 18.4717 0.9458
62.4300 18.4583 0.9458
62.4500 18.4450 0.9453
62.4700 18.4317 0.9447
62.4900 18.4184 0.9428
62.5100 18.4050 0.9436
62.5300 18.3916 0.9424
62.5500 18.3783 0.9416
62.5700 18.3650 0.9414
62.5900 18.3517 0.9398
62.6100 18.3383 0.9393
62.6300 18.3250 0.9384
62.6500 18.3117 0.9389
62.6700 18.2983 0.9370
62.6900 18.2850 0.9381
62.7100 18.2716 0.9364
62.7300 18.2584 0.9354
62.7500 18.2451 0.9349
62.7700 18.2317 0.9351
62.7900 18.2183 0.9331
62.8100 18.2050 0.9346
62.8300 18.1917 0.9317
62.8500 18.1784 0.9326
62.8700 18.1650 0.9315
62.8900 18.1516 0.9315
62.9100 18.1383 0.9305
62.9300 18.1250 0.9289
62.9500 18.1116 0.9298
62.9700 18.0983 0.9268
62.9900 18.0849 0.9297
63.0100 18.0716 0.9258
63.0300 18.0584 0.9271
63.0500 18.0450 0.9243
63.0700 18.0317 0.9262
63.0900 18.0184 0.9232
63.1100 18.0051 0.9249
63.1300 17.9917 0.9228
63.1500 17.9784 0.9225
63.1700 17.9650 0.9218
63.1900 17.9517 0.9211
63.2100 17.9383 0.9203
63.2300 17.9250 0.9195
63.2500 17.9116 0.9204
63.2700 17.8983 0.9171
63.2900 17.8850 0.9188
63.3100 17.8717 0.9169
63.3300 17.8583 0.9170
63.3500 17.8450 0.9161
63.3700 17.8317 0.9156
63.3900 17.8184 0.9139
63.4100 17.8050 0.9147
63.4300 17.7917 0.9124
63.4500 17.7784 0.9129
63.4700 17.7651 0.9114
63.4900 17.7517 0.9119
63.5100 17.7384 0.9092
63.5300 17.7250 0.9112
63.5500 17.7117 0.9089
63.5700 17.6984 0.9078
63.5900 17.6850 0.9079
63.6100 17.6716 0.9074
63.6300 17.6583 0.9062
63.6500 17.6450 0.9054
63.6700 17.6316 0.9058
63.6900 17.6183 0.9035
63.7100 17.6049 0.9051
63.7300 17.5916 0.9029
63.7500 17.5784 0.9033
63.7700 17.5650 0.9009
63.7900 17.5517 0.9031
63.8100 17.5383 0.8989
63.8300 17.5250 0.9020
63.8500 17.5117 0.8987
63.8700 17.4984 0.8995
63.8900 17.4850 0.8981
63.9100 17.4717 0.8984
63.9300 17.4583 0.8968
63.9500 17.4450 0.8963
63.9700 17.4316 0.8970
63.9900 17.4183 0.8936
64.0100 17.4050 0.8959
64.0300 17.3917 0.8929
64.0500 17.3783 0.8940
64.0700 17.3650 0.8913
64.0900 17.3517 0.8940
64.1100 17.3383 0.8890
64.1300 17.3250 0.8921
64.1500 17.3117 0.8894
64.1700 17.2983 0.8901
64.1900 17.2850 0.8886
64.2100 17.2717 0.8882
64.2300 17.2584 0.8866
64.2500 17.2450 0.8871
64.2700 17.2317 0.8865
64.2900 17.2184 0.8843
64.3100 17.2050 0.8855
64.3300 17.1916 0.8832
64.3500 17.1783 0.8843
64.3700 17.1650 0.8817
64.3900 17.1516 0.8836
64.4100 17.1383 0.8797
64.4300 17.1249 0.8820
64.4500 17.1116 0.8796
64.4700 17.0983 0.8806
64.4900 17.0850 0.8774
64.5100 17.0716 0.8804
64.5300 17.0583 0.8762
64.5500 17.0451 0.8778
64.5700 17.0317 0.8763
64.5900 17.0184 0.8756
64.6100 17.0050 0.8750
64.6300 16.9917 0.8743
64.6500 16.9784 0.8741
64.6700 16.9650 0.8716
64.6900 16.9517 0.8743
64.7100 16.9383 0.8699
64.7300 16.9250 0.8730
64.7500 16.9116 0.8685
64.7700 16.8983 0.8717
64.7900 16.8849 0.8673
64.8100 16.8716 0.8703
64.8300 16.8583 0.8669
64.8500 16.8450 0.8682
64.8700 16.8317 0.8672
64.8900 16.8183 0.8658
64.9100 16.8051 0.8659
64.9300 16.7918 0.8645
64.9500 16.7784 0.8651
64.9700 16.7650 0.8626
64.9900 16.7517 0.8648
65.0100 16.7384 0.8605
65.0300 16.7250 0.8631
65.0500 16.7116 0.8598
65.0700 16.6983 0.8620
65.0900 16.6850 0.8574
65.1100 16.6716 0.8610
65.1300 16.6583 0.8563
65.1500 16.6449 0.8590
65.1700 16.6316 0.8568
65.1900 16.6183 0.8565
65.2100 16.6050 0.8557
65.2300 16.5917 0.8556
65.2500 16.5783 0.8550
65.2700 16.5650 0.8529
65.2900 16.5517 0.8542
65.3100 16.5383 0.8519
65.3300 16.5250 0.8524
65.3500 16.5117 0.8513
65.3700 16.4984 0.8519
65.3900 16.4850 0.8478
65.4100 16.4716 0.8519
65.4300 16.4583 0.8468
65.4500 16.4450 0.8497
65.4700 16.4317 0.8468
65.4900 16.4183 0.8471
65.5100 16.4050 0.8456
65.5300 16.3916 0.8466
65.5500 16.3783 0.8444
65.5700 16.3650 0.8444
65.5900 16.3517 0.8445
65.6100 16.3383 0.8422
65.6300 16.3250 0.8432
65.6500 16.3117 0.8410
65.6700 16.2983 0.8425
65.6900 16.2850 0.8384
65.7100 16.2717 0.8429
65.7300 16.2584 0.8360
65.7500 16.2451 0.8407
65.7700 16.2317 0.8360
65.7900 16.2183 0.8393
65.8100 16.2050 0.8347
65.8300 16.1916 0.8374
65.8500 16.1783 0.8343
65.8700 16.1649 0.8354
65.8900 16.1516 0.8343
65.9100 16.1383 0.8335
65.9300 16.1250 0.8334
65.9500 16.1116 0.8322
65.9700 16.0983 0.8324
65.9900 16.0850 0.8299
66.0100 16.0717 0.8325
66.0300 16.0584 0.8279
66.0500 16.0450 0.8307
66.0700 16.0317 0.8278
66.0900 16.0184 0.8293
66.1100 16.0050 0.8260
66.1300 15.9917 0.8285
66.1500 15.9783 0.8255
66.1700 15.9650 0.8264
66.1900 15.9517 0.8250
66.2100 15.9383 0.8245
66.2300 15.9249 0.8236
66.2500 15.9116 0.8240
66.2700 15.8983 0.8228
66.2900 15.8850 0.8211
66.3100 15.8716 0.8227
66.3300 15.8583 0.8194
66.3500 15.8450 0.8207
66.3700 15.8318 0.8188
66.3900 15.8184 0.8200
66.4100 15.8050 0.8160
66.4300 15.7917 0.8194
66.4500 15.7784 0.8143
66.4700 15.7651 0.8172
66.4900 15.7517 0.8138
66.5100 15.7383 0.8160
66.5300 15.7249 0.8125
66.5500 15.7116 0.8142
66.5700 15.6983 0.8124
66.5900 15.6849 0.8122
66.6100 15.6716 0.8127
66.6300 15.6583 0.8105
66.6500 15.6450 0.8105
66.6700 15.6317 0.8090
66.6900 15.6183 0.8107
66.7100 15.6050 0.8065
66.7300 15.5917 0.8103
66.7500 15.5784 0.8054
66.7700 15.5650 0.8079
66.7900 15.5517 0.8053
66.8100 15.5384 0.8074
66.8300 15.5250 0.8035
66.8500 15.5117 0.8057
66.8700 15.4983 0.8025
66.8900 15.4849 0.8032
66.9100 15.4716 0.8019
66.9300 15.4583 0.8018
66.9500 15.4449 0.8004
66.9700 15.4316 0.8007
66.9900 15.4183 0.7994
67.0100 15.4050 0.7980
67.0300 15.3917 0.7991
67.0500 15.3783 0.7969
67.0700 15.3651 0.7972
67.0900 15.3518 0.7961
67.1100 15.3384 0.7962
67.1300 15.3250 0.7946
67.1500 15.3116 0.7941
67.1700 15.2983 0.7941
67.1900 15.2850 0.7926
67.2100 15.2716 0.7928
67.2300 15.2583 0.7921
67.2500 15.2450 0.7913
67.2700 15.2316 0.7914
67.2900 15.2183 0.7906
67.3100 15.2049 0.7894
67.3300 15.1916 0.7899
67.3500 15.1783 0.7879
67.3700 15.1650 0.7882
67.3900 15.1517 0.7861
67.4100 15.1383 0.7876
67.4300 15.1250 0.7850
67.4500 15.1117 0.7865
67.4700 15.0984 0.7836
67.4900 15.0850 0.7843
67.5100 15.0717 0.7828
67.5300 15.0584 0.7839
67.5500 15.0450 0.7807
67.5700 15.0317 0.7824
67.5900 15.0183 0.7805
67.6100 15.0049 0.7806
67.6300 14.9916 0.7801
67.6500 14.9783 0.7784
67.6700 14.9649 0.7791
67.6900 14.9516 0.7772
67.7100 14.9383 0.7789
67.7300 14.9250 0.7754
67.7500 14.9116 0.7777
67.7700 14.8983 0.7741
67.7900 14.8850 0.7752
67.8100 14.8717 0.7741
67.8300 14.8584 0.7745
67.8500 14.8451 0.7721
67.8700 14.8317 0.7736
67.8900 14.8184 0.7714
67.9100 14.8051 0.7708
67.9300 14.7917 0.7700
67.9500 14.7783 0.7703
67.9700 14.7649 0.7686
67.9900 14.7516 0.7679
68.0100 14.7383 0.7686
68.0300 14.7249 0.7658
68.0500 14.7116 0.7676
68.0700 14.6983 0.7655
68.0900 14.6850 0.7656
68.1100 14.6717 0.7642
68.1300 14.6583 0.7648
68.1500 14.6450 0.7617
68.1700 14.6317 0.7640
68.1900 14.6184 0.7609
68.2100 14.6051 0.7623
68.2300 14.5917 0.7598
68.2500 14.5784 0.7609
68.2700 14.5650 0.7583
68.2900 14.5516 0.7597
68.3100 14.5383 0.7587
68.3300 14.5249 0.7571
68.3500 14.5116 0.7578
68.3700 14.4983 0.7553
68.3900 14.4849 0.7563
68.4100 14.4716 0.7540
68.4300 14.4583 0.7559
68.4500 14.4450 0.7516
68.4700 14.4317 0.7549
68.4900 14.4183 0.7515
68.5100 14.4050 0.7532
68.5300 14.3917 0.7499
68.5500 14.3784 0.7528
68.5700 14.3651 0.7480
68.5900 14.3517 0.7511
68.6100 14.3384 0.7481
68.6300 14.3250 0.7482
68.6500 14.3117 0.7467
68.6700 14.2983 0.7479
68.6900 14.2849 0.7455
68.7100 14.2716 0.7455
68.7300 14.2583 0.7457
68.7500 14.2449 0.7431
68.7700 14.2316 0.7446
68.7900 14.2183 0.7417
68.8100 14.2050 0.7430
68.8300 14.1917 0.7407
68.8500 14.1783 0.7424
68.8700 14.1650 0.7394
68.8900 14.1517 0.7402
68.9100 14.1384 0.7391
68.9300 14.1250 0.7383
68.9500 14.1117 0.7379
68.9700 14.0983 0.7372
68.9900 14.0850 0.7364
69.0100 14.0717 0.7354
69.0300 14.0583 0.7356
69.0500 14.0450 0.7345
69.0700 14.0317 0.7341
69.0900 14.0183 0.7344
69.1100 14.0050 0.7316
69.1300 13.9916 0.7330
69.1500 13.9783 0.7313
69.1700 13.9650 0.7315
69.1900 13.9517 0.7299
69.2100 13.9383 0.7304
69.2300 13.9250 0.7286
69.2500 13.9117 0.7280
69.2700 13.8984 0.7285
69.2900 13.8850 0.7272
69.3100 13.8717 0.7265
69.3300 13.8583 0.7258
69.3500 13.8450 0.7245
69.3700 13.8317 0.7244
69.3900 13.8183 0.7245
69.4100 13.8050 0.7227
69.4300 13.7916 0.7227
69.4500 13.7783 0.7221
69.4700 13.7650 0.7209
69.4900 13.7516 0.7206
69.5100 13.7383 0.7199
69.5300 13.7250 0.7206
69.5500 13.7116 0.7172
69.5700 13.6983 0.7200
69.5900 13.6850 0.7159
69.6100 13.6717 0.7176
69.6300 13.6584 0.7158
69.6500 13.6450 0.7158
69.6700 13.6317 0.7150
69.6900 13.6184 0.7145
69.7100 13.6050 0.7132
69.7300 13.5917 0.7132
69.7500 13.5783 0.7132
69.7700 13.5650 0.7104
69.7900 13.5516 0.7120
69.8100 13.5383 0.7088
69.8300 13.5250 0.7112
69.8500 13.5116 0.7074
69.8700 13.4983 0.7105
69.8900 13.4850 0.7063
69.9100 13.4717 0.7081
69.9300 13.4583 0.7062
69.9500 13.4450 0.7061
69.9700 13.4317 0.7048
69.9900 13.4184 0.7047
70.0100 13.4050 0.7037
70.0300 13.3917 0.7031
70.0500 13.3783 0.7034
70.0700 13.3650 0.7009
70.0900 13.3517 0.7018
70.1100 13.3383 0.6998
70.1300 13.3249 0.7014
70.1500 13.3116 0.6977
70.1700 13.2983 0.7005
70.1900 13.2850 0.6968
70.2100 13.2716 0.6983
70.2300 13.2583 0.6965
70.2500 13.2450 0.6968
70.2700 13.2317 0.6952
70.2900 13.2184 0.6955
70.3100 13.2051 0.6931
70.3300 13.1917 0.6940
70.3500 13.1784 0.6931
70.3700 13.1650 0.6924
70.3900 13.1517 0.6916
70.4100 13.1383 0.6904
70.4300 13.1250 0.6909
70.4500 13.1117 0.6879
70.4700 13.0983 0.6915
70.4900 13.0849 0.6871
70.5100 13.0716 0.6894
70.5300 13.0583 0.6860
70.5500 13.0450 0.6879
70.5700 13.0316 0.6848
70.5900 13.0183 0.6875
70.6100 13.0050 0.6835
70.6300 12.9917 0.6846
70.6500 12.9783 0.6830
70.6700 12.9650 0.6838
70.6900 12.9517 0.6812
70.7100 12.9384 0.6824
70.7300 12.9250 0.6805
70.7500 12.9117 0.6807
70.7700 12.8983 0.6795
70.7900 12.8850 0.6793
70.8100 12.8717 0.6782
70.8300 12.8583 0.6783
70.8500 12.8450 0.6769
70.8700 12.8316 0.6756
70.8900 12.8183 0.6771
70.9100 12.8050 0.6744
70.9300 12.7916 0.6749
70.9500 12.7783 0.6739
70.9700 12.7650 0.6734
70.9900 12.7517 0.6715
71.0100 12.7383 0.6726
71.0300 12.7250 0.6709
71.0500 12.7117 0.6705
71.0700 12.6984 0.6703
71.0900 12.6850 0.6688
71.1100 12.6716 0.6685
71.1300 12.6583 0.6680
71.1500 12.6450 0.6685
71.1700 12.6317 0.6645
71.1900 12.6183 0.6676
71.2100 12.6050 0.6638
71.2300 12.5916 0.6660
71.2500 12.5783 0.6626
71.2700 12.5650 0.6650
71.2900 12.5516 0.6614
71.3100 12.5383 0.6632
71.3300 12.5250 0.6607
71.3500 12.5117 0.6611
71.3700 12.4983 0.6603
71.3900 12.4850 0.6595
71.4100 12.4717 0.6589
71.4300 12.4584 0.6575
71.4500 12.4450 0.6589
71.4700 12.4317 0.6542
71.4900 12.4184 0.6588
71.5100 12.4051 0.6534
71.5300 12.3917 0.6564
71.5500 12.3784 0.6516
71.5700 12.3650 0.6552
71.5900 12.3516 0.6509
71.6100 12.3383 0.6532
71.6300 12.3250 0.6504
71.6500 12.3116 0.6519
71.6700 12.2983 0.6500
71.6900 12.2850 0.6501
71.7100 12.2717 0.6481
71.7300 12.2583 0.6484
71.7500 12.2450 0.6486
71.7700 12.2317 0.6456
71.7900 12.2184 0.6479
71.8100 12.2051 0.6445
71.8300 12.1917 0.6460
71.8500 12.1783 0.6437
71.8700 12.1650 0.6449
71.8900 12.1517 0.6421
71.9100 12.1383 0.6439
71.9300 12.1250 0.6412
71.9500 12.1116 0.6423
71.9700 12.0983 0.6396
71.9900 12.0849 0.6418
72.0100 12.0716 0.6385
72.0300 12.0583 0.6402
72.0500 12.0450 0.6378
72.0700 12.0317 0.6376
72.0900 12.0183 0.6378
72.1100 12.0050 0.6367
72.1300 11.9917 0.6365
72.1500 11.9784 0.6337
72.1700 11.9651 0.6367
72.1900 11.9517 0.6316
72.2100 11.9383 0.6357
72.2300 11.9250 0.6304
72.2500 11.9117 0.6336
72.2700 11.8983 0.6282
72.2900 11.8850 0.6332
72.3100 11.8716 0.6270
72.3300 11.8583 0.6310
72.3500 11.8450 0.6270
72.3700 11.8316 0.6282
72.3900 11.8183 0.6273
72.4100 11.8050 0.6262
72.4300 11.7917 0.6263
72.4500 11.7783 0.6248
72.4700 11.7650 0.6257
72.4900 11.7517 0.6222
72.5100 11.7384 0.6244
72.5300 11.7250 0.6217
72.5500 11.7117 0.6232
72.5700 11.6983 0.6207
72.5900 11.6851 0.6220
72.6100 11.6717 0.6186
72.6300 11.6583 0.6200
72.6500 11.6450 0.6178
72.6700 11.6317 0.6187
72.6900 11.6184 0.6166
72.7100 11.6050 0.6173
72.7300 11.5917 0.6151
72.7500 11.5783 0.6156
72.7700 11.5650 0.6148
72.7900 11.5517 0.6141
72.8100 11.5384 0.6125
72.8300 11.5250 0.6134
72.8500 11.5117 0.6114
72.8700 11.4984 0.6108
72.8900 11.4850 0.6111
72.9100 11.4717 0.6083
72.9300 11.4583 0.6102
72.9500 11.4450 0.6072
72.9700 11.4317 0.6085
72.9900 11.4184 0.6055
73.0100 11.4050 0.6078
73.0300 11.3916 0.6045
73.0500 11.3783 0.6055
73.0700 11.3650 0.6038
73.0900 11.3516 0.6039
73.1100 11.3383 0.6024
73.1300 11.3250 0.6032
73.1500 11.3116 0.6010
73.1700 11.2983 0.6009
73.1900 11.2850 0.6014
73.2100 11.2717 0.5985
73.2300 11.2584 0.5999
73.2500 11.2451 0.5978
73.2700 11.2317 0.5990
73.2900 11.2183 0.5956
73.3100 11.2050 0.5979
73.3300 11.1917 0.5944
73.3500 11.1783 0.5957
73.3700 11.1650 0.5947
73.3900 11.1516 0.5941
73.4100 11.1383 0.5929
73.4300 11.1250 0.5926
73.4500 11.1116 0.5924
73.4700 11.0983 0.5905
73.4900 11.0849 0.5919
73.5100 11.0716 0.5887
73.5300 11.0583 0.5896
73.5500 11.0450 0.5881
73.5700 11.0317 0.5890
73.5900 11.0184 0.5863
73.6100 11.0051 0.5878
73.6300 10.9917 0.5849
73.6500 10.9783 0.5859
73.6700 10.9650 0.5842
73.6900 10.9517 0.5838
73.7100 10.9384 0.5828
73.7300 10.9250 0.5830
73.7500 10.9116 0.5814
73.7700 10.8983 0.5820
73.7900 10.8850 0.5798
73.8100 10.8716 0.5806
73.8300 10.8583 0.5787
73.8500 10.8450 0.5787
73.8700 10.8317 0.5781
73.8900 10.8184 0.5765
73.9100 10.8050 0.5777
73.9300 10.7917 0.5747
73.9500 10.7784 0.5762
73.9700 10.7651 0.5731
73.9900 10.7517 0.5757
74.0100 10.7384 0.5708
74.0300 10.7250 0.5746
74.0500 10.7117 0.5701
74.0700 10.6984 0.5726
74.0900 10.6850 0.5696
74.1100 10.6716 0.5715
74.1300 10.6583 0.5684
74.1500 10.6450 0.5688
74.1700 10.6316 0.5684
74.1900 10.6183 0.5664
74.2100 10.6050 0.5682
74.2300 10.5917 0.5640
74.2500 10.5783 0.5670
74.2700 10.5650 0.5624
74.2900 10.5517 0.5664
74.3100 10.5384 0.5609
74.3300 10.5251 0.5643
74.3500 10.5117 0.5602
74.3700 10.4983 0.5620
74.3900 10.4850 0.5596
74.4100 10.4717 0.5607
74.4300 10.4583 0.5580
74.4500 10.4450 0.5594
74.4700 10.4316 0.5565
74.4900 10.4183 0.5579
74.5100 10.4050 0.5555
74.5300 10.3917 0.5560
74.5500 10.3783 0.5545
74.5700 10.3650 0.5543
74.5900 10.3517 0.5534
74.6100 10.3383 0.5526
74.6300 10.3250 0.5525
74.6500 10.3117 0.5515
74.6700 10.2984 0.5504
74.6900 10.2851 0.5499
74.7100 10.2717 0.5505
74.7300 10.2583 0.5473
74.7500 10.2450 0.5493
74.7700 10.2317 0.5466
74.7900 10.2183 0.5477
74.8100 10.2050 0.5453
74.8300 10.1916 0.5463
74.8500 10.1783 0.5439
74.8700 10.1650 0.5440
74.8900 10.1516 0.5439
74.9100 10.1383 0.5419
74.9300 10.1249 0.5432
74.9500 10.1116 0.5402
74.9700 10.0983 0.5410
74.9900 10.0850 0.5395
75.0100 10.0717 0.5399
75.0300 10.0584 0.5373
75.0500 10.0450 0.5386
75.0700 10.0317 0.5365
75.0900 10.0184 0.5367
75.1100 10.0051 0.5354
75.1300 9.9917 0.5353
75.1500 9.9784 0.5338
75.1700 9.9650 0.5337
75.1900 9.9516 0.5328
75.2100 9.9383 0.5314
75.2300 9.9250 0.5322
75.2500 9.9116 0.5301
75.2700 9.8982 0.5304
75.2900 9.8849 0.5291
75.3100 9.8716 0.5289
75.3300 9.8583 0.5275
75.3500 9.8450 0.5275
75.3700 9.8317 0.5265
75.3900 9.8184 0.5260
75.4100 9.8051 0.5250
75.4300 9.7917 0.5259
75.4500 9.7783 0.5236
75.4700 9.7650 0.5246
75.4900 9.7517 0.5227
75.5100 9.7384 0.5219
75.5300 9.7250 0.5210
75.5500 9.7116 0.5211
75.5700 9.6983 0.5200
75.5900 9.6850 0.5185
75.6100 9.6716 0.5191
75.6300 9.6583 0.5170
75.6500 9.6450 0.5182
75.6700 9.6317 0.5151
75.6900 9.6184 0.5170
75.7100 9.6050 0.5135
75.7300 9.5917 0.5163
75.7500 9.5784 0.5116
75.7700 9.5651 0.5145
75.7900 9.5517 0.5111
75.8100 9.5384 0.5120
75.8300 9.5250 0.5107
75.8500 9.5117 0.5103
75.8700 9.4984 0.5093
75.8900 9.4850 0.5072
75.9100 9.4716 0.5102
75.9300 9.4583 0.5056
75.9500 9.4450 0.5087
75.9700 9.4316 0.5035
75.9900 9.4183 0.5072
76.0100 9.4050 0.5022
76.0300 9.3917 0.5067
76.0500 9.3784 0.5012
76.0700 9.3650 0.5039
76.0900 9.3517 0.5004
76.1100 9.3384 0.5013
76.1300 9.3251 0.4996
76.1500 9.3117 0.4999
76.1700 9.2984 0.4989
76.1900 9.2850 0.4967
76.2100 9.2717 0.4980
76.2300 9.2583 0.4953
76.2500 9.2450 0.4964
76.2700 9.2316 0.4952
76.2900 9.2183 0.4944
76.3100 9.2050 0.4933
76.3300 9.1916 0.4937
76.3500 9.1783 0.4915
76.3700 9.1649 0.4919
76.3900 9.1516 0.4904
76.4100 9.1383 0.4910
76.4300 9.1250 0.4887
76.4500 9.1116 0.4901
76.4700 9.0983 0.4874
76.4900 9.0850 0.4880
76.5100 9.0717 0.4863
76.5300 9.0583 0.4863
76.5500 9.0450 0.4860
76.5700 9.0317 0.4851
76.5900 9.0184 0.4841
76.6100 9.0050 0.4829
76.6300 8.9916 0.4839
76.6500 8.9783 0.4804
76.6700 8.9650 0.4826
76.6900 8.9516 0.4786
76.7100 8.9383 0.4815
76.7300 8.9250 0.4771
76.7500 8.9117 0.4800
76.7700 8.8983 0.4760
76.7900 8.8850 0.4779
76.8100 8.8716 0.4753
76.8300 8.8583 0.4759
76.8500 8.8450 0.4742
76.8700 8.8317 0.4740
76.8900 8.8184 0.4740
76.9100 8.8050 0.4723
76.9300 8.7917 0.4732
76.9500 8.7784 0.4701
76.9700 8.7650 0.4714
76.9900 8.7516 0.4697
77.0100 8.7383 0.4702
77.0300 8.7250 0.4677
77.0500 8.7116 0.4699
77.0700 8.6983 0.4664
77.0900 8.6849 0.4677
77.1100 8.6717 0.4660
77.1300 8.6584 0.4658
77.1500 8.6450 0.4645
77.1700 8.6317 0.4646
77.1900 8.6183 0.4629
77.2100 8.6051 0.4621
77.2300 8.5917 0.4620
77.2500 8.5783 0.4609
77.2700 8.5650 0.4602
77.2900 8.5517 0.4587
77.3100 8.5384 0.4582
77.3300 8.5250 0.4564
77.3500 8.5116 0.4582
77.3700 8.4983 0.4547
77.3900 8.4850 0.4565
77.4100 8.4717 0.4534
77.4300 8.4583 0.4547
77.4500 8.4450 0.4516
77.4700 8.4316 0.4535
77.4900 8.4183 0.4512
77.5100 8.4050 0.4502
77.5300 8.3917 0.4503
77.5500 8.3784 0.4497
77.5700 8.3651 0.4491
77.5900 8.3518 0.4483
77.6100 8.3384 0.4482
77.6300 8.3250 0.4450
77.6500 8.3117 0.4474
77.6700 8.2983 0.4429
77.6900 8.2850 0.4467
77.7100 8.2716 0.4416
77.7300 8.2583 0.4448
77.7500 8.2450 0.4393
77.7700 8.2317 0.4437
77.7900 8.2183 0.4394
77.8100 8.2050 0.4407
77.8300 8.1917 0.4387
77.8500 8.1783 0.4388
77.8700 8.1650 0.4371
77.8900 8.1517 0.4380
77.9100 8.1383 0.4366
77.9300 8.1250 0.4352
77.9500 8.1117 0.4353
77.9700 8.0984 0.4331
77.9900 8.0850 0.4342
78.0100 8.0717 0.4317
78.0300 8.0584 0.4328
78.0500 8.0450 0.4294
78.0700 8.0316 0.4311
78.0900 8.0183 0.4289
78.1100 8.0050 0.4296
78.1300 7.9917 0.4284
78.1500 7.9783 0.4289
78.1700 7.9649 0.4260
78.1900 7.9517 0.4274
78.2100 7.9384 0.4248
78.2300 7.9250 0.4259
78.2500 7.9117 0.4234
78.2700 7.8983 0.4248
78.2900 7.8850 0.4214
78.3100 7.8717 0.4226
78.3300 7.8583 0.4217
78.3500 7.8450 0.4202
78.3700 7.8317 0.4198
78.3900 7.8184 0.4181
78.4100 7.8050 0.4187
78.4300 7.7917 0.4164
78.4500 7.7783 0.4186
78.4700 7.7650 0.4143
78.4900 7.7517 0.4174
78.5100 7.7383 0.4131
78.5300 7.7250 0.4154
78.5500 7.7117 0.4119
78.5700 7.6983 0.4137
78.5900 7.6850 0.4098
78.6100 7.6717 0.4118
78.6300 7.6583 0.4101
78.6500 7.6450 0.4089
78.6700 7.6317 0.4093
78.6900 7.6184 0.4065
78.7100 7.6050 0.4087
78.7300 7.5917 0.4050
78.7500 7.5784 0.4078
78.7700 7.5650 0.4034
78.7900 7.5517 0.4061
78.8100 7.5383 0.4031
78.8300 7.5250 0.4041
78.8500 7.5116 0.4015
78.8700 7.4983 0.4024
78.8900 7.4849 0.3992
78.9100 7.4716 0.4011
78.9300 7.4583 0.3979
78.9500 7.4450 0.3985
78.9700 7.4317 0.3966
78.9900 7.4183 0.3969
79.0100 7.4051 0.3952
79.0300 7.3918 0.3951
79.0500 7.3784 0.3940
79.0700 7.3650 0.3935
79.0900 7.3517 0.3925
79.1100 7.3383 0.3918
79.1300 7.3250 0.3910
79.1500 7.3116 0.3896
79.1700 7.2983 0.3905
79.1900 7.2849 0.3869
79.2100 7.2716 0.3899
79.2300 7.2583 0.3866
79.2500 7.2449 0.3883
79.2700 7.2316 0.3853
79.2900 7.2183 0.3856
79.3100 7.2050 0.3840
79.3300 7.1917 0.3834
79.3500 7.1783 0.3837
79.3700 7.1651 0.3805
79.3900 7.1517 0.3820
79.4100 7.1384 0.3790
79.4300 7.1250 0.3810
79.4500 7.1117 0.3771
79.4700 7.0984 0.3792
79.4900 7.0850 0.3749
79.5100 7.0717 0.3777
79.5300 7.0583 0.3745
79.5500 7.0450 0.3756
79.5700 7.0317 0.3732
79.5900 7.0183 0.3741
79.6100 7.0050 0.3716
79.6300 6.9916 0.3720
79.6500 6.9783 0.3719
79.6700 6.9650 0.3695
79.6900 6.9517 0.3705
79.7100 6.9383 0.3687
79.7300 6.9250 0.3691
79.7500 6.9117 0.3663
79.7700 6.8984 0.3694
79.7900 6.8850 0.3643
79.8100 6.8717 0.3674
79.8300 6.8584 0.3627
79.8500 6.8451 0.3651
79.8700 6.8317 0.3612
79.8900 6.8183 0.3648
79.9100 6.8050 0.3599
79.9300 6.7917 0.3612
79.9500 6.7784 0.3598
79.9700 6.7650 0.3587
79.9900 6.7516 0.3587
80.0100 6.7383 0.3571
80.0300 6.7250 0.3572
80.0500 6.7117 0.3547
80.0700 6.6983 0.3564
80.0900 6.6850 0.3536
80.1100 6.6717 0.3545
80.1300 6.6584 0.3524
80.1500 6.6450 0.3528
80.1700 6.6317 0.3505
80.1900 6.6184 0.3523
80.2100 6.6050 0.3498
80.2300 6.5917 0.3501
80.2500 6.5783 0.3492
80.2700 6.5650 0.3477
80.2900 6.5517 0.3472
80.3100 6.5383 0.3462
80.3300 6.5249 0.3467
80.3500 6.5116 0.3437
80.3700 6.4983 0.3449
80.3900 6.4850 0.3416
80.4100 6.4716 0.3437
80.4300 6.4583 0.3405
80.4500 6.4450 0.3424
80.4700 6.4317 0.3373
80.4900 6.4184 0.3413
80.5100 6.4050 0.3365
80.5300 6.3917 0.3389
80.5500 6.3784 0.3365
80.5700 6.3650 0.3370
80.5900 6.3517 0.3343
80.6100 6.3383 0.3354
80.6300 6.3250 0.3339
80.6500 6.3117 0.3326
80.6700 6.2983 0.3341
80.6900 6.2850 0.3313
80.7100 6.2716 0.3318
80.7300 6.2583 0.3298
80.7500 6.2450 0.3310
80.7700 6.2316 0.3272
80.7900 6.2183 0.3298
80.8100 6.2050 0.3265
80.8300 6.1917 0.3266
80.8500 6.1784 0.3249
80.8700 6.1650 0.3253
80.8900 6.1517 0.3234
80.9100 6.1384 0.3232
80.9300 6.1251 0.3222
80.9500 6.1117 0.3215
80.9700 6.0983 0.3217
80.9900 6.0850 0.3201
81.0100 6.0716 0.3191
81.0300 6.0583 0.3188
81.0500 6.0449 0.3184
81.0700 6.0316 0.3176
81.0900 6.0183 0.3171
81.1100 6.0050 0.3161
81.1300 5.9917 0.3156
81.1500 5.9783 0.3147
81.1700 5.9650 0.3156
81.1900 5.9517 0.3126
81.2100 5.9384 0.3140
81.2300 5.9250 0.3106
81.2500 5.9117 0.3114
81.2700 5.8984 0.3102
81.2900 5.8850 0.3095
81.3100 5.8717 0.3077
81.3300 5.8583 0.3080
81.3500 5.8449 0.3072
81.3700 5.8316 0.3052
81.3900 5.8183 0.3064
81.4100 5.8050 0.3033
81.4300 5.7916 0.3046
81.4500 5.7783 0.3017
81.4700 5.7650 0.3031
81.4900 5.7516 0.2997
81.5100 5.7383 0.3023
81.5300 5.7250 0.2994
81.5500 5.7117 0.2987
81.5700 5.6984 0.2984
81.5900 5.6850 0.2977
81.6100 5.6716 0.2971
81.6300 5.6583 0.2961
81.6500 5.6450 0.2968
81.6700 5.6316 0.2943
81.6900 5.6183 0.2951
81.7100 5.6049 0.2932
81.7300 5.5916 0.2922
81.7500 5.5783 0.2915
81.7700 5.5650 0.2917
81.7900 5.5516 0.2885
81.8100 5.5383 0.2911
81.8300 5.5250 0.2875
81.8500 5.5117 0.2877
81.8700 5.4983 0.2866
81.8900 5.4850 0.2866
81.9100 5.4717 0.2839
81.9300 5.4584 0.2853
81.9500 5.4450 0.2825
81.9700 5.4317 0.2828
81.9900 5.4183 0.2815
82.0100 5.4050 0.2818
82.0300 5.3917 0.2804
82.0500 5.3783 0.2807
82.0700 5.3650 0.2806
82.0900 5.3517 0.2776
82.1100 5.3383 0.2794
82.1300 5.3250 0.2762
82.1500 5.3116 0.2767
82.1700 5.2983 0.2746
82.1900 5.2850 0.2752
82.2100 5.2716 0.2725
82.2300 5.2583 0.2743
82.2500 5.2450 0.2717
82.2700 5.2317 0.2712
82.2900 5.2184 0.2704
82.3100 5.2050 0.2706
82.3300 5.1917 0.2678
82.3500 5.1784 0.2690
82.3700 5.1651 0.2671
82.3900 5.1517 0.2658
82.4100 5.1383 0.2666
82.4300 5.1250 0.2653
82.4500 5.1116 0.2647
82.4700 5.0983 0.2639
82.4900 5.0849 0.2648
82.5100 5.0716 0.2616
82.5300 5.0583 0.2633
82.5500 5.0450 0.2605
82.5700 5.0317 0.2602
82.5900 5.0183 0.2588
82.6100 5.0050 0.2601
82.6300 4.9917 0.2564
82.6500 4.9784 0.2580
82.6700 4.9651 0.2557
82.6900 4.9517 0.2553
82.7100 4.9383 0.2544
82.7300 4.9250 0.2543
82.7500 4.9117 0.2521
82.7700 4.8983 0.2521
82.7900 4.8849 0.2517
82.8100 4.8716 0.2498
82.8300 4.8583 0.2510
82.8500 4.8449 0.2487
82.8700 4.8316 0.2497
82.8900 4.8183 0.2475
82.9100 4.8050 0.2485
82.9300 4.7917 0.2445
82.9500 4.7783 0.2474
82.9700 4.7650 0.2436
82.9900 4.7517 0.2440
83.0100 4.7384 0.2422
83.0300 4.7251 0.2429
83.0500 4.7117 0.2408
83.0700 4.6984 0.2401
83.0900 4.6850 0.2401
83.1100 4.6716 0.2379
83.1300 4.6582 0.2383
83.1500 4.6449 0.2368
83.1700 4.6316 0.2368
83.1900 4.6183 0.2344
83.2100 4.6049 0.2364
83.2300 4.5916 0.2330
83.2500 4.5783 0.2348
83.2700 4.5650 0.2331
83.2900 4.5517 0.2330
83.3100 4.5383 0.2313
83.3300 4.5250 0.2314
83.3500 4.5117 0.2287
83.3700 4.4984 0.2289
83.3900 4.4851 0.2285
83.4100 4.4717 0.2258
83.4300 4.4583 0.2276
83.4500 4.4450 0.2250
83.4700 4.4317 0.2251
83.4900 4.4183 0.2232
83.5100 4.4050 0.2251
83.5300 4.3917 0.2210
83.5500 4.3784 0.2228
83.5700 4.3650 0.2199
83.5900 4.3516 0.2214
83.6100 4.3383 0.2195
83.6300 4.3250 0.2204
83.6500 4.3117 0.2185
83.6700 4.2983 0.2178
83.6900 4.2850 0.2175
83.7100 4.2717 0.2151
83.7300 4.2584 0.2164
83.7500 4.2451 0.2139
83.7700 4.2317 0.2141
83.7900 4.2183 0.2114
83.8100 4.2050 0.2133
83.8300 4.1917 0.2103
83.8500 4.1783 0.2111
83.8700 4.1650 0.2096
83.8900 4.1516 0.2092
83.9100 4.1383 0.2066
83.9300 4.1250 0.2091
83.9500 4.1116 0.2051
83.9700 4.0983 0.2086
83.9900 4.0850 0.2055
84.0100 4.0716 0.2060
84.0300 4.0583 0.2040
84.0500 4.0450 0.2039
84.0700 4.0317 0.2027
84.0900 4.0184 0.2007
84.1100 4.0050 0.2021
84.1300 3.9917 0.1988
84.1500 3.9783 0.1999
84.1700 3.9650 0.1973
84.1900 3.9517 0.1986
84.2100 3.9383 0.1956
84.2300 3.9250 0.1978
84.2500 3.9116 0.1937
84.2700 3.8983 0.1953
84.2900 3.8850 0.1934
84.3100 3.8716 0.1930
84.3300 3.8583 0.1924
84.3500 3.8450 0.1919
84.3700 3.8317 0.1918
84.3900 3.8183 0.1896
84.4100 3.8050 0.1915
84.4300 3.7917 0.1877
84.4500 3.7784 0.1893
84.4700 3.7650 0.1875
84.4900 3.7517 0.1874
84.5100 3.7383 0.1850
84.5300 3.7250 0.1869
84.5500 3.7117 0.1832
84.5700 3.6983 0.1855
84.5900 3.6849 0.1836
84.6100 3.6716 0.1830
84.6300 3.6583 0.1808
84.6500 3.6450 0.1815
84.6700 3.6316 0.1799
84.6900 3.6183 0.1787
84.7100 3.6050 0.1792
84.7300 3.5917 0.1764
84.7500 3.5784 0.1776
84.7700 3.5650 0.1752
84.7900 3.5517 0.1760
84.8100 3.5384 0.1727
84.8300 3.5251 0.1759
84.8500 3.5117 0.1722
84.8700 3.4983 0.1737
84.8900 3.4850 0.1711
84.9100 3.4716 0.1710
84.9300 3.4583 0.1686
84.9500 3.4449 0.1696
84.9700 3.4316 0.1669
84.9900 3.4183 0.1666
85.0100 3.4050 0.1666
85.0300 3.3916 0.1649
85.0500 3.3783 0.1650
85.0700 3.3650 0.1633
85.0900 3.3517 0.1642
85.1100 3.3383 0.1610
85.1300 3.3250 0.1634
85.1500 3.3117 0.1596
85.1700 3.2984 0.1609
85.1900 3.2850 0.1583
85.2100 3.2717 0.1601
85.2300 3.2583 0.1555
85.2500 3.2450 0.1580
85.2700 3.2317 0.1536
85.2900 3.2184 0.1551
85.3100 3.2050 0.1540
85.3300 3.1917 0.1530
85.3500 3.1783 0.1521
85.3700 3.1650 0.1512
85.3900 3.1516 0.1519
85.4100 3.1383 0.1475
85.4300 3.1250 0.1511
85.4500 3.1117 0.1464
85.4700 3.0984 0.1482
85.4900 3.0850 0.1457
85.5100 3.0717 0.1473
85.5300 3.0584 0.1432
85.5500 3.0450 0.1452
85.5700 3.0317 0.1419
85.5900 3.0183 0.1426
85.6100 3.0050 0.1406
85.6300 2.9917 0.1407
85.6500 2.9783 0.1389
85.6700 2.9650 0.1390
85.6900 2.9516 0.1384
85.7100 2.9383 0.1358
85.7300 2.9250 0.1369
85.7500 2.9116 0.1346
85.7700 2.8983 0.1344
85.7900 2.8850 0.1335
85.8100 2.8717 0.1340
85.8300 2.8583 0.1313
85.8500 2.8450 0.1330
85.8700 2.8317 0.1289
85.8900 2.8184 0.1304
85.9100 2.8051 0.1267
85.9300 2.7917 0.1289
85.9500 2.7784 0.1253
85.9700 2.7650 0.1274
85.9900 2.7517 0.1246
86.0100 2.7383 0.1241
86.0300 2.7250 0.1235
86.0500 2.7116 0.1221
86.0700 2.6983 0.1220
86.0900 2.6850 0.1209
86.1100 2.6716 0.1208
86.1300 2.6583 0.1179
86.1500 2.6450 0.1196
86.1700 2.6317 0.1155
86.1900 2.6183 0.1175
86.2100 2.6050 0.1142
86.2300 2.5917 0.1165
86.2500 2.5784 0.1123
86.2700 2.5651 0.1143
86.2900 2.5517 0.1122
86.3100 2.5383 0.1112
86.3300 2.5250 0.1113
86.3500 2.5117 0.1082
86.3700 2.4984 0.1091
86.3900 2.4850 0.1066
86.4100 2.4716 0.1084
86.4300 2.4583 0.1043
86.4500 2.4449 0.1077
86.4700 2.4316 0.1030
86.4900 2.4183 0.1043
86.5100 2.4050 0.1002
86.5300 2.3917 0.1036
86.5500 2.3783 0.0986
86.5700 2.3650 0.1021
86.5900 2.3517 0.0986
86.6100 2.3384 0.0988
86.6300 2.3251 0.0973
86.6500 2.3117 0.0966
86.6700 2.2983 0.0949
86.6900 2.2850 0.0944
86.7100 2.2717 0.0947
86.7300 2.2584 0.0921
86.7500 2.2450 0.0936
86.7700 2.2316 0.0903
86.7900 2.2183 0.0914
86.8100 2.2050 0.0869
86.8300 2.1916 0.0909
86.8500 2.1783 0.0849
86.8700 2.1650 0.0892
86.8900 2.1517 0.0840
86.9100 2.1383 0.0868
86.9300 2.1250 0.0832
86.9500 2.1117 0.0845
86.9700 2.0984 0.0817
86.9900 2.0850 0.0822
87.0100 2.0717 0.0818
87.0300 2.0583 0.0793
87.0500 2.0450 0.0796
87.0700 2.0317 0.0775
87.0900 2.0183 0.0774
87.1100 2.0050 0.0752
87.1300 1.9916 0.0779
87.1500 1.9784 0.0727
87.1700 1.9650 0.0759
87.1900 1.9517 0.0715
87.2100 1.9383 0.0735
87.2300 1.9250 0.0703
87.2500 1.9117 0.0717
87.2700 1.8983 0.0688
87.2900 1.8850 0.0691
87.3100 1.8716 0.0690
87.3300 1.8583 0.0661
87.3500 1.8450 0.0671
87.3700 1.8317 0.0653
87.3900 1.8183 0.0652
87.4100 1.8050 0.0620
87.4300 1.7917 0.0650
87.4500 1.7784 0.0598
87.4700 1.7650 0.0637
87.4900 1.7516 0.0600
87.5100 1.7383 0.0628
87.5300 1.7250 0.0624
87.5500 1.7116 0.0645
87.5700 1.6983 0.0629
87.5900 1.6850 0.0623
87.6100 1.6717 0.0620
87.6300 1.6583 0.0590
87.6500 1.6450 0.0606
87.6700 1.6317 0.0581
87.6900 1.6184 0.0580
87.7100 1.6051 0.0556
87.7300 1.5917 0.0567
87.7500 1.5784 0.0537
87.7700 1.5650 0.0537
87.7900 1.5517 0.0529
87.8100 1.5384 0.0514
87.8300 1.5250 0.0500
87.8500 1.5116 0.0504
87.8700 1.4983 0.0477
87.8900 1.4850 0.0480
87.9100 1.4716 0.0467
87.9300 1.4583 0.0460
87.9500 1.4449 0.0454
87.9700 1.4316 0.0441
87.9900 1.4183 0.0441
88.0100 1.4050 0.0416
88.0300 1.3916 0.0432
88.0500 1.3784 0.0389
88.0700 1.3651 0.0402
88.0900 1.3518 0.0371
88.1100 1.3384 0.0390
88.1300 1.3250 0.0346
88.1500 1.3117 0.0378
88.1700 1.2984 0.0319
88.1900 1.2850 0.0344
88.2100 1.2716 0.0315
88.2300 1.2583 0.0316
88.2500 1.2450 0.0299
88.2700 1.2316 0.0290
88.2900 1.2183 0.0295
88.3100 1.2049 0.0258
88.3300 1.1916 0.0279
88.3500 1.1783 0.0238
88.3700 1.1650 0.0256
88.3900 1.1517 0.0229
88.4100 1.1384 0.0225
88.4300 1.1251 0.0198
88.4500 1.1117 0.0217
88.4700 1.0983 0.0178
88.4900 1.0850 0.0194
88.5100 1.0717 0.0160
88.5300 1.0583 0.0166
88.5500 1.0450 0.0136
88.5700 1.0316 0.0153
88.5900 1.0183 0.0125
88.6100 1.0050 0.0122
88.6300 0.9917 0.0112
88.6500 0.9783 0.0096
88.6700 0.9650 0.0081
88.6900 0.9517 0.0087
88.7100 0.9383 0.0063
88.7300 0.9250 0.0055
88.7500 0.9117 0.0054
88.7700 0.8984 0.0029
88.7900 0.8851 0.0028
88.8100 0.8717 0.0011
88.8300 0.8583 0.0015
88.8500 0.8450 -0.0016
88.8700 0.8317 -0.0004
88.8900 0.8183 -0.0033
88.9100 0.8050 -0.0036
88.9300 0.7916 -0.0032
88.9500 0.7783 -0.0056
88.9700 0.7650 -0.0058
88.9900 0.7517 -0.0070
89.0100 0.7383 -0.0074
89.0300 0.7250 -0.0101
89.0500 0.7117 -0.0082
89.0700 0.6983 -0.0119
89.0900 0.6850 -0.0098
89.1100 0.6717 -0.0134
89.1300 0.6584 -0.0114
89.1500 0.6451 -0.0154
89.1700 0.6317 -0.0129
89.1900 0.6184 -0.0168
89.2100 0.6050 -0.0160
89.2300 0.5917 -0.0159
89.2500 0.5783 -0.0180
89.2700 0.5650 -0.0180
89.2900 0.5516 -0.0181
89.3100 0.5383 -0.0183
89.3300 0.5250 -0.0207
89.3500 0.5116 -0.0174
89.3700 0.4983 -0.0217
89.3900 0.4849 -0.0191
89.4100 0.4716 -0.0220
89.4300 0.4583 -0.0196
89.4500 0.4450 -0.0237
89.4700 0.4316 -0.0199
89.4900 0.4184 -0.0241
89.5100 0.4051 -0.0223
89.5300 0.3917 -0.0227
89.5500 0.3784 -0.0224
89.5700 0.3651 -0.0229
89.5900 0.3518 -0.0218
89.6100 0.3384 -0.0220
89.6300 0.3250 -0.0229
89.6500 0.3116 -0.0215
89.6700 0.2983 -0.0232
89.6900 0.2850 -0.0218
89.7100 0.2716 -0.0228
89.7300 0.2582 -0.0213
89.7500 0.2449 -0.0239
89.7700 0.2316 -0.0207
89.7900 0.2183 -0.0233
89.8100 0.2050 -0.0214
89.8300 0.1916 -0.0227
89.8500 0.1784 -0.0209
89.8700 0.1651 -0.0240
89.8900 0.1517 -0.0205
89.9100 0.1383 -0.0228
89.9300 0.1250 -0.0224
89.9500 0.1117 -0.0217
89.9700 0.0984 -0.0230
89.9900 0.0850 -0.0228
90.0100 0.0716 -0.0221
90.0300 0.0583 -0.0217
90.0500 0.0450 -0.0237
90.0700 0.0316 -0.0211
90.0900 0.0183 -0.0235
90.1100 0.0049 -0.0198
90.1180 -0.0003 -0.0176
