Raw Data
Time Displacement Force
(s) (mm) (N)
0.0000 0.0000 -0.0346
0.0200 0.0001 -0.0291
0.0400 0.0018 -0.0234
0.0600 0.0089 -0.0199
0.0800 0.0205 -0.0358
0.1000 0.0329 -0.0308
0.1200 0.0455 -0.0344
0.1400 0.0588 -0.0292
0.1600 0.0729 -0.0355
0.1800 0.0872 -0.0318
0.2000 0.1012 -0.0349
0.2200 0.1148 -0.0335
0.2400 0.1282 -0.0329
0.2600 0.1415 -0.0340
0.2800 0.1547 -0.0322
0.3000 0.1681 -0.0351
0.3200 0.1814 -0.0298
0.3400 0.1948 -0.0361
0.3600 0.2081 -0.0276
0.3800 0.2214 -0.0334
0.4000 0.2347 -0.0261
0.4200 0.2481 -0.0313
0.4400 0.2615 -0.0249
0.4600 0.2748 -0.0288
0.4800 0.2881 -0.0234
0.5000 0.3015 -0.0249
0.5200 0.3149 -0.0225
0.5400 0.3282 -0.0223
0.5600 0.3415 -0.0195
0.5800 0.3548 -0.0179
0.6000 0.3682 -0.0167
0.6200 0.3815 -0.0137
0.6400 0.3948 -0.0154
0.6600 0.4081 -0.0090
0.6800 0.4215 -0.0108
0.7000 0.4348 -0.0051
0.7200 0.4481 -0.0065
0.7400 0.4615 -0.0001
0.7600 0.4748 -0.0018
0.7800 0.4881 0.0032
0.8000 0.5015 0.0040
0.8200 0.5148 0.0066
0.8400 0.5282 0.0089
0.8600 0.5415 0.0108
0.8800 0.5549 0.0137
0.9000 0.5682 0.0147
0.9200 0.5815 0.0196
0.9400 0.5949 0.0178
0.9600 0.6082 0.0242
0.9800 0.6215 0.0227
1.0000 0.6348 0.0277
1.0200 0.6481 0.0274
1.0400 0.6614 0.0325
1.0600 0.6748 0.0314
1.0800 0.6881 0.0367
1.1000 0.7014 0.0366
1.1200 0.7148 0.0396
1.1400 0.7281 0.0411
1.1600 0.7415 0.0440
1.1800 0.7548 0.0450
1.2000 0.7681 0.0482
1.2200 0.7815 0.0504
1.2400 0.7949 0.0512
1.2600 0.8082 0.0550
1.2800 0.8215 0.0559
1.3000 0.8348 0.0599
1.3200 0.8482 0.0592
1.3400 0.8616 0.0642
1.3600 0.8749 0.0632
1.3800 0.8882 0.0692
1.4000 0.9016 0.0679
1.4200 0.9149 0.0716
1.4400 0.9282 0.0724
1.4600 0.9415 0.0766
1.4800 0.9547 0.0765
1.5000 0.9681 0.0795
1.5200 0.9814 0.0819
1.5400 0.9948 0.0831
1.5600 1.0081 0.0865
1.5800 1.0215 0.0864
1.6000 1.0349 0.0906
1.6200 1.0482 0.0901
1.6400 1.0616 0.0948
1.6600 1.0749 0.0947
1.6800 1.0883 0.0991
1.7000 1.1016 0.0985
1.7200 1.1149 0.1017
1.7400 1.1282 0.1037
1.7600 1.1415 0.1061
1.7800 1.1548 0.1073
1.8000 1.1682 0.1078
1.8200 1.1814 0.1132
1.8400 1.1947 0.1114
1.8600 1.2081 0.1164
1.8800 1.2215 0.1167
1.9000 1.2348 0.1193
1.9200 1.2481 0.1192
1.9400 1.2615 0.1250
1.9600 1.2749 0.1223
1.9800 1.2883 0.1280
2.0000 1.3016 0.1269
2.0200 1.3149 0.1316
2.0400 1.3282 0.1308
2.0600 1.3416 0.1350
2.0800 1.3549 0.1363
2.1000 1.3682 0.1375
2.1200 1.3815 0.1402
2.1400 1.3948 0.1408
2.1600 1.4082 0.1443
2.1800 1.4214 0.1445
2.2000 1.4348 0.1476
2.2200 1.4481 0.1477
2.2400 1.4615 0.1517
2.2600 1.4748 0.1508
2.2800 1.4881 0.1554
2.3000 1.5015 0.1553
2.3200 1.5149 0.1589
2.3400 1.5282 0.1580
2.3600 1.5416 0.1618
2.3800 1.5549 0.1631
2.4000 1.5682 0.1639
2.4200 1.5816 0.1676
2.4400 1.5949 0.1670
2.4600 1.6082 0.1712
2.4800 1.6215 0.1708
2.5000 1.6348 0.1748
2.5200 1.6481 0.1733
2.5400 1.6614 0.1788
2.5600 1.6748 0.1763
2.5800 1.6881 0.1819
2.6000 1.7015 0.1800
2.6200 1.7148 0.1853
2.6400 1.7282 0.1837
2.6600 1.7415 0.1886
2.6800 1.7549 0.1886
2.7000 1.7683 0.1898
2.7200 1.7816 0.1933
2.7400 1.7949 0.1924
2.7600 1.8082 0.1971
2.7800 1.8216 0.1958
2.8000 1.8349 0.2006
2.8200 1.8482 0.1990
2.8400 1.8615 0.2039
2.8600 1.8748 0.2021
2.8800 1.8882 0.2067
2.9000 1.9015 0.2060
2.9200 1.9148 0.2106
2.9400 1.9281 0.2089
2.9600 1.9415 0.2132
2.9800 1.9548 0.2128
3.0000 1.9681 0.2153
3.0200 1.9815 0.2174
3.0400 1.9949 0.2181
3.0600 2.0082 0.2202
3.0800 2.0215 0.2215
3.1000 2.0348 0.2243
3.1200 2.0482 0.2241
3.1400 2.0616 0.2285
3.1600 2.0749 0.2277
3.1800 2.0882 0.2311
3.2000 2.1015 0.2311
3.2200 2.1148 0.2346
3.2400 2.1282 0.2331
3.2600 2.1415 0.2374
3.2800 2.1548 0.2372
3.3000 2.1681 0.2393
3.3200 2.1815 0.2420
3.3400 2.1948 0.2428
3.3600 2.2082 0.2447
3.3800 2.2215 0.2452
3.4000 2.2349 0.2489
3.4200 2.2482 0.2460
3.4400 2.2615 0.2530
3.4600 2.2748 0.2496
3.4800 2.2882 0.2556
3.5000 2.3015 0.2531
3.5200 2.3149 0.2586
3.5400 2.3282 0.2565
3.5600 2.3415 0.2614
3.5800 2.3548 0.2602
3.6000 2.3682 0.2626
3.6200 2.3815 0.2648
3.6400 2.3948 0.2651
3.6600 2.4081 0.2685
3.6800 2.4214 0.2671
3.7000 2.4348 0.2724
3.7200 2.4481 0.2684
3.7400 2.4615 0.2760
3.7600 2.4749 0.2717
3.7800 2.4883 0.2773
3.8000 2.5016 0.2755
3.8200 2.5149 0.2805
3.8400 2.5282 0.2784
3.8600 2.5416 0.2826
3.8800 2.5549 0.2827
3.9000 2.5682 0.2843
3.9200 2.5814 0.2860
3.9400 2.5948 0.2875
3.9600 2.6082 0.2889
3.9800 2.6215 0.2900
4.0000 2.6348 0.2938
4.0200 2.6481 0.2909
4.0400 2.6615 0.2968
4.0600 2.6748 0.2938
4.0800 2.6882 0.2996
4.1000 2.7015 0.2970
4.1200 2.7149 0.3023
4.1400 2.7282 0.2997
4.1600 2.7416 0.3050
4.1800 2.7549 0.3034
4.2000 2.7682 0.3072
4.2200 2.7815 0.3060
4.2400 2.7949 0.3098
4.2600 2.8082 0.3078
4.2800 2.8215 0.3129
4.3000 2.8348 0.3129
4.3200 2.8482 0.3142
4.3400 2.8615 0.3163
4.3600 2.8748 0.3167
4.3800 2.8881 0.3192
4.4000 2.9015 0.3191
4.4200 2.9148 0.3226
4.4400 2.9282 0.3207
4.4600 2.9415 0.3253
4.4800 2.9549 0.3233
4.5000 2.9682 0.3274
4.5200 2.9815 0.3267
4.5400 2.9948 0.3308
4.5600 3.0082 0.3282
4.5800 3.0216 0.3328
4.6000 3.0349 0.3325
4.6200 3.0482 0.3349
4.6400 3.0615 0.3365
4.6600 3.0748 0.3375
4.6800 3.0882 0.3390
4.7000 3.1015 0.3395
4.7200 3.1148 0.3434
4.7400 3.1281 0.3416
4.7600 3.1415 0.3457
4.7800 3.1548 0.3453
4.8000 3.1682 0.3474
4.8200 3.1815 0.3479
4.8400 3.1949 0.3515
4.8600 3.2082 0.3494
4.8800 3.2216 0.3530
4.9000 3.2349 0.3529
4.9200 3.2482 0.3548
4.9400 3.2615 0.3562
4.9600 3.2749 0.3568
4.9800 3.2882 0.3586
5.0000 3.3015 0.3593
5.0200 3.3148 0.3628
5.0400 3.3282 0.3609
5.0600 3.3415 0.3658
5.0800 3.3548 0.3642
5.1000 3.3681 0.3663
5.1200 3.3815 0.3662
5.1400 3.3948 0.3690
5.1600 3.4081 0.3683
5.1800 3.4215 0.3718
5.2000 3.4348 0.3717
5.2200 3.4482 0.3736
5.2400 3.4615 0.3753
5.2600 3.4748 0.3766
5.2800 3.4882 0.3778
5.3000 3.5015 0.3778
5.3200 3.5149 0.3821
5.3400 3.5282 0.3791
5.3600 3.5415 0.3847
5.3800 3.5549 0.3821
5.4000 3.5682 0.3860
5.4200 3.5815 0.3850
5.4400 3.5948 0.3900
5.4600 3.6081 0.3872
5.4800 3.6215 0.3921
5.5000 3.6348 0.3895
5.5200 3.6481 0.3937
5.5400 3.6614 0.3931
5.5600 3.6749 0.3960
5.5800 3.6882 0.3956
5.6000 3.7016 0.3969
5.6200 3.7149 0.4000
5.6400 3.7282 0.3971
5.6600 3.7416 0.4017
5.6800 3.7549 0.3997
5.7000 3.7682 0.4042
5.7200 3.7815 0.4023
5.7400 3.7948 0.4077
5.7600 3.8082 0.4040
5.7800 3.8215 0.4100
5.8000 3.8348 0.4082
5.8200 3.8481 0.4115
5.8400 3.8614 0.4109
5.8600 3.8748 0.4142
5.8800 3.8881 0.4140
5.9000 3.9015 0.4151
5.9200 3.9148 0.4183
5.9400 3.9282 0.4157
5.9600 3.9416 0.4204
5.9800 3.9549 0.4186
6.0000 3.9682 0.4226
6.0200 3.9816 0.4201
6.0400 3.9949 0.4254
6.0600 4.0082 0.4229
6.0800 4.0214 0.4276
6.1000 4.0348 0.4269
6.1200 4.0481 0.4290
6.1400 4.0615 0.4298
6.1600 4.0748 0.4310
6.1800 4.0881 0.4322
6.2000 4.1015 0.4329
6.2200 4.1149 0.4354
6.2400 4.1282 0.4344
6.2600 4.1415 0.4374
6.2800 4.1549 0.4368
6.3000 4.1682 0.4397
6.3200 4.1816 0.4386
6.3400 4.1948 0.4426
6.3600 4.2081 0.4406
6.3800 4.2215 0.4435
6.4000 4.2349 0.4453
6.4200 4.2482 0.4453
6.4400 4.2615 0.4477
6.4600 4.2749 0.4478
6.4800 4.2882 0.4503
6.5000 4.3015 0.4492
6.5200 4.3148 0.4537
6.5400 4.3281 0.4523
6.5600 4.3415 0.4548
6.5800 4.3548 0.4545
6.6000 4.3681 0.4572
6.6200 4.3815 0.4560
6.6400 4.3948 0.4608
6.6600 4.4082 0.4583
6.6800 4.4215 0.4612
6.7000 4.4349 0.4620
6.7200 4.4482 0.4633
6.7400 4.4616 0.4645
6.7600 4.4749 0.4651
6.7800 4.4882 0.4671
6.8000 4.5015 0.4662
6.8200 4.5149 0.4703
6.8400 4.5282 0.4679
6.8600 4.5415 0.4721
6.8800 4.5548 0.4693
6.9000 4.5681 0.4745
6.9200 4.5814 0.4698
6.9400 4.5948 0.4766
6.9600 4.6081 0.4738
6.9800 4.6215 0.4775
7.0000 4.6348 0.4778
7.0200 4.6482 0.4777
7.0400 4.6616 0.4796
7.0600 4.6749 0.4805
7.0800 4.6882 0.4830
7.1000 4.7016 0.4805
7.1200 4.7149 0.4862
7.1400 4.7282 0.4828
7.1600 4.7415 0.4880
7.1800 4.7549 0.4860
7.2000 4.7682 0.4909
7.2200 4.7815 0.4877
7.2400 4.7948 0.4934
7.2600 4.8081 0.4899
7.2800 4.8215 0.4944
7.3000 4.8348 0.4933
7.3200 4.8481 0.4958
7.3400 4.8615 0.4965
7.3600 4.8748 0.4974
7.3800 4.8882 0.4995
7.4000 4.9016 0.4981
7.4200 4.9149 0.5034
7.4400 4.9282 0.5000
7.4600 4.9416 0.5044
7.4800 4.9549 0.5018
7.5000 4.9683 0.5074
7.5200 4.9815 0.5042
7.5400 4.9949 0.5080
7.5600 5.0082 0.5050
7.5800 5.0215 0.5082
7.6000 5.0348 0.5083
7.6200 5.0481 0.5115
7.6400 5.0614 0.5105
7.6600 5.0748 0.5132
7.6800 5.0882 0.5137
7.7000 5.1015 0.5143
7.7200 5.1148 0.5169
7.7400 5.1282 0.5170
7.7600 5.1416 0.5183
7.7800 5.1549 0.5186
7.8000 5.1682 0.5221
7.8200 5.1815 0.5201
7.8400 5.1949 0.5248
7.8600 5.2082 0.5216
7.8800 5.2215 0.5264
7.9000 5.2348 0.5233
7.9200 5.2481 0.5276
7.9400 5.2615 0.5249
7.9600 5.2748 0.5301
7.9800 5.2881 0.5286
8.0000 5.3015 0.5304
8.0200 5.3148 0.5327
8.0400 5.3281 0.5312
8.0600 5.3415 0.5354
8.0800 5.3548 0.5332
8.1000 5.3682 0.5385
8.1200 5.3816 0.5332
8.1400 5.3949 0.5408
8.1600 5.4082 0.5364
8.1800 5.4215 0.5420
8.2000 5.4349 0.5382
8.2200 5.4482 0.5440
8.2400 5.4615 0.5405
8.2600 5.4748 0.5454
8.2800 5.4881 0.5442
8.3000 5.5015 0.5451
8.3200 5.5148 0.5476
8.3400 5.5281 0.5468
8.3600 5.5414 0.5488
8.3800 5.5548 0.5480
8.4000 5.5681 0.5509
8.4200 5.5815 0.5489
8.4400 5.5948 0.5532
8.4600 5.6082 0.5519
8.4800 5.6215 0.5552
8.5000 5.6349 0.5538
8.5200 5.6482 0.5584
8.5400 5.6615 0.5553
8.5600 5.6749 0.5605
8.5800 5.6882 0.5574
8.6000 5.7015 0.5615
8.6200 5.7149 0.5607
8.6400 5.7282 0.5640
8.6600 5.7416 0.5613
8.6800 5.7549 0.5655
8.7000 5.7681 0.5653
8.7200 5.7814 0.5662
8.7400 5.7948 0.5664
8.7600 5.8081 0.5659
8.7800 5.8214 0.5677
8.8000 5.8348 0.5680
8.8200 5.8482 0.5712
8.8400 5.8616 0.5695
8.8600 5.8749 0.5736
8.8800 5.8882 0.5723
8.9000 5.9016 0.5749
8.9200 5.9150 0.5750
8.9400 5.9283 0.5770
8.9600 5.9415 0.5768
8.9800 5.9548 0.5767
9.0000 5.9682 0.5794
9.0200 5.9815 0.5771
9.0400 5.9948 0.5827
9.0600 6.0081 0.5797
9.0800 6.0214 0.5842
9.1000 6.0348 0.5820
9.1200 6.0481 0.5861
9.1400 6.0615 0.5834
9.1600 6.0748 0.5875
9.1800 6.0882 0.5882
9.2000 6.1016 0.5870
9.2200 6.1149 0.5899
9.2400 6.1282 0.5886
9.2600 6.1415 0.5925
9.2800 6.1549 0.5900
9.3000 6.1682 0.5963
9.3200 6.1815 0.5911
9.3400 6.1948 0.5978
9.3600 6.2081 0.5942
9.3800 6.2215 0.5984
9.4000 6.2348 0.5973
9.4200 6.2481 0.6000
9.4400 6.2614 0.5988
9.4600 6.2748 0.6011
9.4800 6.2881 0.6019
9.5000 6.3015 0.6023
9.5200 6.3148 0.6036
9.5400 6.3282 0.6035
9.5600 6.3416 0.6043
9.5800 6.3549 0.6042
9.6000 6.3682 0.6079
9.6200 6.3815 0.6058
9.6400 6.3949 0.6107
9.6600 6.4082 0.6078
9.6800 6.4215 0.6116
9.7000 6.4348 0.6101
9.7200 6.4482 0.6141
9.7400 6.4615 0.6118
9.7600 6.4748 0.6158
9.7800 6.4881 0.6136
9.8000 6.5014 0.6163
9.8200 6.5148 0.6153
9.8400 6.5282 0.6166
9.8600 6.5415 0.6177
9.8800 6.5548 0.6179
9.9000 6.5682 0.6214
9.9200 6.5816 0.6185
9.9400 6.5949 0.6233
9.9600 6.6082 0.6215
9.9800 6.6216 0.6262
10.0000 6.6349 0.6226
10.0200 6.6482 0.6283
10.0400 6.6615 0.6233
10.0600 6.6748 0.6268
10.0800 6.6881 0.6252
10.1000 6.7015 0.6273
10.1200 6.7148 0.6281
10.1400 6.7282 0.6298
10.1600 6.7415 0.6310
10.1800 6.7548 0.6310
10.2000 6.7682 0.6341
10.2200 6.7815 0.6309
10.2400 6.7948 0.6363
10.2600 6.8082 0.6338
10.2800 6.8216 0.6377
10.3000 6.8349 0.6353
10.3200 6.8482 0.6393
10.3400 6.8615 0.6380
10.3600 6.8749 0.6395
10.3800 6.8882 0.6416
10.4000 6.9015 0.6405
10.4200 6.9148 0.6434
10.4400 6.9281 0.6425
10.4600 6.9415 0.6453
10.4800 6.9548 0.6438
10.5000 6.9681 0.6487
10.5200 6.9814 0.6454
10.5400 6.9948 0.6494
10.5600 7.0081 0.6483
10.5800 7.0215 0.6508
10.6000 7.0348 0.6501
10.6200 7.0481 0.6524
10.6400 7.0615 0.6521
10.6600 7.0749 0.6533
10.6800 7.0882 0.6554
10.7000 7.1015 0.6542
10.7200 7.1149 0.6552
10.7400 7.1282 0.6548
10.7600 7.1415 0.6566
10.7800 7.1548 0.6555
10.8000 7.1682 0.6591
10.8200 7.1815 0.6577
10.8400 7.1949 0.6610
10.8600 7.2081 0.6599
10.8800 7.2214 0.6637
10.9000 7.2348 0.6601
10.9200 7.2481 0.6669
10.9400 7.2614 0.6617
10.9600 7.2748 0.6680
10.9800 7.2882 0.6631
11.0000 7.3016 0.6676
11.0200 7.3149 0.6642
11.0400 7.3282 0.6702
11.0600 7.3416 0.6686
11.0800 7.3549 0.6695
11.1000 7.3683 0.6715
11.1200 7.3816 0.6710
11.1400 7.3948 0.6734
11.1600 7.4081 0.6732
11.1800 7.4215 0.6755
11.2000 7.4348 0.6738
11.2200 7.4481 0.6788
11.2400 7.4614 0.6753
11.2600 7.4748 0.6800
11.2800 7.4882 0.6777
11.3000 7.5015 0.6806
11.3200 7.5149 0.6786
11.3400 7.5282 0.6823
11.3600 7.5416 0.6819
11.3800 7.5549 0.6821
11.4000 7.5682 0.6842
11.4200 7.5815 0.6838
11.4400 7.5949 0.6858
11.4600 7.6082 0.6861
11.4800 7.6215 0.6871
11.5000 7.6348 0.6871
11.5200 7.6481 0.6902
11.5400 7.6615 0.6884
11.5600 7.6749 0.6919
11.5800 7.6882 0.6903
11.6000 7.7015 0.6934
11.6200 7.7148 0.6917
11.6400 7.7282 0.6943
11.6600 7.7415 0.6937
11.6800 7.7548 0.6932
11.7000 7.7682 0.6947
11.7200 7.7816 0.6955
11.7400 7.7949 0.6958
11.7600 7.8082 0.6980
11.7800 7.8215 0.6982
11.8000 7.8349 0.6982
11.8200 7.8482 0.7007
11.8400 7.8615 0.6992
11.8600 7.8748 0.7020
11.8800 7.8881 0.7011
11.9000 7.9015 0.7050
11.9200 7.9148 0.7015
11.9400 7.9281 0.7072
11.9600 7.9414 0.7040
11.9800 7.9548 0.7062
12.0000 7.9682 0.7051
12.0200 7.9815 0.7070
12.0400 7.9948 0.7068
12.0600 8.0082 0.7090
12.0800 8.0215 0.7095
12.1000 8.0349 0.7085
12.1200 8.0482 0.7118
12.1400 8.0615 0.7072
12.1600 8.0749 0.7097
12.1800 8.0882 0.7037
12.2000 8.1015 0.6984
12.2200 8.1148 0.6902
12.2400 8.1282 0.6943
12.2600 8.1415 0.6946
12.2800 8.1548 0.6975
12.3000 8.1681 0.7003
12.3200 8.1814 0.7012
12.3400 8.1948 0.7033
12.3600 8.2082 0.7037
12.3800 8.2215 0.7066
12.4000 8.2348 0.7052
12.4200 8.2482 0.7100
12.4400 8.2615 0.7073
12.4600 8.2749 0.7109
12.4800 8.2882 0.7095
12.5000 8.3015 0.7144
12.5200 8.3149 0.7116
12.5400 8.3282 0.7166
12.5600 8.3416 0.7140
12.5800 8.3549 0.7178
12.6000 8.3682 0.7173
12.6200 8.3815 0.7200
12.6400 8.3949 0.7185
12.6600 8.4082 0.7216
12.6800 8.4215 0.7205
12.7000 8.4348 0.7201
12.7200 8.4481 0.7213
12.7400 8.4614 0.7210
12.7600 8.4748 0.7223
12.7800 8.4881 0.7224
12.8000 8.5015 0.7255
12.8200 8.5149 0.7244
12.8400 8.5282 0.7285
12.8600 8.5415 0.7263
12.8800 8.5549 0.7301
12.9000 8.5683 0.7282
12.9200 8.5816 0.7314
12.9400 8.5949 0.7291
12.9600 8.6082 0.7331
12.9800 8.6215 0.7322
13.0000 8.6349 0.7322
13.0200 8.6481 0.7347
13.0400 8.6614 0.7345
13.0600 8.6748 0.7364
13.0800 8.6881 0.7350
13.1000 8.7015 0.7393
13.1200 8.7148 0.7362
13.1400 8.7281 0.7414
13.1600 8.7415 0.7376
13.1800 8.7549 0.7426
13.2000 8.7682 0.7399
13.2200 8.7815 0.7445
13.2400 8.7949 0.7417
13.2600 8.8082 0.7455
13.2800 8.8215 0.7447
13.3000 8.8348 0.7455
13.3200 8.8481 0.7477
13.3400 8.8615 0.7466
13.3600 8.8748 0.7498
13.3800 8.8881 0.7476
13.4000 8.9014 0.7510
13.4200 8.9148 0.7479
13.4400 8.9282 0.7533
13.4600 8.9415 0.7503
13.4800 8.9549 0.7543
13.5000 8.9682 0.7524
13.5200 8.9815 0.7558
13.5400 8.9949 0.7532
13.5600 9.0082 0.7553
13.5800 9.0215 0.7561
13.6000 9.0348 0.7561
13.6200 9.0482 0.7579
13.6400 9.0615 0.7570
13.6600 9.0749 0.7600
13.6800 9.0882 0.7591
13.7000 9.1015 0.7621
13.7200 9.1149 0.7598
13.7400 9.1282 0.7641
13.7600 9.1415 0.7612
13.7800 9.1548 0.7655
13.8000 9.1681 0.7625
13.8200 9.1815 0.7677
13.8400 9.1948 0.7640
13.8600 9.2081 0.7688
13.8800 9.2215 0.7666
13.9000 9.2349 0.7691
13.9200 9.2482 0.7693
13.9400 9.2615 0.7695
13.9600 9.2749 0.7719
13.9800 9.2882 0.7701
14.0000 9.3016 0.7742
14.0200 9.3149 0.7709
14.0400 9.3282 0.7767
14.0600 9.3415 0.7722
14.0800 9.3549 0.7766
14.1000 9.3682 0.7734
14.1200 9.3815 0.7789
14.1400 9.3948 0.7748
14.1600 9.4081 0.7807
14.1800 9.4215 0.7771
14.2000 9.4348 0.7814
14.2200 9.4481 0.7798
14.2400 9.4615 0.7813
14.2600 9.4749 0.7824
14.2800 9.4882 0.7819
14.3000 9.5016 0.7850
14.3200 9.5149 0.7821
14.3400 9.5283 0.7867
14.3600 9.5416 0.7838
14.3800 9.5549 0.7872
14.4000 9.5682 0.7828
14.4200 9.5815 0.7878
14.4400 9.5949 0.7831
14.4600 9.6082 0.7897
14.4800 9.6215 0.7868
14.5000 9.6348 0.7902
14.5200 9.6481 0.7896
14.5400 9.6615 0.7910
14.5600 9.6748 0.7916
14.5800 9.6881 0.7915
14.6000 9.7015 0.7952
14.6200 9.7149 0.7927
14.6400 9.7282 0.7959
14.6600 9.7415 0.7951
14.6800 9.7549 0.7978
14.7000 9.7683 0.7962
14.7200 9.7816 0.7994
14.7400 9.7949 0.7971
14.7600 9.8082 0.8001
14.7800 9.8215 0.7996
14.8000 9.8348 0.8011
14.8200 9.8482 0.7985
14.8400 9.8615 0.8008
14.8600 9.8748 0.7998
14.8800 9.8881 0.8014
14.9000 9.9015 0.8028
14.9200 9.9148 0.8024
14.9400 9.9281 0.8048
14.9600 9.9415 0.8044
14.9800 9.9549 0.8068
15.0000 9.9683 0.8051
15.0200 9.9815 0.8095
15.0400 9.9949 0.8061
15.0600 10.0082 0.8109
15.0800 10.0216 0.8083
15.1000 10.0349 0.8124
15.1200 10.0482 0.8090
15.1400 10.0615 0.8139
15.1600 10.0748 0.8118
15.1800 10.0881 0.8142
15.2000 10.1015 0.8148
15.2200 10.1148 0.8149
15.2400 10.1281 0.8167
15.2600 10.1415 0.8157
15.2800 10.1548 0.8190
15.3000 10.1682 0.8163
15.3200 10.1815 0.8204
15.3400 10.1949 0.8160
15.3600 10.2082 0.8196
15.3800 10.2215 0.8179
15.4000 10.2349 0.8214
15.4200 10.2482 0.8193
15.4400 10.2616 0.8232
15.4600 10.2748 0.8220
15.4800 10.2881 0.8241
15.5000 10.3015 0.8244
15.5200 10.3148 0.8247
15.5400 10.3281 0.8258
15.5600 10.3414 0.8265
15.5800 10.3548 0.8284
15.6000 10.3681 0.8271
15.6200 10.3815 0.8299
15.6400 10.3948 0.8277
15.6600 10.4082 0.8312
15.6800 10.4215 0.8303
15.7000 10.4349 0.8327
15.7200 10.4482 0.8312
15.7400 10.4615 0.8343
15.7600 10.4748 0.8324
15.7800 10.4882 0.8359
15.8000 10.5016 0.8343
15.8200 10.5149 0.8372
15.8400 10.5282 0.8354
15.8600 10.5415 0.8385
15.8800 10.5549 0.8383
15.9000 10.5682 0.8379
15.9200 10.5815 0.8414
15.9400 10.5948 0.8395
15.9600 10.6081 0.8419
15.9800 10.6214 0.8408
16.0000 10.6348 0.8437
16.0200 10.6481 0.8413
16.0400 10.6615 0.8456
16.0600 10.6749 0.8425
16.0800 10.6883 0.8463
16.1000 10.7016 0.8447
16.1200 10.7149 0.8478
16.1400 10.7282 0.8461
16.1600 10.7416 0.8487
16.1800 10.7549 0.8491
16.2000 10.7682 0.8476
16.2200 10.7815 0.8525
16.2400 10.7948 0.8485
16.2600 10.8082 0.8516
16.2800 10.8215 0.8490
16.3000 10.8348 0.8524
16.3200 10.8481 0.8502
16.3400 10.8615 0.8539
16.3600 10.8748 0.8529
16.3800 10.8881 0.8550
16.4000 10.9015 0.8546
16.4200 10.9149 0.8569
16.4400 10.9282 0.8559
16.4600 10.9416 0.8580
16.4800 10.9549 0.8589
16.5000 10.9682 0.8583
16.5200 10.9816 0.8612
16.5400 10.9949 0.8592
16.5600 11.0082 0.8620
16.5800 11.0215 0.8611
16.6000 11.0348 0.8641
16.6200 11.0482 0.8615
16.6400 11.0615 0.8657
16.6600 11.0748 0.8641
16.6800 11.0881 0.8665
16.7000 11.1015 0.8651
16.7200 11.1148 0.8686
16.7400 11.1281 0.8667
16.7600 11.1415 0.8696
16.7800 11.1549 0.8688
16.8000 11.1682 0.8692
16.8200 11.1815 0.8716
16.8400 11.1949 0.8705
16.8600 11.2082 0.8722
16.8800 11.2216 0.8720
16.9000 11.2349 0.8742
16.9200 11.2482 0.8730
16.9400 11.2615 0.8756
16.9600 11.2749 0.8750
16.9800 11.2882 0.8766
17.0000 11.3015 0.8755
17.0200 11.3148 0.8791
17.0400 11.3281 0.8767
17.0600 11.3415 0.8801
17.0800 11.3548 0.8792
17.1000 11.3682 0.8794
17.1200 11.3815 0.8822
17.1400 11.3949 0.8806
17.1600 11.4082 0.8831
17.1800 11.4216 0.8810
17.2000 11.4349 0.8848
17.2200 11.4482 0.8819
17.2400 11.4616 0.8855
17.2600 11.4749 0.8836
17.2800 11.4882 0.8869
17.3000 11.5015 0.8840
17.3200 11.5148 0.8853
17.3400 11.5282 0.8820
17.3600 11.5415 0.8851
17.3800 11.5548 0.8859
17.4000 11.5682 0.8860
17.4200 11.5815 0.8889
17.4400 11.5948 0.8869
17.4600 11.6081 0.8908
17.4800 11.6215 0.8887
17.5000 11.6349 0.8934
17.5200 11.6482 0.8894
17.5400 11.6615 0.8950
17.5600 11.6748 0.8916
17.5800 11.6881 0.8960
17.6000 11.7015 0.8934
17.6200 11.7149 0.8972
17.6400 11.7282 0.8951
17.6600 11.7415 0.8975
17.6800 11.7548 0.8976
17.7000 11.7682 0.8980
17.7200 11.7815 0.8992
17.7400 11.7948 0.8995
17.7600 11.8081 0.9009
17.7800 11.8215 0.9010
17.8000 11.8348 0.9026
17.8200 11.8481 0.9004
17.8400 11.8615 0.9052
17.8600 11.8748 0.9022
17.8800 11.8882 0.9058
17.9000 11.9015 0.9032
17.9200 11.9149 0.9086
17.9400 11.9282 0.9047
17.9600 11.9416 0.9088
17.9800 11.9549 0.9075
18.0000 11.9682 0.9091
18.0200 11.9815 0.9097
18.0400 11.9948 0.9105
18.0600 12.0082 0.9110
18.0800 12.0215 0.9110
18.1000 12.0348 0.9134
18.1200 12.0481 0.9112
18.1400 12.0614 0.9157
18.1600 12.0748 0.9115
18.1800 12.0881 0.9173
18.2000 12.1015 0.9131
18.2200 12.1149 0.9185
18.2400 12.1283 0.9145
18.2600 12.1416 0.9189
18.2800 12.1549 0.9167
18.3000 12.1683 0.9202
18.3200 12.1816 0.9178
18.3400 12.1949 0.9216
18.3600 12.2082 0.9199
18.3800 12.2215 0.9225
18.4000 12.2348 0.9223
18.4200 12.2482 0.9229
18.4400 12.2615 0.9237
18.4600 12.2748 0.9219
18.4800 12.2881 0.9254
18.5000 12.3015 0.9224
18.5200 12.3149 0.9268
18.5400 12.3282 0.9242
18.5600 12.3415 0.9281
18.5800 12.3549 0.9263
18.6000 12.3683 0.9293
18.6200 12.3816 0.9275
18.6400 12.3949 0.9308
18.6600 12.4082 0.9291
18.6800 12.4215 0.9313
18.7000 12.4349 0.9311
18.7200 12.4482 0.9326
18.7400 12.4615 0.9331
18.7600 12.4748 0.9332
18.7800 12.4882 0.9350
18.8000 12.5015 0.9341
18.8200 12.5148 0.9373
18.8400 12.5281 0.9350
18.8600 12.5415 0.9381
18.8800 12.5548 0.9366
18.9000 12.5681 0.9389
18.9200 12.5815 0.9379
18.9400 12.5948 0.9408
18.9600 12.6082 0.9389
18.9800 12.6215 0.9414
19.0000 12.6349 0.9407
19.0200 12.6482 0.9426
19.0400 12.6615 0.9428
19.0600 12.6749 0.9428
19.0800 12.6882 0.9451
19.1000 12.7015 0.9435
19.1200 12.7148 0.9470
19.1400 12.7282 0.9440
19.1600 12.7415 0.9476
19.1800 12.7548 0.9461
19.2000 12.7681 0.9496
19.2200 12.7815 0.9465
19.2400 12.7948 0.9506
19.2600 12.8081 0.9490
19.2800 12.8215 0.9520
19.3000 12.8349 0.9497
19.3200 12.8482 0.9530
19.3400 12.8616 0.9515
19.3600 12.8749 0.9533
19.3800 12.8882 0.9539
19.4000 12.9015 0.9538
19.4200 12.9149 0.9556
19.4400 12.9282 0.9546
19.4600 12.9415 0.9572
19.4800 12.9548 0.9568
19.5000 12.9682 0.9593
19.5200 12.9815 0.9570
19.5400 12.9948 0.9604
19.5600 13.0081 0.9587
19.5800 13.0215 0.9609
19.6000 13.0348 0.9598
19.6200 13.0482 0.9626
19.6400 13.0615 0.9612
19.6600 13.0748 0.9636
19.6800 13.0882 0.9631
19.7000 13.1016 0.9636
19.7200 13.1149 0.9660
19.7400 13.1282 0.9641
19.7600 13.1416 0.9673
19.7800 13.1549 0.9640
19.8000 13.1683 0.9650
19.8200 13.1816 0.9618
19.8400 13.1949 0.9667
19.8600 13.2082 0.9648
19.8800 13.2215 0.9682
19.9000 13.2348 0.9672
19.9200 13.2481 0.9700
19.9400 13.2614 0.9690
19.9600 13.2748 0.9710
19.9800 13.2881 0.9716
20.0000 13.3014 0.9725
20.0200 13.3148 0.9726
20.0400 13.3282 0.9735
20.0600 13.3416 0.9740
20.0800 13.3549 0.9744
20.1000 13.3682 0.9764
20.1200 13.3816 0.9750
20.1400 13.3949 0.9769
20.1600 13.4082 0.9750
20.1800 13.4215 0.9788
20.2000 13.4348 0.9765
20.2200 13.4482 0.9806
20.2400 13.4615 0.9773
20.2600 13.4748 0.9813
20.2800 13.4881 0.9798
20.3000 13.5014 0.9824
20.3200 13.5148 0.9809
20.3400 13.5281 0.9835
20.3600 13.5414 0.9829
20.3800 13.5548 0.9840
20.4000 13.5682 0.9860
20.4200 13.5816 0.9842
20.4400 13.5949 0.9876
20.4600 13.6082 0.9854
20.4800 13.6216 0.9890
20.5000 13.6349 0.9860
20.5200 13.6482 0.9904
20.5400 13.6615 0.9878
20.5600 13.6748 0.9911
20.5800 13.6881 0.9897
20.6000 13.7015 0.9921
20.6200 13.7148 0.9921
20.6400 13.7281 0.9931
20.6600 13.7415 0.9931
20.6800 13.7549 0.9930
20.7000 13.7682 0.9963
20.7200 13.7815 0.9929
20.7400 13.7949 0.9975
20.7600 13.8082 0.9945
20.7800 13.8216 0.9987
20.8000 13.8348 0.9957
20.8200 13.8482 1.0003
20.8400 13.8615 0.9979
20.8600 13.8749 0.9999
20.8800 13.8882 0.9999
20.9000 13.9015 1.0015
20.9200 13.9149 1.0007
20.9400 13.9282 1.0027
20.9600 13.9416 1.0017
20.9800 13.9548 1.0020
21.0000 13.9681 1.0026
21.0200 13.9815 1.0015
21.0400 13.9948 1.0040
21.0600 14.0081 1.0033
21.0800 14.0215 1.0069
21.1000 14.0348 1.0041
21.1200 14.0482 1.0084
21.1400 14.0615 1.0056
21.1600 14.0749 1.0095
21.1800 14.0882 1.0079
21.2000 14.1015 1.0111
21.2200 14.1149 1.0086
21.2400 14.1282 1.0128
21.2600 14.1415 1.0101
21.2800 14.1548 1.0127
21.3000 14.1682 1.0138
21.3200 14.1815 1.0124
21.3400 14.1948 1.0154
21.3600 14.2081 1.0133
21.3800 14.2214 1.0173
21.4000 14.2348 1.0136
21.4200 14.2481 1.0189
21.4400 14.2615 1.0155
21.4600 14.2748 1.0202
21.4800 14.2882 1.0170
21.5000 14.3015 1.0201
21.5200 14.3149 1.0187
21.5400 14.3282 1.0213
21.5600 14.3416 1.0212
21.5800 14.3549 1.0212
21.6000 14.3682 1.0234
21.6200 14.3815 1.0212
21.6400 14.3948 1.0256
21.6600 14.4082 1.0228
21.6800 14.4215 1.0269
21.7000 14.4348 1.0229
21.7200 14.4481 1.0290
21.7400 14.4615 1.0247
21.7600 14.4748 1.0291
21.7800 14.4881 1.0269
21.8000 14.5015 1.0297
21.8200 14.5148 1.0277
21.8400 14.5282 1.0316
21.8600 14.5415 1.0300
21.8800 14.5549 1.0318
21.9000 14.5682 1.0318
21.9200 14.5816 1.0323
21.9400 14.5949 1.0328
21.9600 14.6083 1.0340
21.9800 14.6215 1.0351
22.0000 14.6349 1.0341
22.0200 14.6482 1.0376
22.0400 14.6615 1.0334
22.0600 14.6748 1.0385
22.0800 14.6881 1.0351
22.1000 14.7014 1.0393
22.1200 14.7148 1.0358
22.1400 14.7281 1.0412
22.1600 14.7415 1.0369
22.1800 14.7548 1.0420
22.2000 14.7682 1.0395
22.2200 14.7816 1.0431
22.2400 14.7949 1.0407
22.2600 14.8082 1.0438
22.2800 14.8215 1.0431
22.3000 14.8349 1.0432
22.3200 14.8483 1.0455
22.3400 14.8616 1.0401
22.3600 14.8748 1.0400
22.3800 14.8881 1.0357
22.4000 14.9015 1.0414
22.4200 14.9148 1.0381
22.4400 14.9281 1.0452
22.4600 14.9414 1.0409
22.4800 14.9548 1.0461
22.5000 14.9681 1.0436
22.5200 14.9815 1.0473
22.5400 14.9948 1.0456
22.5600 15.0082 1.0485
22.5800 15.0216 1.0483
22.6000 15.0349 1.0484
22.6200 15.0482 1.0514
22.6400 15.0615 1.0500
22.6600 15.0749 1.0526
22.6800 15.0882 1.0509
22.7000 15.1015 1.0553
22.7200 15.1148 1.0516
22.7400 15.1281 1.0570
22.7600 15.1415 1.0537
22.7800 15.1548 1.0570
22.8000 15.1681 1.0557
22.8200 15.1814 1.0587
22.8400 15.1948 1.0565
22.8600 15.2081 1.0604
22.8800 15.2215 1.0588
22.9000 15.2348 1.0612
22.9200 15.2482 1.0601
22.9400 15.2615 1.0620
22.9600 15.2749 1.0615
22.9800 15.2882 1.0628
23.0000 15.3015 1.0638
23.0200 15.3149 1.0627
23.0400 15.3282 1.0661
23.0600 15.3415 1.0639
23.0800 15.3548 1.0669
23.1000 15.3682 1.0652
23.1200 15.3816 1.0692
23.1400 15.3949 1.0665
23.1600 15.4081 1.0701
23.1800 15.4214 1.0684
23.2000 15.4347 1.0699
23.2200 15.4481 1.0697
23.2400 15.4614 1.0713
23.2600 15.4748 1.0721
23.2800 15.4882 1.0716
23.3000 15.5016 1.0742
23.3200 15.5149 1.0712
23.3400 15.5282 1.0772
23.3600 15.5416 1.0736
23.3800 15.5549 1.0772
23.4000 15.5683 1.0744
23.4200 15.5816 1.0776
23.4400 15.5948 1.0750
23.4600 15.6081 1.0787
23.4800 15.6215 1.0776
23.5000 15.6348 1.0793
23.5200 15.6481 1.0791
23.5400 15.6614 1.0801
23.5600 15.6748 1.0809
23.5800 15.6881 1.0810
23.6000 15.7015 1.0836
23.6200 15.7148 1.0810
23.6400 15.7282 1.0848
23.6600 15.7416 1.0826
23.6800 15.7549 1.0855
23.7000 15.7682 1.0839
23.7200 15.7816 1.0876
23.7400 15.7949 1.0855
23.7600 15.8083 1.0872
23.7800 15.8215 1.0879
23.8000 15.8348 1.0885
23.8200 15.8482 1.0896
23.8400 15.8615 1.0905
23.8600 15.8748 1.0895
23.8800 15.8881 1.0911
23.9000 15.9014 1.0920
23.9200 15.9148 1.0913
23.9400 15.9281 1.0936
23.9600 15.9415 1.0930
23.9800 15.9548 1.0949
24.0000 15.9682 1.0941
24.0200 15.9816 1.0965
24.0400 15.9949 1.0951
24.0600 16.0082 1.0981
24.0800 16.0215 1.0971
24.1000 16.0349 1.0986
24.1200 16.0482 1.0984
24.1400 16.0616 1.1000
24.1600 16.0749 1.0999
24.1800 16.0882 1.1007
24.2000 16.1015 1.1021
24.2200 16.1148 1.1009
24.2400 16.1281 1.1039
24.2600 16.1414 1.1030
24.2800 16.1548 1.1057
24.3000 16.1681 1.1027
24.3200 16.1815 1.1077
24.3400 16.1948 1.1039
24.3600 16.2082 1.1078
24.3800 16.2216 1.1063
24.4000 16.2349 1.1079
24.4200 16.2482 1.1078
24.4400 16.2615 1.1098
24.4600 16.2749 1.1096
24.4800 16.2882 1.1098
24.5000 16.3015 1.1122
24.5200 16.3148 1.1102
24.5400 16.3282 1.1143
24.5600 16.3415 1.1115
24.5800 16.3548 1.1143
24.6000 16.3681 1.1129
24.6200 16.3815 1.1166
24.6400 16.3948 1.1134
24.6600 16.4082 1.1166
24.6800 16.4215 1.1164
24.7000 16.4348 1.1172
24.7200 16.4482 1.1184
24.7400 16.4616 1.1187
24.7600 16.4749 1.1192
24.7800 16.4882 1.1192
24.8000 16.5015 1.1211
24.8200 16.5148 1.1202
24.8400 16.5282 1.1221
24.8600 16.5416 1.1218
24.8800 16.5549 1.1231
24.9000 16.5682 1.1222
24.9200 16.5815 1.1258
24.9400 16.5949 1.1230
24.9600 16.6082 1.1270
24.9800 16.6215 1.1252
25.0000 16.6348 1.1273
25.0200 16.6482 1.1257
25.0400 16.6615 1.1285
25.0600 16.6748 1.1268
25.0800 16.6882 1.1274
25.1000 16.7015 1.1288
25.1200 16.7149 1.1287
25.1400 16.7282 1.1300
25.1600 16.7415 1.1308
25.1800 16.7549 1.1324
25.2000 16.7682 1.1306
25.2200 16.7815 1.1345
25.2400 16.7948 1.1309
25.2600 16.8082 1.1356
25.2800 16.8215 1.1329
25.3000 16.8348 1.1350
25.3200 16.8481 1.1305
25.3400 16.8614 1.1349
25.3600 16.8748 1.1330
25.3800 16.8881 1.1351
25.4000 16.9014 1.1363
25.4200 16.9148 1.1364
25.4400 16.9282 1.1383
25.4600 16.9415 1.1375
25.4800 16.9549 1.1396
25.5000 16.9682 1.1378
25.5200 16.9816 1.1427
25.5400 16.9949 1.1385
25.5600 17.0082 1.1442
25.5800 17.0215 1.1402
25.6000 17.0348 1.1450
25.6200 17.0481 1.1414
25.6400 17.0615 1.1467
25.6600 17.0748 1.1440
25.6800 17.0881 1.1459
25.7000 17.1014 1.1466
25.7200 17.1148 1.1465
25.7400 17.1282 1.1480
25.7600 17.1415 1.1474
25.7800 17.1549 1.1497
25.8000 17.1682 1.1476
25.8200 17.1816 1.1508
25.8400 17.1949 1.1478
25.8600 17.2082 1.1520
25.8800 17.2215 1.1489
25.9000 17.2349 1.1533
25.9200 17.2482 1.1493
25.9400 17.2615 1.1547
25.9600 17.2748 1.1511
25.9800 17.2881 1.1555
26.0000 17.3015 1.1534
26.0200 17.3148 1.1557
26.0400 17.3282 1.1544
26.0600 17.3415 1.1575
26.0800 17.3548 1.1569
26.1000 17.3681 1.1579
26.1200 17.3815 1.1593
26.1400 17.3948 1.1587
26.1600 17.4082 1.1604
26.1800 17.4215 1.1598
26.2000 17.4349 1.1629
26.2200 17.4482 1.1592
26.2400 17.4615 1.1651
26.2600 17.4749 1.1607
26.2800 17.4882 1.1659
26.3000 17.5016 1.1627
26.3200 17.5149 1.1672
26.3400 17.5282 1.1641
26.3600 17.5415 1.1677
26.3800 17.5549 1.1657
26.4000 17.5682 1.1678
26.4200 17.5814 1.1684
26.4400 17.5948 1.1686
26.4600 17.6081 1.1693
26.4800 17.6215 1.1692
26.5000 17.6348 1.1727
26.5200 17.6482 1.1691
26.5400 17.6615 1.1753
26.5600 17.6749 1.1705
26.5800 17.6882 1.1757
26.6000 17.7015 1.1724
26.6200 17.7149 1.1771
26.6400 17.7282 1.1735
26.6600 17.7415 1.1777
26.6800 17.7548 1.1763
26.7000 17.7681 1.1778
26.7200 17.7815 1.1789
26.7400 17.7948 1.1788
26.7600 17.8082 1.1797
26.7800 17.8215 1.1810
26.8000 17.8348 1.1822
26.8200 17.8481 1.1804
26.8400 17.8615 1.1840
26.8600 17.8748 1.1821
26.8800 17.8881 1.1848
26.9000 17.9015 1.1839
26.9200 17.9149 1.1863
26.9400 17.9282 1.1842
26.9600 17.9415 1.1876
26.9800 17.9549 1.1864
27.0000 17.9682 1.1887
27.0200 17.9816 1.1880
27.0400 17.9949 1.1899
27.0600 18.0082 1.1892
27.0800 18.0215 1.1914
27.1000 18.0348 1.1914
27.1200 18.0482 1.1912
27.1400 18.0615 1.1940
27.1600 18.0748 1.1926
27.1800 18.0881 1.1948
27.2000 18.1014 1.1933
27.2200 18.1148 1.1976
27.2400 18.1281 1.1942
27.2600 18.1415 1.1982
27.2800 18.1549 1.1934
27.3000 18.1682 1.1955
27.3200 18.1815 1.1948
27.3400 18.1948 1.1978
27.3600 18.2082 1.1967
27.3800 18.2216 1.1988
27.4000 18.2349 1.1996
27.4200 18.2482 1.1999
27.4400 18.2615 1.2023
27.4600 18.2749 1.2014
27.4800 18.2882 1.2032
27.5000 18.3014 1.2021
27.5200 18.3147 1.2059
27.5400 18.3281 1.2024
27.5600 18.3415 1.2071
27.5800 18.3548 1.2044
27.6000 18.3681 1.2077
27.6200 18.3815 1.2065
27.6400 18.3949 1.2091
27.6600 18.4082 1.2075
27.6800 18.4215 1.2104
27.7000 18.4349 1.2105
27.7200 18.4482 1.2104
27.7400 18.4616 1.2115
27.7600 18.4749 1.2122
27.7800 18.4882 1.2127
27.8000 18.5015 1.2136
27.8200 18.5148 1.2155
27.8400 18.5281 1.2134
27.8600 18.5415 1.2168
27.8800 18.5548 1.2156
27.9000 18.5682 1.2179
27.9200 18.5815 1.2171
27.9400 18.5949 1.2194
27.9600 18.6082 1.2171
27.9800 18.6215 1.2199
28.0000 18.6349 1.2182
28.0200 18.6482 1.2207
28.0400 18.6615 1.2204
28.0600 18.6748 1.2219
28.0800 18.6882 1.2218
28.1000 18.7015 1.2228
28.1200 18.7149 1.2250
28.1400 18.7282 1.2233
28.1600 18.7415 1.2271
28.1800 18.7549 1.2231
28.2000 18.7682 1.2275
28.2200 18.7815 1.2240
28.2400 18.7948 1.2297
28.2600 18.8081 1.2258
28.2800 18.8215 1.2293
28.3000 18.8348 1.2294
28.3200 18.8481 1.2295
28.3400 18.8615 1.2311
28.3600 18.8749 1.2310
28.3800 18.8882 1.2333
28.4000 18.9015 1.2319
28.4200 18.9149 1.2359
28.4400 18.9282 1.2318
28.4600 18.9416 1.2380
28.4800 18.9549 1.2336
28.5000 18.9682 1.2390
28.5200 18.9815 1.2351
28.5400 18.9949 1.2405
28.5600 19.0082 1.2366
28.5800 19.0215 1.2404
28.6000 19.0348 1.2416
28.6200 19.0481 1.2405
28.6400 19.0615 1.2420
28.6600 19.0748 1.2425
28.6800 19.0881 1.2430
28.7000 19.1015 1.2429
28.7200 19.1149 1.2459
28.7400 19.1282 1.2430
28.7600 19.1415 1.2479
28.7800 19.1549 1.2453
28.8000 19.1682 1.2490
28.8200 19.1816 1.2463
28.8400 19.1949 1.2517
28.8600 19.2082 1.2475
28.8800 19.2215 1.2520
28.9000 19.2348 1.2502
28.9200 19.2482 1.2521
28.9400 19.2615 1.2523
28.9600 19.2748 1.2542
28.9800 19.2881 1.2534
29.0000 19.3015 1.2543
29.0200 19.3148 1.2567
29.0400 19.3281 1.2545
29.0600 19.3415 1.2578
29.0800 19.3549 1.2531
29.1000 19.3682 1.2553
29.1200 19.3815 1.2504
29.1400 19.3949 1.2578
29.1600 19.4082 1.2527
29.1800 19.4216 1.2591
29.2000 19.4349 1.2560
29.2200 19.4482 1.2602
29.2400 19.4615 1.2584
29.2600 19.4749 1.2622
29.2800 19.4882 1.2600
29.3000 19.5015 1.2625
29.3200 19.5148 1.2642
29.3400 19.5281 1.2620
29.3600 19.5415 1.2655
29.3800 19.5548 1.2636
29.4000 19.5682 1.2675
29.4200 19.5815 1.2644
29.4400 19.5949 1.2701
29.4600 19.6083 1.2654
29.4800 19.6216 1.2707
29.5000 19.6349 1.2680
29.5200 19.6482 1.2719
29.5400 19.6616 1.2698
29.5600 19.6749 1.2736
29.5800 19.6882 1.2718
29.6000 19.7015 1.2738
29.6200 19.7148 1.2746
29.6400 19.7281 1.2743
29.6600 19.7415 1.2761
29.6800 19.7548 1.2767
29.7000 19.7681 1.2771
29.7200 19.7815 1.2774
29.7400 19.7948 1.2794
29.7600 19.8081 1.2792
29.7800 19.8215 1.2810
29.8000 19.8349 1.2802
29.8200 19.8482 1.2827
29.8400 19.8615 1.2807
29.8600 19.8749 1.2847
29.8800 19.8882 1.2825
29.9000 19.9016 1.2850
29.9200 19.9149 1.2854
29.9400 19.9282 1.2861
29.9600 19.9415 1.2866
29.9800 19.9548 1.2879
30.0000 19.9681 1.2891
30.0200 19.9814 1.2876
30.0400 19.9948 1.2910
30.0600 20.0081 1.2885
30.0800 20.0215 1.2921
30.1000 20.0348 1.2893
30.1200 20.0481 1.2942
30.1400 20.0615 1.2903
30.1600 20.0749 1.2963
30.1800 20.0882 1.2919
30.2000 20.1015 1.2965
30.2200 20.1148 1.2952
30.2400 20.1282 1.2966
30.2600 20.1416 1.2955
30.2800 20.1549 1.2968
30.3000 20.1682 1.2970
30.3200 20.1815 1.2978
30.3400 20.1949 1.3003
30.3600 20.2082 1.2989
30.3800 20.2215 1.3015
30.4000 20.2348 1.3008
30.4200 20.2481 1.3041
30.4400 20.2614 1.3012
30.4600 20.2748 1.3069
30.4800 20.2881 1.3035
30.5000 20.3015 1.3061
30.5200 20.3149 1.3060
30.5400 20.3282 1.3073
30.5600 20.3416 1.3075
30.5800 20.3549 1.3096
30.6000 20.3682 1.3095
30.6200 20.3816 1.3097
30.6400 20.3949 1.3109
30.6600 20.4082 1.3116
30.6800 20.4215 1.3134
30.7000 20.4348 1.3130
30.7200 20.4482 1.3154
30.7400 20.4615 1.3124
30.7600 20.4748 1.3175
30.7800 20.4881 1.3147
30.8000 20.5015 1.3177
30.8200 20.5148 1.3169
30.8400 20.5282 1.3193
30.8600 20.5415 1.3183
30.8800 20.5549 1.3205
30.9000 20.5682 1.3206
30.9200 20.5816 1.3218
30.9400 20.5949 1.3224
30.9600 20.6082 1.3229
30.9800 20.6216 1.3236
31.0000 20.6349 1.3240
31.0200 20.6482 1.3266
31.0400 20.6615 1.3246
31.0600 20.6748 1.3285
31.0800 20.6882 1.3258
31.1000 20.7015 1.3292
31.1200 20.7148 1.3284
31.1400 20.7281 1.3315
31.1600 20.7415 1.3292
31.1800 20.7548 1.3325
31.2000 20.7681 1.3313
31.2200 20.7815 1.3329
31.2400 20.7949 1.3339
31.2600 20.8082 1.3343
31.2800 20.8216 1.3349
31.3000 20.8349 1.3354
31.3200 20.8482 1.3381
31.3400 20.8616 1.3358
31.3600 20.8749 1.3400
31.3800 20.8882 1.3385
31.4000 20.9015 1.3412
31.4200 20.9148 1.3401
31.4400 20.9282 1.3423
31.4600 20.9415 1.3416
31.4800 20.9548 1.3439
31.5000 20.9681 1.3444
31.5200 20.9815 1.3440
31.5400 20.9948 1.3460
31.5600 21.0081 1.3457
31.5800 21.0215 1.3475
31.6000 21.0349 1.3477
31.6200 21.0482 1.3495
31.6400 21.0616 1.3462
31.6600 21.0749 1.3507
31.6800 21.0882 1.3486
31.7000 21.1016 1.3513
31.7200 21.1149 1.3505
31.7400 21.1282 1.3540
31.7600 21.1415 1.3513
31.7800 21.1548 1.3529
31.8000 21.1682 1.3495
31.8200 21.1815 1.3486
31.8400 21.1948 1.3512
31.8600 21.2081 1.3516
31.8800 21.2215 1.3540
31.9000 21.2348 1.3527
31.9200 21.2481 1.3577
31.9400 21.2615 1.3542
31.9600 21.2748 1.3595
31.9800 21.2882 1.3567
32.0000 21.3015 1.3598
32.0200 21.3148 1.3589
32.0400 21.3281 1.3634
32.0600 21.3415 1.3599
32.0800 21.3549 1.3641
32.1000 21.3682 1.3637
32.1200 21.3815 1.3646
32.1400 21.3948 1.3653
32.1600 21.4082 1.3663
32.1800 21.4215 1.3669
32.2000 21.4348 1.3669
32.2200 21.4481 1.3696
32.2400 21.4615 1.3678
32.2600 21.4748 1.3713
32.2800 21.4881 1.3703
32.3000 21.5015 1.3730
32.3200 21.5148 1.3719
32.3400 21.5282 1.3749
32.3600 21.5415 1.3724
32.3800 21.5548 1.3759
32.4000 21.5682 1.3753
32.4200 21.5816 1.3765
32.4400 21.5949 1.3775
32.4600 21.6082 1.3780
32.4800 21.6215 1.3797
32.5000 21.6348 1.3787
32.5200 21.6482 1.3828
32.5400 21.6615 1.3793
32.5600 21.6748 1.3840
32.5800 21.6881 1.3821
32.6000 21.7014 1.3851
32.6200 21.7148 1.3827
32.6400 21.7281 1.3880
32.6600 21.7415 1.3841
32.6800 21.7549 1.3884
32.7000 21.7682 1.3869
32.7200 21.7816 1.3896
32.7400 21.7949 1.3892
32.7600 21.8083 1.3916
32.7800 21.8216 1.3908
32.8000 21.8349 1.3919
32.8200 21.8482 1.3942
32.8400 21.8615 1.3920
32.8600 21.8748 1.3965
32.8800 21.8881 1.3940
32.9000 21.9015 1.3970
32.9200 21.9148 1.3958
32.9400 21.9281 1.4000
32.9600 21.9415 1.3973
32.9800 21.9549 1.4007
33.0000 21.9682 1.3995
33.0200 21.9815 1.4023
33.0400 21.9949 1.4009
33.0600 22.0083 1.4039
33.0800 22.0216 1.4030
33.1000 22.0349 1.4043
33.1200 22.0482 1.4065
33.1400 22.0615 1.4053
33.1600 22.0749 1.4084
33.1800 22.0882 1.4075
33.2000 22.1015 1.4095
33.2200 22.1148 1.4090
33.2400 22.1282 1.4119
33.2600 22.1415 1.4093
33.2800 22.1548 1.4096
33.3000 22.1681 1.4067
33.3200 22.1814 1.4090
33.3400 22.1948 1.4074
33.3600 22.2082 1.4126
33.3800 22.2215 1.4099
33.4000 22.2348 1.4133
33.4200 22.2482 1.4149
33.4400 22.2616 1.4145
33.4600 22.2749 1.4163
33.4800 22.2882 1.4175
33.5000 22.3015 1.4181
33.5200 22.3149 1.4179
33.5400 22.3282 1.4210
33.5600 22.3415 1.4189
33.5800 22.3548 1.4230
33.6000 22.3682 1.4214
33.6200 22.3815 1.4245
33.6400 22.3948 1.4227
33.6600 22.4081 1.4276
33.6800 22.4214 1.4241
33.7000 22.4348 1.4284
33.7200 22.4481 1.4276
33.7400 22.4615 1.4286
33.7600 22.4748 1.4291
33.7800 22.4882 1.4308
33.8000 22.5016 1.4310
33.8200 22.5149 1.4317
33.8400 22.5282 1.4339
33.8600 22.5415 1.4333
33.8800 22.5549 1.4355
33.9000 22.5682 1.4352
33.9200 22.5815 1.4372
33.9400 22.5948 1.4367
33.9600 22.6082 1.4397
33.9800 22.6215 1.4376
34.0000 22.6348 1.4410
34.0200 22.6481 1.4409
34.0400 22.6615 1.4415
34.0600 22.6748 1.4418
34.0800 22.6882 1.4443
34.1000 22.7015 1.4445
34.1200 22.7148 1.4444
34.1400 22.7282 1.4474
34.1600 22.7416 1.4455
34.1800 22.7549 1.4481
34.2000 22.7682 1.4476
34.2200 22.7815 1.4506
34.2400 22.7949 1.4482
34.2600 22.8082 1.4530
34.2800 22.8215 1.4503
34.3000 22.8348 1.4538
34.3200 22.8482 1.4532
34.3400 22.8615 1.4561
34.3600 22.8748 1.4540
34.3800 22.8881 1.4574
34.4000 22.9015 1.4573
34.4200 22.9148 1.4573
34.4400 22.9281 1.4584
34.4600 22.9414 1.4571
34.4800 22.9548 1.4601
34.5000 22.9682 1.4586
34.5200 22.9816 1.4616
34.5400 22.9949 1.4602
34.5600 23.0082 1.4653
34.5800 23.0215 1.4626
34.6000 23.0349 1.4662
34.6200 23.0482 1.4644
34.6400 23.0615 1.4684
34.6600 23.0748 1.4661
34.6800 23.0882 1.4705
34.7000 23.1015 1.4685
34.7200 23.1148 1.4702
34.7400 23.1281 1.4718
34.7600 23.1414 1.4718
34.7800 23.1548 1.4740
34.8000 23.1681 1.4741
34.8200 23.1815 1.4762
34.8400 23.1948 1.4742
34.8600 23.2082 1.4784
34.8800 23.2216 1.4769
34.9000 23.2349 1.4794
34.9200 23.2482 1.4787
34.9400 23.2615 1.4823
34.9600 23.2749 1.4792
34.9800 23.2882 1.4841
35.0000 23.3015 1.4830
35.0200 23.3148 1.4852
35.0400 23.3281 1.4850
35.0600 23.3415 1.4862
35.0800 23.3548 1.4870
35.1000 23.3681 1.4856
35.1200 23.3815 1.4836
35.1400 23.3948 1.4815
35.1600 23.4082 1.4845
35.1800 23.4215 1.4847
35.2000 23.4349 1.4871
35.2200 23.4482 1.4878
35.2400 23.4615 1.4905
35.2600 23.4749 1.4884
35.2800 23.4882 1.4940
35.3000 23.5015 1.4912
35.3200 23.5149 1.4945
35.3400 23.5282 1.4947
35.3600 23.5416 1.4966
35.3800 23.5549 1.4968
35.4000 23.5682 1.4982
35.4200 23.5816 1.4992
35.4400 23.5949 1.4988
35.4600 23.6081 1.5026
35.4800 23.6215 1.5010
35.5000 23.6348 1.5044
35.5200 23.6481 1.5022
35.5400 23.6615 1.5066
35.5600 23.6748 1.5033
35.5800 23.6882 1.5098
35.6000 23.7015 1.5053
35.6200 23.7149 1.5099
35.6400 23.7282 1.5086
35.6600 23.7415 1.5106
35.6800 23.7549 1.5101
35.7000 23.7683 1.5126
35.7200 23.7816 1.5143
35.7400 23.7949 1.5130
35.7600 23.8082 1.5159
35.7800 23.8215 1.5151
35.8000 23.8348 1.5177
35.8200 23.8481 1.5174
35.8400 23.8614 1.5201
35.8600 23.8748 1.5179
35.8800 23.8881 1.5222
35.9000 23.9014 1.5210
35.9200 23.9148 1.5234
35.9400 23.9281 1.5236
35.9600 23.9415 1.5253
35.9800 23.9549 1.5244
36.0000 23.9682 1.5271
36.0200 23.9815 1.5283
36.0400 23.9949 1.5282
36.0600 24.0082 1.5301
36.0800 24.0215 1.5311
36.1000 24.0348 1.5313
36.1200 24.0482 1.5323
36.1400 24.0615 1.5348
36.1600 24.0748 1.5326
36.1800 24.0881 1.5353
36.2000 24.1015 1.5334
36.2200 24.1148 1.5360
36.2400 24.1282 1.5358
36.2600 24.1415 1.5398
36.2800 24.1548 1.5374
36.3000 24.1682 1.5414
36.3200 24.1815 1.5398
36.3400 24.1949 1.5426
36.3600 24.2082 1.5430
36.3800 24.2215 1.5452
36.4000 24.2349 1.5452
36.4200 24.2483 1.5456
36.4400 24.2616 1.5489
36.4600 24.2748 1.5467
36.4800 24.2882 1.5510
36.5000 24.3015 1.5493
36.5200 24.3148 1.5528
36.5400 24.3281 1.5507
36.5600 24.3414 1.5557
36.5800 24.3548 1.5522
36.6000 24.3682 1.5577
36.6200 24.3815 1.5557
36.6400 24.3948 1.5589
36.6600 24.4082 1.5579
36.6800 24.4216 1.5598
36.7000 24.4349 1.5605
36.7200 24.4482 1.5612
36.7400 24.4615 1.5638
36.7600 24.4749 1.5627
36.7800 24.4883 1.5656
36.8000 24.5015 1.5654
36.8200 24.5148 1.5675
36.8400 24.5281 1.5669
36.8600 24.5415 1.5706
36.8800 24.5548 1.5675
36.9000 24.5681 1.5720
36.9200 24.5814 1.5691
36.9400 24.5948 1.5719
36.9600 24.6081 1.5701
36.9800 24.6215 1.5741
37.0000 24.6349 1.5722
37.0200 24.6482 1.5754
37.0400 24.6616 1.5753
37.0600 24.6749 1.5774
37.0800 24.6882 1.5776
37.1000 24.7015 1.5767
37.1200 24.7149 1.5751
37.1400 24.7282 1.5758
37.1600 24.7415 1.5774
37.1800 24.7548 1.5781
37.2000 24.7681 1.5812
37.2200 24.7815 1.5801
37.2400 24.7948 1.5843
37.2600 24.8081 1.5821
37.2800 24.8214 1.5873
37.3000 24.8348 1.5850
37.3200 24.8481 1.5887
37.3400 24.8615 1.5889
37.3600 24.8748 1.5898
37.3800 24.8882 1.5908
37.4000 24.9016 1.5919
37.4200 24.9149 1.5933
37.4400 24.9282 1.5941
37.4600 24.9415 1.5970
37.4800 24.9549 1.5949
37.5000 24.9682 1.6001
37.5200 24.9816 1.5975
37.5400 24.9949 1.6023
37.5600 25.0082 1.5996
37.5800 25.0216 1.6041
37.6000 25.0349 1.6013
37.6200 25.0481 1.6056
37.6400 25.0614 1.6055
37.6600 25.0748 1.6064
37.6800 25.0881 1.6086
37.7000 25.1014 1.6094
37.7200 25.1148 1.6106
37.7400 25.1282 1.6107
37.7600 25.1416 1.6134
37.7800 25.1549 1.6130
37.8000 25.1682 1.6152
37.8200 25.1816 1.6153
37.8400 25.1949 1.6177
37.8600 25.2083 1.6168
37.8800 25.2216 1.6204
37.9000 25.2349 1.6201
37.9200 25.2482 1.6215
37.9400 25.2615 1.6231
37.9600 25.2748 1.6236
37.9800 25.2881 1.6249
38.0000 25.3014 1.6260
38.0200 25.3148 1.6270
38.0400 25.3281 1.6277
38.0600 25.3415 1.6296
38.0800 25.3548 1.6301
38.1000 25.3682 1.6311
38.1200 25.3816 1.6327
38.1400 25.3949 1.6340
38.1600 25.4082 1.6337
38.1800 25.4215 1.6355
38.2000 25.4349 1.6327
38.2200 25.4483 1.6335
38.2400 25.4615 1.6345
38.2600 25.4748 1.6366
38.2800 25.4881 1.6372
38.3000 25.5015 1.6398
38.3200 25.5148 1.6400
38.3400 25.5281 1.6413
38.3600 25.5414 1.6444
38.3800 25.5548 1.6433
38.4000 25.5681 1.6458
38.4200 25.5815 1.6458
38.4400 25.5948 1.6483
38.4600 25.6082 1.6461
38.4800 25.6216 1.6516
38.5000 25.6349 1.6484
38.5200 25.6482 1.6532
38.5400 25.6615 1.6517
38.5600 25.6749 1.6557
38.5800 25.6883 1.6534
38.6000 25.7016 1.6582
38.6200 25.7149 1.6571
38.6400 25.7282 1.6592
38.6600 25.7415 1.6612
38.6800 25.7548 1.6607
38.7000 25.7681 1.6632
38.7200 25.7814 1.6638
38.7400 25.7948 1.6658
38.7600 25.8081 1.6650
38.7800 25.8215 1.6689
38.8000 25.8348 1.6675
38.8200 25.8482 1.6704
38.8400 25.8616 1.6702
38.8600 25.8749 1.6735
38.8800 25.8882 1.6718
38.9000 25.9015 1.6765
38.9200 25.9149 1.6753
38.9400 25.9282 1.6775
38.9600 25.9416 1.6783
38.9800 25.9548 1.6803
39.0000 25.9682 1.6804
39.0200 25.9815 1.6826
39.0400 25.9948 1.6829
39.0600 26.0082 1.6838
39.0800 26.0215 1.6856
39.1000 26.0348 1.6866
39.1200 26.0482 1.6879
39.1400 26.0615 1.6885
39.1600 26.0748 1.6919
39.1800 26.0882 1.6897
39.2000 26.1016 1.6952
39.2200 26.1149 1.6920
39.2400 26.1282 1.6969
39.2600 26.1415 1.6957
39.2800 26.1548 1.6997
39.3000 26.1682 1.6979
39.3200 26.1816 1.7021
39.3400 26.1949 1.7020
39.3600 26.2082 1.7029
39.3800 26.2215 1.7056
39.4000 26.2349 1.7048
39.4200 26.2482 1.7079
39.4400 26.2615 1.7068
39.4600 26.2748 1.7119
39.4800 26.2881 1.7080
39.5000 26.3015 1.7149
39.5200 26.3148 1.7114
39.5400 26.3281 1.7165
39.5600 26.3415 1.7142
39.5800 26.3549 1.7167
39.6000 26.3682 1.7110
39.6200 26.3815 1.7119
39.6400 26.3948 1.7138
39.6600 26.4082 1.7143
39.6800 26.4215 1.7174
39.7000 26.4349 1.7181
39.7200 26.4482 1.7208
39.7400 26.4615 1.7211
39.7600 26.4749 1.7245
39.7800 26.4881 1.7237
39.8000 26.5014 1.7282
39.8200 26.5148 1.7272
39.8400 26.5281 1.7299
39.8600 26.5415 1.7297
39.8800 26.5548 1.7329
39.9000 26.5681 1.7325
39.9200 26.5815 1.7353
39.9400 26.5949 1.7357
39.9600 26.6082 1.7375
39.9800 26.6216 1.7388
40.0000 26.6349 1.7416
40.0200 26.6483 1.7411
40.0400 26.6616 1.7438
40.0600 26.6748 1.7450
40.0800 26.6881 1.7446
40.1000 26.7015 1.7490
40.1200 26.7148 1.7469
40.1400 26.7281 1.7511
40.1600 26.7415 1.7500
40.1800 26.7548 1.7546
40.2000 26.7682 1.7517
40.2200 26.7815 1.7567
40.2400 26.7948 1.7554
40.2600 26.8082 1.7577
40.2800 26.8215 1.7568
40.3000 26.8349 1.7577
40.3200 26.8482 1.7594
40.3400 26.8615 1.7605
40.3600 26.8748 1.7635
40.3800 26.8882 1.7621
40.4000 26.9015 1.7677
40.4200 26.9148 1.7650
40.4400 26.9281 1.7706
40.4600 26.9415 1.7682
40.4800 26.9549 1.7739
40.5000 26.9682 1.7712
40.5200 26.9815 1.7760
40.5400 26.9948 1.7759
40.5600 27.0081 1.7770
40.5800 27.0215 1.7792
40.6000 27.0348 1.7795
40.6200 27.0482 1.7784
40.6400 27.0615 1.7777
40.6600 27.0749 1.7811
40.6800 27.0882 1.7810
40.7000 27.1015 1.7849
40.7200 27.1149 1.7849
40.7400 27.1282 1.7880
40.7600 27.1416 1.7881
40.7800 27.1549 1.7915
40.8000 27.1682 1.7914
40.8200 27.1815 1.7942
40.8400 27.1949 1.7957
40.8600 27.2082 1.7966
40.8800 27.2214 1.7989
40.9000 27.2348 1.8003
40.9200 27.2481 1.8016
40.9400 27.2615 1.8033
40.9600 27.2748 1.8056
40.9800 27.2882 1.8060
41.0000 27.3015 1.8084
41.0200 27.3149 1.8090
41.0400 27.3282 1.8113
41.0600 27.3415 1.8122
41.0800 27.3549 1.8151
41.1000 27.3682 1.8142
41.1200 27.3815 1.8188
41.1400 27.3949 1.8177
41.1600 27.4082 1.8224
41.1800 27.4215 1.8208
41.2000 27.4349 1.8253
41.2200 27.4482 1.8238
41.2400 27.4615 1.8270
41.2600 27.4748 1.8284
41.2800 27.4881 1.8282
41.3000 27.5015 1.8297
41.3200 27.5148 1.8304
41.3400 27.5282 1.8336
41.3600 27.5415 1.8328
41.3800 27.5549 1.8385
41.4000 27.5682 1.8358
41.4200 27.5815 1.8416
41.4400 27.5949 1.8384
41.4600 27.6082 1.8434
41.4800 27.6216 1.8395
41.5000 27.6349 1.8446
41.5200 27.6482 1.8432
41.5400 27.6615 1.8468
41.5600 27.6749 1.8478
41.5800 27.6882 1.8495
41.6000 27.7015 1.8525
41.6200 27.7148 1.8537
41.6400 27.7281 1.8556
41.6600 27.7414 1.8562
41.6800 27.7548 1.8596
41.7000 27.7681 1.8606
41.7200 27.7815 1.8629
41.7400 27.7949 1.8639
41.7600 27.8082 1.8669
41.7800 27.8215 1.8669
41.8000 27.8349 1.8706
41.8200 27.8482 1.8706
41.8400 27.8616 1.8741
41.8600 27.8749 1.8748
41.8800 27.8882 1.8780
41.9000 27.9015 1.8774
41.9200 27.9148 1.8815
41.9400 27.9282 1.8810
41.9600 27.9415 1.8848
41.9800 27.9548 1.8854
42.0000 27.9681 1.8880
42.0200 27.9814 1.8891
42.0400 27.9948 1.8909
42.0600 28.0081 1.8947
42.0800 28.0215 1.8930
42.1000 28.0349 1.8995
42.1200 28.0483 1.8961
42.1400 28.0616 1.9028
42.1600 28.0749 1.8990
42.1800 28.0882 1.9012
42.2000 28.1016 1.8962
42.2200 28.1149 1.9028
42.2400 28.1282 1.9013
42.2600 28.1415 1.9068
42.2800 28.1548 1.9075
42.3000 28.1682 1.9106
42.3200 28.1815 1.9125
42.3400 28.1948 1.9140
42.3600 28.2081 1.9176
42.3800 28.2215 1.9166
42.4000 28.2349 1.9224
42.4200 28.2482 1.9211
42.4400 28.2616 1.9264
42.4600 28.2749 1.9252
42.4800 28.2882 1.9300
42.5000 28.3015 1.9294
42.5200 28.3148 1.9345
42.5400 28.3282 1.9343
42.5600 28.3416 1.9361
42.5800 28.3549 1.9349
42.6000 28.3682 1.9376
42.6200 28.3815 1.9375
42.6400 28.3949 1.9415
42.6600 28.4082 1.9425
42.6800 28.4215 1.9458
42.7000 28.4348 1.9481
42.7200 28.4481 1.9489
42.7400 28.4615 1.9524
42.7600 28.4748 1.9538
42.7800 28.4881 1.9572
42.8000 28.5015 1.9562
42.8200 28.5149 1.9611
42.8400 28.5282 1.9596
42.8600 28.5415 1.9645
42.8800 28.5549 1.9640
42.9000 28.5682 1.9705
42.9200 28.5816 1.9685
42.9400 28.5949 1.9747
42.9600 28.6082 1.9742
42.9800 28.6215 1.9779
43.0000 28.6349 1.9802
43.0200 28.6482 1.9814
43.0400 28.6615 1.9856
43.0600 28.6748 1.9856
43.0800 28.6881 1.9906
43.1000 28.7015 1.9891
43.1200 28.7148 1.9962
43.1400 28.7281 1.9946
43.1600 28.7415 1.9998
43.1800 28.7548 1.9986
43.2000 28.7682 2.0044
43.2200 28.7815 2.0037
43.2400 28.7949 2.0084
43.2600 28.8082 2.0095
43.2800 28.8216 2.0114
43.3000 28.8349 2.0117
43.3200 28.8482 2.0102
43.3400 28.8615 2.0130
43.3600 28.8749 2.0143
43.3800 28.8882 2.0195
43.4000 28.9015 2.0191
43.4200 28.9148 2.0251
43.4400 28.9281 2.0253
43.4600 28.9415 2.0300
43.4800 28.9548 2.0315
43.5000 28.9681 2.0349
43.5200 28.9815 2.0361
43.5400 28.9948 2.0409
43.5600 29.0082 2.0422
43.5800 29.0215 2.0453
43.6000 29.0349 2.0463
43.6200 29.0482 2.0498
43.6400 29.0616 2.0509
43.6600 29.0749 2.0552
43.6800 29.0882 2.0580
43.7000 29.1015 2.0595
43.7200 29.1149 2.0632
43.7400 29.1282 2.0649
43.7600 29.1415 2.0689
43.7800 29.1548 2.0701
43.8000 29.1681 2.0735
43.8200 29.1815 2.0724
43.8400 29.1948 2.0770
43.8600 29.2082 2.0781
43.8800 29.2215 2.0829
43.9000 29.2349 2.0846
43.9200 29.2483 2.0893
43.9400 29.2616 2.0912
43.9600 29.2749 2.0942
43.9800 29.2882 2.0992
44.0000 29.3016 2.1002
44.0200 29.3149 2.1064
44.0400 29.3282 2.1058
44.0600 29.3415 2.1125
44.0800 29.3548 2.1117
44.1000 29.3681 2.1190
44.1200 29.3815 2.1182
44.1400 29.3948 2.1243
44.1600 29.4081 2.1245
44.1800 29.4215 2.1281
44.2000 29.4348 2.1299
44.2200 29.4481 2.1339
44.2400 29.4615 2.1371
44.2600 29.4749 2.1396
44.2800 29.4882 2.1444
44.3000 29.5015 2.1442
44.3200 29.5149 2.1470
44.3400 29.5282 2.1447
44.3600 29.5416 2.1529
44.3800 29.5549 2.1523
44.4000 29.5682 2.1608
44.4200 29.5815 2.1605
44.4400 29.5948 2.1670
44.4600 29.6082 2.1688
44.4800 29.6215 2.1742
44.5000 29.6348 2.1755
44.5200 29.6481 2.1801
44.5400 29.6615 2.1816
44.5600 29.6748 2.1807
44.5800 29.6881 2.1823
44.6000 29.7015 2.1847
44.6200 29.7148 2.1906
44.6400 29.7282 2.1939
44.6600 29.7415 2.2000
44.6800 29.7548 2.2017
44.7000 29.7682 2.2092
44.7200 29.7816 2.2092
44.7400 29.7949 2.2168
44.7600 29.8082 2.2184
44.7800 29.8215 2.2243
44.8000 29.8349 2.2251
44.8200 29.8482 2.2325
44.8400 29.8615 2.2319
44.8600 29.8748 2.2361
44.8800 29.8881 2.2354
44.9000 29.9014 2.2400
44.9200 29.9148 2.2441
44.9400 29.9281 2.2485
44.9600 29.9415 2.2536
44.9800 29.9549 2.2553
45.0000 29.9682 2.2626
45.0200 29.9816 2.2631
45.0400 29.9949 2.2697
45.0480 30.0001 2.2663
45.0490 30.0007 2.2659
45.0500 30.0014 2.2653
45.0700 30.0119 2.2553
45.0900 30.0141 2.2420
45.1100 30.0058 2.2434
45.1300 29.9931 2.2427
45.1500 29.9802 2.2261
45.1700 29.9674 2.2211
45.1900 29.9539 2.2052
45.2100 29.9398 2.2016
45.2300 29.9257 2.1873
45.2500 29.9119 2.1843
45.2700 29.8984 2.1700
45.2900 29.8851 2.1647
45.3100 29.8718 2.1547
45.3300 29.8585 2.1486
45.3500 29.8451 2.1395
45.3700 29.8318 2.1342
45.3900 29.8185 2.1260
45.4100 29.8051 2.1191
45.4300 29.7917 2.1124
45.4500 29.7784 2.1044
45.4700 29.7651 2.1007
45.4900 29.7517 2.0906
45.5100 29.7384 2.0877
45.5300 29.7250 2.0783
45.5500 29.7117 2.0766
45.5700 29.6983 2.0660
45.5900 29.6850 2.0649
45.6100 29.6716 2.0552
45.6300 29.6583 2.0533
45.6500 29.6450 2.0434
45.6700 29.6317 2.0426
45.6900 29.6183 2.0334
45.7100 29.6050 2.0315
45.7300 29.5917 2.0244
45.7500 29.5784 2.0203
45.7700 29.5651 2.0158
45.7900 29.5517 2.0092
45.8100 29.5384 2.0067
45.8300 29.5251 1.9990
45.8500 29.5117 1.9984
45.8700 29.4984 1.9899
45.8900 29.4850 1.9888
45.9100 29.4717 1.9812
45.9300 29.4584 1.9804
45.9500 29.4450 1.9716
45.9700 29.4317 1.9726
45.9900 29.4183 1.9629
46.0100 29.4050 1.9635
46.0300 29.3917 1.9561
46.0500 29.3784 1.9547
46.0700 29.3650 1.9495
46.0900 29.3517 1.9462
46.1100 29.3384 1.9421
46.1300 29.3251 1.9368
46.1500 29.3117 1.9360
46.1700 29.2984 1.9284
46.1900 29.2851 1.9282
46.2100 29.2718 1.9207
46.2300 29.2584 1.9211
46.2500 29.2450 1.9134
46.2700 29.2316 1.9148
46.2900 29.2183 1.9062
46.3100 29.2050 1.9073
46.3300 29.1916 1.9001
46.3500 29.1783 1.8991
46.3700 29.1650 1.8939
46.3900 29.1517 1.8922
46.4100 29.1383 1.8877
46.4300 29.1250 1.8850
46.4500 29.1117 1.8823
46.4700 29.0985 1.8780
46.4900 29.0851 1.8750
46.5100 29.0718 1.8718
46.5300 29.0584 1.8696
46.5500 29.0450 1.8651
46.5700 29.0316 1.8638
46.5900 29.0183 1.8585
46.6100 29.0049 1.8574
46.6300 28.9916 1.8525
46.6500 28.9783 1.8519
46.6700 28.9650 1.8460
46.6900 28.9516 1.8465
46.7100 28.9383 1.8405
46.7300 28.9250 1.8398
46.7500 28.9117 1.8360
46.7700 28.8983 1.8334
46.7900 28.8850 1.8308
46.8100 28.8717 1.8277
46.8300 28.8584 1.8252
46.8500 28.8451 1.8205
46.8700 28.8318 1.8209
46.8900 28.8184 1.8156
46.9100 28.8051 1.8149
46.9300 28.7917 1.8098
46.9500 28.7783 1.8101
46.9700 28.7650 1.8045
46.9900 28.7516 1.8058
47.0100 28.7383 1.7995
47.0300 28.7250 1.7990
47.0500 28.7116 1.7952
47.0700 28.6983 1.7934
47.0900 28.6850 1.7905
47.1100 28.6717 1.7883
47.1300 28.6584 1.7861
47.1500 28.6450 1.7818
47.1700 28.6317 1.7825
47.1900 28.6184 1.7766
47.2100 28.6051 1.7782
47.2300 28.5917 1.7719
47.2500 28.5784 1.7730
47.2700 28.5650 1.7666
47.2900 28.5517 1.7680
47.3100 28.5384 1.7627
47.3300 28.5250 1.7620
47.3500 28.5116 1.7597
47.3700 28.4983 1.7575
47.3900 28.4850 1.7533
47.4100 28.4717 1.7530
47.4300 28.4583 1.7514
47.4500 28.4450 1.7464
47.4700 28.4317 1.7479
47.4900 28.4184 1.7420
47.5100 28.4050 1.7420
47.5300 28.3917 1.7393
47.5500 28.3784 1.7372
47.5700 28.3651 1.7340
47.5900 28.3517 1.7340
47.6100 28.3384 1.7287
47.6300 28.3250 1.7291
47.6500 28.3117 1.7255
47.6700 28.2984 1.7238
47.6900 28.2850 1.7216
47.7100 28.2716 1.7194
47.7300 28.2583 1.7182
47.7500 28.2450 1.7142
47.7700 28.2317 1.7146
47.7900 28.2183 1.7101
47.8100 28.2050 1.7109
47.8300 28.1917 1.7047
47.8500 28.1783 1.7071
47.8700 28.1650 1.7009
47.8900 28.1517 1.7037
47.9100 28.1384 1.6974
47.9300 28.1251 1.6984
47.9500 28.1117 1.6930
47.9700 28.0983 1.6957
47.9900 28.0850 1.6883
48.0100 28.0717 1.6911
48.0300 28.0584 1.6868
48.0500 28.0450 1.6835
48.0700 28.0316 1.6849
48.0900 28.0183 1.6798
48.1100 28.0050 1.6807
48.1300 27.9916 1.6765
48.1500 27.9783 1.6770
48.1700 27.9650 1.6716
48.1900 27.9517 1.6742
48.2100 27.9384 1.6675
48.2300 27.9250 1.6703
48.2500 27.9117 1.6641
48.2700 27.8984 1.6660
48.2900 27.8851 1.6609
48.3100 27.8717 1.6613
48.3300 27.8583 1.6591
48.3500 27.8450 1.6567
48.3700 27.8317 1.6556
48.3900 27.8184 1.6526
48.4100 27.8050 1.6517
48.4300 27.7916 1.6487
48.4500 27.7783 1.6491
48.4700 27.7650 1.6442
48.4900 27.7517 1.6455
48.5100 27.7383 1.6414
48.5300 27.7250 1.6422
48.5500 27.7117 1.6371
48.5700 27.6984 1.6396
48.5900 27.6850 1.6335
48.6100 27.6717 1.6356
48.6300 27.6584 1.6301
48.6500 27.6451 1.6310
48.6700 27.6318 1.6280
48.6900 27.6184 1.6274
48.7100 27.6050 1.6242
48.7300 27.5917 1.6234
48.7500 27.5783 1.6215
48.7700 27.5650 1.6190
48.7900 27.5516 1.6202
48.8100 27.5383 1.6149
48.8300 27.5250 1.6161
48.8500 27.5117 1.6109
48.8700 27.4983 1.6134
48.8900 27.4850 1.6072
48.9100 27.4717 1.6098
48.9300 27.4584 1.6045
48.9500 27.4450 1.6057
48.9700 27.4317 1.6016
48.9900 27.4184 1.6024
49.0100 27.4051 1.5986
49.0300 27.3917 1.5987
49.0500 27.3784 1.5961
49.0700 27.3650 1.5937
49.0900 27.3517 1.5937
49.1100 27.3384 1.5906
49.1300 27.3250 1.5902
49.1500 27.3116 1.5867
49.1700 27.2983 1.5881
49.1900 27.2850 1.5823
49.2100 27.2717 1.5854
49.2300 27.2583 1.5795
49.2500 27.2450 1.5820
49.2700 27.2317 1.5762
49.2900 27.2184 1.5790
49.3100 27.2050 1.5732
49.3300 27.1917 1.5750
49.3500 27.1784 1.5717
49.3700 27.1651 1.5702
49.3900 27.1517 1.5693
49.4100 27.1383 1.5670
49.4300 27.1250 1.5669
49.4500 27.1117 1.5629
49.4700 27.0984 1.5644
49.4900 27.0850 1.5591
49.5100 27.0717 1.5617
49.5300 27.0583 1.5562
49.5500 27.0450 1.5584
49.5700 27.0317 1.5527
49.5900 27.0183 1.5559
49.6100 27.0050 1.5499
49.6300 26.9917 1.5524
49.6500 26.9784 1.5481
49.6700 26.9650 1.5483
49.6900 26.9517 1.5457
49.7100 26.9384 1.5451
49.7300 26.9251 1.5435
49.7500 26.9117 1.5408
49.7700 26.8984 1.5414
49.7900 26.8850 1.5377
49.8100 26.8717 1.5383
49.8300 26.8584 1.5344
49.8500 26.8450 1.5360
49.8700 26.8317 1.5308
49.8900 26.8183 1.5343
49.9100 26.8050 1.5275
49.9300 26.7917 1.5306
49.9500 26.7783 1.5257
49.9700 26.7649 1.5265
49.9900 26.7516 1.5232
50.0100 26.7383 1.5236
50.0300 26.7250 1.5211
50.0500 26.7117 1.5198
50.0700 26.6984 1.5197
50.0900 26.6851 1.5160
50.1100 26.6718 1.5168
50.1300 26.6584 1.5140
50.1500 26.6450 1.5148
50.1700 26.6317 1.5096
50.1900 26.6184 1.5124
50.2100 26.6051 1.5062
50.2300 26.5917 1.5090
50.2500 26.5783 1.5043
50.2700 26.5650 1.5055
50.2900 26.5516 1.5014
50.3100 26.5383 1.5023
50.3300 26.5249 1.5008
50.3500 26.5117 1.4988
50.3700 26.4984 1.4985
50.3900 26.4850 1.4950
50.4100 26.4717 1.4962
50.4300 26.4584 1.4927
50.4500 26.4451 1.4930
50.4700 26.4318 1.4888
50.4900 26.4184 1.4909
50.5100 26.4050 1.4862
50.5300 26.3917 1.4880
50.5500 26.3784 1.4842
50.5700 26.3650 1.4846
50.5900 26.3517 1.4814
50.6100 26.3383 1.4822
50.6300 26.3250 1.4798
50.6500 26.3117 1.4778
50.6700 26.2983 1.4776
50.6900 26.2850 1.4749
50.7100 26.2716 1.4750
50.7300 26.2583 1.4729
50.7500 26.2450 1.4729
50.7700 26.2317 1.4688
50.7900 26.2184 1.4717
50.8100 26.2051 1.4660
50.8300 26.1917 1.4686
50.8500 26.1784 1.4639
50.8700 26.1650 1.4657
50.8900 26.1517 1.4610
50.9100 26.1384 1.4626
50.9300 26.1250 1.4593
50.9500 26.1116 1.4590
50.9700 26.0983 1.4582
50.9900 26.0850 1.4549
51.0100 26.0717 1.4561
51.0300 26.0583 1.4527
51.0500 26.0450 1.4551
51.0700 26.0316 1.4494
51.0900 26.0183 1.4528
51.1100 26.0050 1.4459
51.1300 25.9917 1.4501
51.1500 25.9783 1.4449
51.1700 25.9650 1.4475
51.1900 25.9517 1.4416
51.2100 25.9384 1.4451
51.2300 25.9250 1.4406
51.2500 25.9117 1.4405
51.2700 25.8984 1.4397
51.2900 25.8851 1.4377
51.3100 25.8717 1.4367
51.3300 25.8583 1.4345
51.3500 25.8450 1.4358
51.3700 25.8317 1.4309
51.3900 25.8183 1.4336
51.4100 25.8050 1.4289
51.4300 25.7916 1.4310
51.4500 25.7783 1.4263
51.4700 25.7650 1.4288
51.4900 25.7517 1.4232
51.5100 25.7383 1.4270
51.5300 25.7251 1.4215
51.5500 25.7118 1.4226
51.5700 25.6984 1.4203
51.5900 25.6850 1.4209
51.6100 25.6717 1.4169
51.6300 25.6584 1.4177
51.6500 25.6450 1.4157
51.6700 25.6317 1.4140
51.6900 25.6183 1.4144
51.7100 25.6050 1.4119
51.7300 25.5917 1.4112
51.7500 25.5783 1.4088
51.7700 25.5649 1.4104
51.7900 25.5516 1.4050
51.8100 25.5383 1.4091
51.8300 25.5250 1.4026
51.8500 25.5117 1.4065
51.8700 25.4983 1.4010
51.8900 25.4850 1.4039
51.9100 25.4718 1.3981
51.9300 25.4584 1.4013
51.9500 25.4450 1.3977
51.9700 25.4317 1.3969
51.9900 25.4184 1.3965
52.0100 25.4051 1.3941
52.0300 25.3917 1.3940
52.0500 25.3783 1.3915
52.0700 25.3650 1.3931
52.0900 25.3516 1.3876
52.1100 25.3383 1.3915
52.1300 25.3249 1.3855
52.1500 25.3116 1.3889
52.1700 25.2983 1.3834
52.1900 25.2850 1.3874
52.2100 25.2717 1.3805
52.2300 25.2584 1.3845
52.2500 25.2451 1.3798
52.2700 25.2318 1.3801
52.2900 25.2184 1.3789
52.3100 25.2050 1.3781
52.3300 25.1917 1.3763
52.3500 25.1784 1.3748
52.3700 25.1650 1.3750
52.3900 25.1516 1.3722
52.4100 25.1383 1.3735
52.4300 25.1250 1.3704
52.4500 25.1116 1.3699
52.4700 25.0983 1.3675
52.4900 25.0849 1.3693
52.5100 25.0716 1.3651
52.5300 25.0583 1.3665
52.5500 25.0450 1.3639
52.5700 25.0317 1.3635
52.5900 25.0184 1.3623
52.6100 25.0051 1.3618
52.6300 24.9918 1.3591
52.6500 24.9784 1.3592
52.6700 24.9650 1.3580
52.6900 24.9517 1.3561
52.7100 24.9384 1.3564
52.7300 24.9250 1.3539
52.7500 24.9117 1.3538
52.7700 24.8983 1.3510
52.7900 24.8850 1.3533
52.8100 24.8716 1.3471
52.8300 24.8583 1.3515
52.8500 24.8450 1.3467
52.8700 24.8316 1.3475
52.8900 24.8183 1.3448
52.9100 24.8050 1.3462
52.9300 24.7917 1.3429
52.9500 24.7783 1.3429
52.9700 24.7651 1.3414
52.9900 24.7518 1.3400
53.0100 24.7384 1.3400
53.0300 24.7251 1.3378
53.0500 24.7117 1.3381
53.0700 24.6984 1.3346
53.0900 24.6850 1.3371
53.1100 24.6717 1.3315
53.1300 24.6583 1.3351
53.1500 24.6450 1.3308
53.1700 24.6317 1.3317
53.1900 24.6183 1.3288
53.2100 24.6049 1.3298
53.2300 24.5916 1.3272
53.2500 24.5783 1.3265
53.2700 24.5650 1.3269
53.2900 24.5517 1.3234
53.3100 24.5383 1.3245
53.3300 24.5250 1.3217
53.3500 24.5117 1.3220
53.3700 24.4984 1.3194
53.3900 24.4850 1.3216
53.4100 24.4717 1.3167
53.4300 24.4584 1.3188
53.4500 24.4451 1.3156
53.4700 24.4317 1.3151
53.4900 24.4183 1.3142
53.5100 24.4050 1.3137
53.5300 24.3916 1.3116
53.5500 24.3783 1.3109
53.5700 24.3649 1.3110
53.5900 24.3516 1.3083
53.6100 24.3383 1.3091
53.6300 24.3250 1.3065
53.6500 24.3117 1.3065
53.6700 24.2983 1.3040
53.6900 24.2850 1.3064
53.7100 24.2718 1.3008
53.7300 24.2584 1.3041
53.7500 24.2450 1.2997
53.7700 24.2317 1.3017
53.7900 24.2184 1.2971
53.8100 24.2050 1.3002
53.8300 24.1917 1.2946
53.8500 24.1783 1.2978
53.8700 24.1650 1.2942
53.8900 24.1517 1.2945
53.9100 24.1383 1.2928
53.9300 24.1250 1.2922
53.9500 24.1116 1.2918
53.9700 24.0983 1.2887
53.9900 24.0850 1.2915
54.0100 24.0717 1.2857
54.0300 24.0583 1.2893
54.0500 24.0450 1.2846
54.0700 24.0317 1.2873
54.0900 24.0184 1.2822
54.1100 24.0051 1.2864
54.1300 23.9917 1.2800
54.1500 23.9784 1.2832
54.1700 23.9650 1.2794
54.1900 23.9517 1.2799
54.2100 23.9383 1.2788
54.2300 23.9249 1.2772
54.2500 23.9116 1.2768
54.2700 23.8983 1.2740
54.2900 23.8850 1.2764
54.3100 23.8716 1.2722
54.3300 23.8584 1.2744
54.3500 23.8451 1.2709
54.3700 23.8317 1.2725
54.3900 23.8184 1.2681
54.4100 23.8051 1.2715
54.4300 23.7918 1.2661
54.4500 23.7784 1.2687
54.4700 23.7651 1.2651
54.4900 23.7517 1.2662
54.5100 23.7384 1.2634
54.5300 23.7250 1.2638
54.5500 23.7117 1.2623
54.5700 23.6983 1.2609
54.5900 23.6850 1.2612
54.6100 23.6717 1.2586
54.6300 23.6583 1.2584
54.6500 23.6450 1.2578
54.6700 23.6316 1.2575
54.6900 23.6183 1.2537
54.7100 23.6050 1.2579
54.7300 23.5917 1.2502
54.7500 23.5783 1.2567
54.7700 23.5650 1.2493
54.7900 23.5517 1.2534
54.8100 23.5384 1.2477
54.8300 23.5250 1.2514
54.8500 23.5117 1.2466
54.8700 23.4983 1.2488
54.8900 23.4850 1.2454
54.9100 23.4717 1.2458
54.9300 23.4583 1.2443
54.9500 23.4450 1.2432
54.9700 23.4316 1.2444
54.9900 23.4183 1.2397
55.0100 23.4050 1.2439
55.0300 23.3916 1.2375
55.0500 23.3783 1.2412
55.0700 23.3650 1.2364
55.0900 23.3517 1.2393
55.1100 23.3383 1.2343
55.1300 23.3250 1.2371
55.1500 23.3117 1.2339
55.1700 23.2984 1.2328
55.1900 23.2850 1.2338
55.2100 23.2717 1.2317
55.2300 23.2584 1.2311
55.2500 23.2451 1.2294
55.2700 23.2317 1.2298
55.2900 23.2183 1.2264
55.3100 23.2050 1.2303
55.3300 23.1917 1.2241
55.3500 23.1784 1.2267
55.3700 23.1650 1.2241
55.3900 23.1516 1.2246
55.4100 23.1383 1.2214
55.4300 23.1250 1.2238
55.4500 23.1117 1.2200
55.4700 23.0984 1.2203
55.4900 23.0850 1.2198
55.5100 23.0717 1.2186
55.5300 23.0584 1.2171
55.5500 23.0451 1.2173
55.5700 23.0317 1.2162
55.5900 23.0184 1.2146
55.6100 23.0051 1.2145
55.6300 22.9917 1.2128
55.6500 22.9783 1.2124
55.6700 22.9650 1.2107
55.6900 22.9516 1.2125
55.7100 22.9383 1.2075
55.7300 22.9250 1.2112
55.7500 22.9116 1.2070
55.7700 22.8983 1.2079
55.7900 22.8850 1.2056
55.8100 22.8717 1.2069
55.8300 22.8584 1.2028
55.8500 22.8451 1.2049
55.8700 22.8318 1.2022
55.8900 22.8184 1.2015
55.9100 22.8051 1.2017
55.9300 22.7917 1.1997
55.9500 22.7783 1.1995
55.9700 22.7650 1.1976
55.9900 22.7517 1.1983
56.0100 22.7383 1.1949
56.0300 22.7249 1.1975
56.0500 22.7116 1.1937
56.0700 22.6983 1.1941
56.0900 22.6850 1.1931
56.1100 22.6716 1.1927
56.1300 22.6583 1.1915
56.1500 22.6450 1.1906
56.1700 22.6317 1.1904
56.1900 22.6183 1.1879
56.2100 22.6050 1.1890
56.2300 22.5917 1.1871
56.2500 22.5784 1.1864
56.2700 22.5650 1.1850
56.2900 22.5517 1.1854
56.3100 22.5384 1.1828
56.3300 22.5250 1.1836
56.3500 22.5117 1.1817
56.3700 22.4983 1.1810
56.3900 22.4850 1.1800
56.4100 22.4717 1.1801
56.4300 22.4583 1.1777
56.4500 22.4450 1.1786
56.4700 22.4316 1.1767
56.4900 22.4183 1.1757
56.5100 22.4050 1.1748
56.5300 22.3917 1.1750
56.5500 22.3784 1.1731
56.5700 22.3650 1.1736
56.5900 22.3517 1.1719
56.6100 22.3384 1.1703
56.6300 22.3250 1.1714
56.6500 22.3117 1.1689
56.6700 22.2983 1.1702
56.6900 22.2850 1.1665
56.7100 22.2717 1.1689
56.7300 22.2584 1.1638
56.7500 22.2450 1.1672
56.7700 22.2317 1.1638
56.7900 22.2184 1.1636
56.8100 22.2050 1.1619
56.8300 22.1917 1.1620
56.8500 22.1783 1.1609
56.8700 22.1650 1.1599
56.8900 22.1517 1.1605
56.9100 22.1383 1.1573
56.9300 22.1250 1.1588
56.9500 22.1117 1.1561
56.9700 22.0984 1.1572
56.9900 22.0851 1.1544
57.0100 22.0717 1.1563
57.0300 22.0584 1.1517
57.0500 22.0450 1.1538
57.0700 22.0317 1.1518
57.0900 22.0183 1.1505
57.1100 22.0050 1.1514
57.1300 21.9917 1.1487
57.1500 21.9783 1.1489
57.1700 21.9650 1.1471
57.1900 21.9516 1.1485
57.2100 21.9383 1.1452
57.2300 21.9250 1.1466
57.2500 21.9117 1.1442
57.2700 21.8983 1.1441
57.2900 21.8850 1.1427
57.3100 21.8717 1.1440
57.3300 21.8584 1.1393
57.3500 21.8451 1.1427
57.3700 21.8317 1.1385
57.3900 21.8184 1.1398
57.4100 21.8051 1.1372
57.4300 21.7917 1.1386
57.4500 21.7783 1.1350
57.4700 21.7650 1.1369
57.4900 21.7516 1.1344
57.5100 21.7383 1.1345
57.5300 21.7250 1.1326
57.5500 21.7116 1.1336
57.5700 21.6983 1.1312
57.5900 21.6850 1.1310
57.6100 21.6717 1.1317
57.6300 21.6583 1.1278
57.6500 21.6450 1.1305
57.6700 21.6317 1.1264
57.6900 21.6184 1.1281
57.7100 21.6051 1.1247
57.7300 21.5917 1.1272
57.7500 21.5783 1.1232
57.7700 21.5650 1.1250
57.7900 21.5517 1.1226
57.8100 21.5384 1.1227
57.8300 21.5250 1.1210
57.8500 21.5117 1.1213
57.8700 21.4983 1.1191
57.8900 21.4850 1.1191
57.9100 21.4716 1.1196
57.9300 21.4583 1.1160
57.9500 21.4450 1.1177
57.9700 21.4317 1.1151
57.9900 21.4183 1.1160
58.0100 21.4050 1.1138
58.0300 21.3917 1.1152
58.0500 21.3784 1.1113
58.0700 21.3651 1.1128
58.0900 21.3517 1.1114
58.1100 21.3384 1.1106
58.1300 21.3251 1.1091
58.1500 21.3117 1.1100
58.1700 21.2983 1.1069
58.1900 21.2850 1.1082
58.2100 21.2717 1.1066
58.2300 21.2584 1.1059
58.2500 21.2451 1.1047
58.2700 21.2317 1.1048
58.2900 21.2183 1.1036
58.3100 21.2050 1.1029
58.3300 21.1917 1.1025
58.3500 21.1784 1.1002
58.3700 21.1650 1.1020
58.3900 21.1517 1.0994
58.4100 21.1384 1.0997
58.4300 21.1251 1.0971
58.4500 21.1117 1.0990
58.4700 21.0984 1.0955
58.4900 21.0851 1.0965
58.5100 21.0717 1.0942
58.5300 21.0584 1.0954
58.5500 21.0450 1.0922
58.5700 21.0316 1.0942
58.5900 21.0183 1.0916
58.6100 21.0050 1.0913
58.6300 20.9916 1.0915
58.6500 20.9783 1.0888
58.6700 20.9650 1.0898
58.6900 20.9517 1.0878
58.7100 20.9383 1.0890
58.7300 20.9250 1.0857
58.7500 20.9117 1.0879
58.7700 20.8984 1.0843
58.7900 20.8851 1.0854
58.8100 20.8717 1.0834
58.8300 20.8584 1.0839
58.8500 20.8450 1.0818
58.8700 20.8317 1.0823
58.8900 20.8184 1.0806
58.9100 20.8050 1.0798
58.9300 20.7917 1.0803
58.9500 20.7784 1.0769
58.9700 20.7650 1.0791
58.9900 20.7516 1.0767
59.0100 20.7383 1.0771
59.0300 20.7249 1.0741
59.0500 20.7116 1.0764
59.0700 20.6983 1.0730
59.0900 20.6850 1.0742
59.1100 20.6717 1.0723
59.1300 20.6584 1.0723
59.1500 20.6451 1.0698
59.1700 20.6317 1.0715
59.1900 20.6184 1.0691
59.2100 20.6050 1.0689
59.2300 20.5917 1.0684
59.2500 20.5784 1.0667
59.2700 20.5650 1.0668
59.2900 20.5516 1.0654
59.3100 20.5383 1.0659
59.3300 20.5250 1.0629
59.3500 20.5116 1.0649
59.3700 20.4983 1.0622
59.3900 20.4850 1.0626
59.4100 20.4717 1.0611
59.4300 20.4584 1.0610
59.4500 20.4450 1.0588
59.4700 20.4317 1.0607
59.4900 20.4184 1.0573
59.5100 20.4051 1.0577
59.5300 20.3917 1.0575
59.5500 20.3784 1.0555
59.5700 20.3650 1.0560
59.5900 20.3517 1.0537
59.6100 20.3384 1.0550
59.6300 20.3250 1.0515
59.6500 20.3116 1.0545
59.6700 20.2983 1.0500
59.6900 20.2850 1.0516
59.7100 20.2716 1.0496
59.7300 20.2583 1.0506
59.7500 20.2450 1.0474
59.7700 20.2317 1.0490
59.7900 20.2183 1.0464
59.8100 20.2050 1.0473
59.8300 20.1917 1.0458
59.8500 20.1784 1.0448
59.8700 20.1651 1.0446
59.8900 20.1517 1.0431
59.9100 20.1383 1.0439
59.9300 20.1250 1.0406
59.9500 20.1117 1.0433
59.9700 20.0983 1.0390
59.9900 20.0850 1.0411
60.0100 20.0716 1.0386
60.0300 20.0583 1.0399
60.0500 20.0450 1.0357
60.0700 20.0316 1.0388
60.0900 20.0183 1.0351
60.1100 20.0050 1.0369
60.1300 19.9917 1.0345
60.1500 19.9784 1.0347
60.1700 19.9650 1.0329
60.1900 19.9517 1.0335
60.2100 19.9384 1.0320
60.2300 19.9251 1.0305
60.2500 19.9117 1.0322
60.2700 19.8983 1.0288
60.2900 19.8850 1.0298
60.3100 19.8717 1.0279
60.3300 19.8584 1.0285
60.3500 19.8450 1.0257
60.3700 19.8316 1.0287
60.3900 19.8183 1.0237
60.4100 19.8050 1.0260
60.4300 19.7916 1.0229
60.4500 19.7783 1.0253
60.4700 19.7650 1.0208
60.4900 19.7517 1.0239
60.5100 19.7384 1.0204
60.5300 19.7250 1.0209
60.5500 19.7117 1.0201
60.5700 19.6984 1.0191
60.5900 19.6851 1.0184
60.6100 19.6717 1.0174
60.6300 19.6584 1.0178
60.6500 19.6451 1.0147
60.6700 19.6317 1.0174
60.6900 19.6184 1.0130
60.7100 19.6050 1.0160
60.7300 19.5917 1.0116
60.7500 19.5784 1.0147
60.7700 19.5650 1.0092
60.7900 19.5516 1.0135
60.8100 19.5383 1.0096
60.8300 19.5250 1.0109
60.8500 19.5117 1.0083
60.8700 19.4983 1.0090
60.8900 19.4850 1.0073
60.9100 19.4717 1.0076
60.9300 19.4584 1.0069
60.9500 19.4451 1.0045
60.9700 19.4317 1.0064
60.9900 19.4184 1.0031
61.0100 19.4050 1.0040
61.0300 19.3917 1.0018
61.0500 19.3784 1.0034
61.0700 19.3650 0.9996
61.0900 19.3516 1.0023
61.1100 19.3384 0.9986
61.1300 19.3251 0.9997
61.1500 19.3117 0.9977
61.1700 19.2983 0.9990
61.1900 19.2850 0.9962
61.2100 19.2716 0.9970
61.2300 19.2583 0.9959
61.2500 19.2450 0.9949
61.2700 19.2317 0.9949
61.2900 19.2184 0.9940
61.3100 19.2051 0.9929
61.3300 19.1918 0.9916
61.3500 19.1784 0.9926
61.3700 19.1651 0.9897
61.3900 19.1517 0.9912
61.4100 19.1383 0.9883
61.4300 19.1250 0.9897
61.4500 19.1116 0.9871
61.4700 19.0983 0.9884
61.4900 19.0850 0.9855
61.5100 19.0716 0.9868
61.5300 19.0583 0.9854
61.5500 19.0450 0.9843
61.5700 19.0317 0.9847
61.5900 19.0184 0.9827
61.6100 19.0050 0.9835
61.6300 18.9917 0.9809
61.6500 18.9784 0.9830
61.6700 18.9651 0.9789
61.6900 18.9518 0.9813
61.7100 18.9384 0.9776
61.7300 18.9250 0.9799
61.7500 18.9117 0.9762
61.7700 18.8984 0.9784
61.7900 18.8850 0.9750
61.8100 18.8716 0.9764
61.8300 18.8583 0.9749
61.8500 18.8450 0.9733
61.8700 18.8317 0.9744
61.8900 18.8183 0.9720
61.9100 18.8050 0.9728
61.9300 18.7917 0.9704
61.9500 18.7784 0.9719
61.9700 18.7650 0.9689
61.9900 18.7517 0.9703
62.0100 18.7384 0.9678
62.0300 18.7251 0.9693
62.0500 18.7117 0.9656
62.0700 18.6984 0.9684
62.0900 18.6851 0.9643
62.1100 18.6717 0.9666
62.1300 18.6584 0.9641
62.1500 18.6450 0.9644
62.1700 18.6316 0.9639
62.1900 18.6183 0.9623
62.2100 18.6050 0.9621
62.2300 18.5917 0.9607
62.2500 18.5783 0.9613
62.2700 18.5650 0.9599
62.2900 18.5517 0.9601
62.3100 18.5383 0.9582
62.3300 18.5250 0.9593
62.3500 18.5117 0.9564
62.3700 18.4984 0.9586
62.3900 18.4851 0.9547
62.4100 18.4717 0.9570
62.4300 18.4584 0.9542
62.4500 18.4451 0.9549
62.4700 18.4318 0.9531
62.4900 18.4184 0.9522
62.5100 18.4050 0.9523
62.5300 18.3916 0.9502
62.5500 18.3783 0.9518
62.5700 18.3650 0.9478
62.5900 18.3516 0.9504
62.6100 18.3383 0.9466
62.6300 18.3250 0.9497
62.6500 18.3117 0.9442
62.6700 18.2984 0.9493
62.6900 18.2850 0.9435
62.7100 18.2717 0.9462
62.7300 18.2584 0.9440
62.7500 18.2451 0.9432
62.7700 18.2318 0.9429
62.7900 18.2184 0.9418
62.8100 18.2050 0.9429
62.8300 18.1917 0.9393
62.8500 18.1784 0.9419
62.8700 18.1650 0.9377
62.8900 18.1516 0.9404
62.9100 18.1383 0.9368
62.9300 18.1250 0.9388
62.9500 18.1117 0.9351
62.9700 18.0983 0.9379
62.9900 18.0849 0.9344
63.0100 18.0716 0.9353
63.0300 18.0584 0.9342
63.0500 18.0450 0.9334
63.0700 18.0317 0.9326
63.0900 18.0184 0.9327
63.1100 18.0051 0.9320
63.1300 17.9918 0.9297
63.1500 17.9784 0.9314
63.1700 17.9650 0.9284
63.1900 17.9517 0.9302
63.2100 17.9384 0.9264
63.2300 17.9250 0.9293
63.2500 17.9116 0.9245
63.2700 17.8983 0.9285
63.2900 17.8850 0.9235
63.3100 17.8717 0.9260
63.3300 17.8583 0.9232
63.3500 17.8450 0.9248
63.3700 17.8317 0.9213
63.3900 17.8184 0.9242
63.4100 17.8050 0.9201
63.4300 17.7917 0.9213
63.4500 17.7784 0.9202
63.4700 17.7651 0.9187
63.4900 17.7517 0.9193
63.5100 17.7384 0.9176
63.5300 17.7250 0.9188
63.5500 17.7117 0.9148
63.5700 17.6984 0.9178
63.5900 17.6850 0.9138
63.6100 17.6717 0.9162
63.6300 17.6583 0.9125
63.6500 17.6450 0.9155
63.6700 17.6316 0.9103
63.6900 17.6183 0.9146
63.7100 17.6050 0.9094
63.7300 17.5917 0.9120
63.7500 17.5784 0.9094
63.7700 17.5651 0.9095
63.7900 17.5517 0.9087
63.8100 17.5384 0.9076
63.8300 17.5251 0.9085
63.8500 17.5117 0.9053
63.8700 17.4983 0.9076
63.8900 17.4850 0.9045
63.9100 17.4717 0.9057
63.9300 17.4583 0.9030
63.9500 17.4450 0.9052
63.9700 17.4317 0.9006
63.9900 17.4183 0.9038
64.0100 17.4050 0.8998
64.0300 17.3917 0.9017
64.0500 17.3783 0.8998
64.0700 17.3650 0.9001
64.0900 17.3517 0.8984
64.1100 17.3384 0.8981
64.1300 17.3250 0.8983
64.1500 17.3117 0.8954
64.1700 17.2984 0.8980
64.1900 17.2851 0.8944
64.2100 17.2717 0.8954
64.2300 17.2584 0.8932
64.2500 17.2451 0.8953
64.2700 17.2317 0.8911
64.2900 17.2184 0.8941
64.3100 17.2050 0.8897
64.3300 17.1916 0.8929
64.3500 17.1783 0.8884
64.3700 17.1650 0.8915
64.3900 17.1517 0.8874
64.4100 17.1383 0.8903
64.4300 17.1249 0.8869
64.4500 17.1116 0.8875
64.4700 17.0983 0.8865
64.4900 17.0850 0.8859
64.5100 17.0716 0.8851
64.5300 17.0583 0.8845
64.5500 17.0451 0.8853
64.5700 17.0318 0.8813
64.5900 17.0184 0.8844
64.6100 17.0050 0.8800
64.6300 16.9917 0.8830
64.6500 16.9784 0.8789
64.6700 16.9650 0.8818
64.6900 16.9517 0.8779
64.7100 16.9383 0.8802
64.7300 16.9250 0.8777
64.7500 16.9116 0.8773
64.7700 16.8983 0.8769
64.7900 16.8850 0.8760
64.8100 16.8717 0.8760
64.8300 16.8584 0.8740
64.8500 16.8450 0.8754
64.8700 16.8317 0.8721
64.8900 16.8184 0.8748
64.9100 16.8051 0.8703
64.9300 16.7918 0.8729
64.9500 16.7784 0.8690
64.9700 16.7651 0.8721
64.9900 16.7517 0.8682
65.0100 16.7384 0.8699
65.0300 16.7251 0.8676
65.0500 16.7117 0.8674
65.0700 16.6983 0.8678
65.0900 16.6850 0.8656
65.1100 16.6717 0.8660
65.1300 16.6583 0.8640
65.1500 16.6449 0.8652
65.1700 16.6316 0.8623
65.1900 16.6184 0.8645
65.2100 16.6050 0.8610
65.2300 16.5917 0.8632
65.2500 16.5784 0.8596
65.2700 16.5651 0.8625
65.2900 16.5517 0.8576
65.3100 16.5383 0.8607
65.3300 16.5250 0.8574
65.3500 16.5117 0.8588
65.3700 16.4984 0.8562
65.3900 16.4851 0.8572
65.4100 16.4717 0.8551
65.4300 16.4583 0.8550
65.4500 16.4450 0.8548
65.4700 16.4317 0.8531
65.4900 16.4184 0.8540
65.5100 16.4050 0.8520
65.5300 16.3916 0.8531
65.5500 16.3783 0.8496
65.5700 16.3650 0.8527
65.5900 16.3517 0.8480
65.6100 16.3383 0.8516
65.6300 16.3250 0.8467
65.6500 16.3117 0.8493
65.6700 16.2984 0.8461
65.6900 16.2850 0.8479
65.7100 16.2717 0.8455
65.7300 16.2584 0.8457
65.7500 16.2450 0.8453
65.7700 16.2317 0.8426
65.7900 16.2183 0.8451
65.8100 16.2050 0.8412
65.8300 16.1917 0.8437
65.8500 16.1783 0.8393
65.8700 16.1649 0.8434
65.8900 16.1516 0.8375
65.9100 16.1383 0.8419
65.9300 16.1250 0.8371
65.9500 16.1117 0.8400
65.9700 16.0983 0.8371
65.9900 16.0850 0.8383
66.0100 16.0717 0.8357
66.0300 16.0584 0.8358
66.0500 16.0450 0.8360
66.0700 16.0317 0.8339
66.0900 16.0184 0.8344
66.1100 16.0050 0.8324
66.1300 15.9917 0.8334
66.1500 15.9783 0.8310
66.1700 15.9650 0.8325
66.1900 15.9517 0.8292
66.2100 15.9384 0.8312
66.2300 15.9250 0.8290
66.2500 15.9116 0.8298
66.2700 15.8983 0.8264
66.2900 15.8850 0.8292
66.3100 15.8716 0.8252
66.3300 15.8583 0.8272
66.3500 15.8450 0.8250
66.3700 15.8318 0.8254
66.3900 15.8184 0.8235
66.4100 15.8051 0.8246
66.4300 15.7917 0.8231
66.4500 15.7784 0.8226
66.4700 15.7651 0.8219
66.4900 15.7517 0.8204
66.5100 15.7383 0.8213
66.5300 15.7250 0.8190
66.5500 15.7116 0.8205
66.5700 15.6983 0.8172
66.5900 15.6849 0.8196
66.6100 15.6716 0.8158
66.6300 15.6583 0.8178
66.6500 15.6450 0.8152
66.6700 15.6317 0.8159
66.6900 15.6183 0.8149
66.7100 15.6050 0.8132
66.7300 15.5917 0.8146
66.7500 15.5784 0.8113
66.7700 15.5650 0.8142
66.7900 15.5517 0.8101
66.8100 15.5384 0.8121
66.8300 15.5251 0.8085
66.8500 15.5117 0.8110
66.8700 15.4983 0.8072
66.8900 15.4849 0.8102
66.9100 15.4716 0.8065
66.9300 15.4583 0.8073
66.9500 15.4449 0.8063
66.9700 15.4316 0.8059
66.9900 15.4183 0.8054
67.0100 15.4050 0.8039
67.0300 15.3917 0.8050
67.0500 15.3784 0.8021
67.0700 15.3651 0.8032
67.0900 15.3518 0.8008
67.1100 15.3384 0.8018
67.1300 15.3250 0.8004
67.1500 15.3117 0.8004
67.1700 15.2983 0.7982
67.1900 15.2850 0.7996
67.2100 15.2717 0.7974
67.2300 15.2583 0.7985
67.2500 15.2450 0.7957
67.2700 15.2317 0.7971
67.2900 15.2183 0.7942
67.3100 15.2050 0.7955
67.3300 15.1916 0.7944
67.3500 15.1783 0.7931
67.3700 15.1650 0.7934
67.3900 15.1517 0.7918
67.4100 15.1384 0.7924
67.4300 15.1251 0.7904
67.4500 15.1118 0.7918
67.4700 15.0984 0.7878
67.4900 15.0851 0.7908
67.5100 15.0717 0.7870
67.5300 15.0584 0.7892
67.5500 15.0450 0.7855
67.5700 15.0317 0.7883
67.5900 15.0183 0.7847
67.6100 15.0050 0.7861
67.6300 14.9916 0.7852
67.6500 14.9783 0.7830
67.6700 14.9650 0.7846
67.6900 14.9516 0.7819
67.7100 14.9383 0.7836
67.7300 14.9250 0.7793
67.7500 14.9117 0.7835
67.7700 14.8984 0.7773
67.7900 14.8851 0.7823
67.8100 14.8718 0.7765
67.8300 14.8584 0.7800
67.8500 14.8451 0.7761
67.8700 14.8317 0.7790
67.8900 14.8184 0.7745
67.9100 14.8051 0.7770
67.9300 14.7917 0.7742
67.9500 14.7783 0.7747
67.9700 14.7650 0.7746
67.9900 14.7517 0.7725
68.0100 14.7383 0.7731
68.0300 14.7249 0.7713
68.0500 14.7116 0.7727
68.0700 14.6983 0.7688
68.0900 14.6850 0.7713
68.1100 14.6717 0.7687
68.1300 14.6583 0.7693
68.1500 14.6450 0.7678
68.1700 14.6317 0.7684
68.1900 14.6184 0.7657
68.2100 14.6051 0.7666
68.2300 14.5917 0.7653
68.2500 14.5784 0.7651
68.2700 14.5650 0.7638
68.2900 14.5517 0.7635
68.3100 14.5383 0.7628
68.3300 14.5250 0.7617
68.3500 14.5117 0.7626
68.3700 14.4983 0.7594
68.3900 14.4850 0.7611
68.4100 14.4716 0.7589
68.4300 14.4583 0.7594
68.4500 14.4450 0.7576
68.4700 14.4317 0.7593
68.4900 14.4183 0.7558
68.5100 14.4050 0.7580
68.5300 14.3917 0.7547
68.5500 14.3784 0.7565
68.5700 14.3651 0.7537
68.5900 14.3517 0.7546
68.6100 14.3384 0.7533
68.6300 14.3250 0.7517
68.6500 14.3117 0.7536
68.6700 14.2983 0.7488
68.6900 14.2849 0.7527
68.7100 14.2716 0.7485
68.7300 14.2583 0.7507
68.7500 14.2450 0.7473
68.7700 14.2316 0.7499
68.7900 14.2184 0.7454
68.8100 14.2051 0.7483
68.8300 14.1917 0.7451
68.8500 14.1784 0.7464
68.8700 14.1650 0.7441
68.8900 14.1517 0.7448
68.9100 14.1384 0.7438
68.9300 14.1251 0.7424
68.9500 14.1117 0.7437
68.9700 14.0984 0.7397
68.9900 14.0850 0.7424
69.0100 14.0717 0.7390
69.0300 14.0583 0.7411
69.0500 14.0450 0.7382
69.0700 14.0317 0.7399
69.0900 14.0184 0.7363
69.1100 14.0050 0.7383
69.1300 13.9916 0.7360
69.1500 13.9783 0.7366
69.1700 13.9650 0.7344
69.1900 13.9517 0.7350
69.2100 13.9383 0.7339
69.2300 13.9250 0.7331
69.2500 13.9117 0.7335
69.2700 13.8984 0.7308
69.2900 13.8850 0.7328
69.3100 13.8717 0.7294
69.3300 13.8584 0.7311
69.3500 13.8450 0.7277
69.3700 13.8317 0.7311
69.3900 13.8183 0.7257
69.4100 13.8050 0.7295
69.4300 13.7917 0.7252
69.4500 13.7783 0.7276
69.4700 13.7650 0.7236
69.4900 13.7516 0.7272
69.5100 13.7383 0.7223
69.5300 13.7250 0.7243
69.5500 13.7116 0.7230
69.5700 13.6983 0.7225
69.5900 13.6850 0.7224
69.6100 13.6717 0.7200
69.6300 13.6584 0.7218
69.6500 13.6450 0.7171
69.6700 13.6317 0.7223
69.6900 13.6184 0.7157
69.7100 13.6050 0.7204
69.7300 13.5917 0.7144
69.7500 13.5783 0.7190
69.7700 13.5650 0.7131
69.7900 13.5517 0.7176
69.8100 13.5383 0.7124
69.8300 13.5250 0.7149
69.8500 13.5116 0.7131
69.8700 13.4983 0.7130
69.8900 13.4850 0.7117
69.9100 13.4717 0.7109
69.9300 13.4584 0.7124
69.9500 13.4450 0.7084
69.9700 13.4317 0.7117
69.9900 13.4184 0.7062
70.0100 13.4051 0.7102
70.0300 13.3917 0.7057
70.0500 13.3784 0.7090
70.0700 13.3650 0.7041
70.0900 13.3517 0.7073
70.1100 13.3383 0.7031
70.1300 13.3250 0.7051
70.1500 13.3116 0.7034
70.1700 13.2983 0.7032
70.1900 13.2850 0.7020
70.2100 13.2716 0.7014
70.2300 13.2583 0.7019
70.2500 13.2450 0.6994
70.2700 13.2317 0.7011
70.2900 13.2184 0.6982
70.3100 13.2051 0.6996
70.3300 13.1918 0.6969
70.3500 13.1784 0.6988
70.3700 13.1651 0.6950
70.3900 13.1517 0.6973
70.4100 13.1383 0.6939
70.4300 13.1250 0.6952
70.4500 13.1117 0.6935
70.4700 13.0983 0.6944
70.4900 13.0849 0.6925
70.5100 13.0716 0.6925
70.5300 13.0583 0.6915
70.5500 13.0450 0.6904
70.5700 13.0316 0.6912
70.5900 13.0183 0.6888
70.6100 13.0050 0.6901
70.6300 12.9917 0.6871
70.6500 12.9784 0.6888
70.6700 12.9650 0.6854
70.6900 12.9517 0.6882
70.7100 12.9384 0.6850
70.7300 12.9251 0.6851
70.7500 12.9117 0.6853
70.7700 12.8983 0.6837
70.7900 12.8850 0.6831
70.8100 12.8717 0.6824
70.8300 12.8583 0.6829
70.8500 12.8450 0.6800
70.8700 12.8316 0.6824
70.8900 12.8183 0.6780
70.9100 12.8050 0.6812
70.9300 12.7916 0.6768
70.9500 12.7783 0.6801
70.9700 12.7650 0.6756
70.9900 12.7517 0.6785
71.0100 12.7384 0.6746
71.0300 12.7250 0.6763
71.0500 12.7117 0.6748
71.0700 12.6984 0.6739
71.0900 12.6850 0.6734
71.1100 12.6717 0.6729
71.1300 12.6583 0.6726
71.1500 12.6450 0.6706
71.1700 12.6317 0.6712
71.1900 12.6183 0.6700
71.2100 12.6050 0.6702
71.2300 12.5917 0.6676
71.2500 12.5784 0.6694
71.2700 12.5650 0.6660
71.2900 12.5516 0.6682
71.3100 12.5383 0.6652
71.3300 12.5250 0.6663
71.3500 12.5117 0.6636
71.3700 12.4983 0.6655
71.3900 12.4850 0.6620
71.4100 12.4717 0.6649
71.4300 12.4584 0.6610
71.4500 12.4451 0.6629
71.4700 12.4317 0.6597
71.4900 12.4184 0.6609
71.5100 12.4051 0.6591
71.5300 12.3917 0.6589
71.5500 12.3784 0.6596
71.5700 12.3650 0.6553
71.5900 12.3516 0.6593
71.6100 12.3383 0.6538
71.6300 12.3250 0.6581
71.6500 12.3116 0.6529
71.6700 12.2983 0.6577
71.6900 12.2850 0.6503
71.7100 12.2717 0.6554
71.7300 12.2583 0.6511
71.7500 12.2450 0.6530
71.7700 12.2317 0.6509
71.7900 12.2184 0.6508
71.8100 12.2051 0.6500
71.8300 12.1917 0.6482
71.8500 12.1784 0.6509
71.8700 12.1650 0.6460
71.8900 12.1517 0.6491
71.9100 12.1383 0.6448
71.9300 12.1250 0.6473
71.9500 12.1116 0.6441
71.9700 12.0983 0.6459
71.9900 12.0850 0.6423
72.0100 12.0716 0.6443
72.0300 12.0583 0.6424
72.0500 12.0450 0.6424
72.0700 12.0317 0.6407
72.0900 12.0183 0.6419
72.1100 12.0050 0.6394
72.1300 11.9917 0.6395
72.1500 11.9784 0.6392
72.1700 11.9651 0.6375
72.1900 11.9517 0.6382
72.2100 11.9383 0.6368
72.2300 11.9250 0.6363
72.2500 11.9117 0.6344
72.2700 11.8984 0.6358
72.2900 11.8850 0.6329
72.3100 11.8717 0.6342
72.3300 11.8583 0.6320
72.3500 11.8450 0.6330
72.3700 11.8316 0.6302
72.3900 11.8183 0.6322
72.4100 11.8050 0.6287
72.4300 11.7917 0.6308
72.4500 11.7783 0.6282
72.4700 11.7650 0.6286
72.4900 11.7517 0.6281
72.5100 11.7384 0.6264
72.5300 11.7251 0.6269
72.5500 11.7117 0.6246
72.5700 11.6984 0.6266
72.5900 11.6851 0.6222
72.6100 11.6718 0.6245
72.6300 11.6584 0.6219
72.6500 11.6450 0.6231
72.6700 11.6316 0.6206
72.6900 11.6184 0.6211
72.7100 11.6050 0.6194
72.7300 11.5917 0.6195
72.7500 11.5783 0.6198
72.7700 11.5650 0.6169
72.7900 11.5517 0.6186
72.8100 11.5384 0.6161
72.8300 11.5250 0.6174
72.8500 11.5117 0.6140
72.8700 11.4984 0.6168
72.8900 11.4850 0.6125
72.9100 11.4717 0.6151
72.9300 11.4583 0.6126
72.9500 11.4450 0.6128
72.9700 11.4317 0.6109
72.9900 11.4184 0.6111
73.0100 11.4050 0.6106
73.0300 11.3917 0.6088
73.0500 11.3783 0.6098
73.0700 11.3650 0.6067
73.0900 11.3516 0.6075
73.1100 11.3383 0.6068
73.1300 11.3250 0.6068
73.1500 11.3117 0.6045
73.1700 11.2983 0.6062
73.1900 11.2850 0.6027
73.2100 11.2717 0.6042
73.2300 11.2584 0.6018
73.2500 11.2451 0.6026
73.2700 11.2317 0.6003
73.2900 11.2184 0.6018
73.3100 11.2050 0.5994
73.3300 11.1917 0.5994
73.3500 11.1784 0.5992
73.3700 11.1650 0.5978
73.3900 11.1517 0.5976
73.4100 11.1383 0.5965
73.4300 11.1250 0.5965
73.4500 11.1116 0.5935
73.4700 11.0983 0.5974
73.4900 11.0850 0.5914
73.5100 11.0717 0.5957
73.5300 11.0583 0.5904
73.5500 11.0450 0.5948
73.5700 11.0317 0.5892
73.5900 11.0184 0.5925
73.6100 11.0051 0.5892
73.6300 10.9917 0.5900
73.6500 10.9784 0.5890
73.6700 10.9650 0.5880
73.6900 10.9517 0.5873
73.7100 10.9384 0.5863
73.7300 10.9250 0.5868
73.7500 10.9116 0.5833
73.7700 10.8983 0.5872
73.7900 10.8850 0.5813
73.8100 10.8716 0.5857
73.8300 10.8583 0.5796
73.8500 10.8450 0.5846
73.8700 10.8317 0.5785
73.8900 10.8184 0.5827
73.9100 10.8050 0.5782
73.9300 10.7917 0.5804
73.9500 10.7784 0.5779
73.9700 10.7651 0.5785
73.9900 10.7517 0.5766
74.0100 10.7384 0.5771
74.0300 10.7250 0.5760
74.0500 10.7117 0.5736
74.0700 10.6984 0.5758
74.0900 10.6850 0.5723
74.1100 10.6716 0.5745
74.1300 10.6583 0.5705
74.1500 10.6450 0.5732
74.1700 10.6316 0.5683
74.1900 10.6183 0.5732
74.2100 10.6050 0.5675
74.2300 10.5917 0.5705
74.2500 10.5784 0.5667
74.2700 10.5650 0.5690
74.2900 10.5517 0.5651
74.3100 10.5384 0.5673
74.3300 10.5251 0.5648
74.3500 10.5117 0.5644
74.3700 10.4984 0.5653
74.3900 10.4850 0.5626
74.4100 10.4717 0.5636
74.4300 10.4584 0.5608
74.4500 10.4450 0.5630
74.4700 10.4316 0.5587
74.4900 10.4183 0.5627
74.5100 10.4050 0.5572
74.5300 10.3917 0.5597
74.5500 10.3783 0.5571
74.5700 10.3650 0.5588
74.5900 10.3517 0.5548
74.6100 10.3384 0.5570
74.6300 10.3250 0.5545
74.6500 10.3117 0.5545
74.6700 10.2984 0.5543
74.6900 10.2851 0.5530
74.7100 10.2717 0.5522
74.7300 10.2584 0.5515
74.7500 10.2450 0.5524
74.7700 10.2317 0.5481
74.7900 10.2184 0.5518
74.8100 10.2050 0.5471
74.8300 10.1916 0.5497
74.8500 10.1783 0.5461
74.8700 10.1650 0.5480
74.8900 10.1516 0.5450
74.9100 10.1383 0.5470
74.9300 10.1250 0.5438
74.9500 10.1117 0.5441
74.9700 10.0983 0.5436
74.9900 10.0850 0.5429
75.0100 10.0717 0.5426
75.0300 10.0584 0.5407
75.0500 10.0451 0.5426
75.0700 10.0317 0.5383
75.0900 10.0184 0.5411
75.1100 10.0051 0.5378
75.1300 9.9918 0.5386
75.1500 9.9784 0.5365
75.1700 9.9650 0.5378
75.1900 9.9516 0.5349
75.2100 9.9383 0.5362
75.2300 9.9250 0.5348
75.2500 9.9116 0.5332
75.2700 9.8982 0.5342
75.2900 9.8849 0.5323
75.3100 9.8716 0.5322
75.3300 9.8583 0.5304
75.3500 9.8450 0.5323
75.3700 9.8317 0.5279
75.3900 9.8184 0.5308
75.4100 9.8051 0.5270
75.4300 9.7917 0.5289
75.4500 9.7784 0.5256
75.4700 9.7650 0.5287
75.4900 9.7517 0.5233
75.5100 9.7384 0.5264
75.5300 9.7250 0.5233
75.5500 9.7116 0.5235
75.5700 9.6983 0.5230
75.5900 9.6850 0.5221
75.6100 9.6717 0.5211
75.6300 9.6583 0.5204
75.6500 9.6450 0.5210
75.6700 9.6317 0.5180
75.6900 9.6184 0.5199
75.7100 9.6050 0.5165
75.7300 9.5917 0.5192
75.7500 9.5784 0.5143
75.7700 9.5651 0.5188
75.7900 9.5518 0.5124
75.8100 9.5384 0.5159
75.8300 9.5251 0.5129
75.8500 9.5117 0.5133
75.8700 9.4984 0.5125
75.8900 9.4850 0.5116
75.9100 9.4716 0.5109
75.9300 9.4583 0.5092
75.9500 9.4450 0.5105
75.9700 9.4316 0.5070
75.9900 9.4183 0.5096
76.0100 9.4050 0.5061
76.0300 9.3917 0.5077
76.0500 9.3784 0.5042
76.0700 9.3651 0.5075
76.0900 9.3517 0.5021
76.1100 9.3384 0.5060
76.1300 9.3251 0.5017
76.1500 9.3117 0.5028
76.1700 9.2984 0.5011
76.1900 9.2850 0.5016
76.2100 9.2717 0.4996
76.2300 9.2584 0.4992
76.2500 9.2450 0.4995
76.2700 9.2316 0.4971
76.2900 9.2183 0.4979
76.3100 9.2050 0.4956
76.3300 9.1917 0.4962
76.3500 9.1783 0.4936
76.3700 9.1650 0.4965
76.3900 9.1517 0.4912
76.4100 9.1383 0.4949
76.4300 9.1250 0.4910
76.4500 9.1117 0.4923
76.4700 9.0983 0.4901
76.4900 9.0850 0.4909
76.5100 9.0717 0.4891
76.5300 9.0583 0.4882
76.5500 9.0450 0.4893
76.5700 9.0317 0.4861
76.5900 9.0184 0.4873
76.6100 9.0050 0.4849
76.6300 8.9917 0.4859
76.6500 8.9783 0.4824
76.6700 8.9650 0.4864
76.6900 8.9517 0.4799
76.7100 8.9383 0.4848
76.7300 8.9250 0.4799
76.7500 8.9117 0.4822
76.7700 8.8983 0.4786
76.7900 8.8850 0.4813
76.8100 8.8717 0.4782
76.8300 8.8583 0.4786
76.8500 8.8450 0.4779
76.8700 8.8317 0.4757
76.8900 8.8184 0.4766
76.9100 8.8050 0.4749
76.9300 8.7917 0.4753
76.9500 8.7784 0.4724
76.9700 8.7650 0.4751
76.9900 8.7517 0.4705
77.0100 8.7383 0.4732
77.0300 8.7250 0.4696
77.0500 8.7117 0.4717
77.0700 8.6983 0.4677
77.0900 8.6850 0.4701
77.1100 8.6717 0.4670
77.1300 8.6583 0.4673
77.1500 8.6450 0.4673
77.1700 8.6317 0.4653
77.1900 8.6184 0.4655
77.2100 8.6051 0.4643
77.2300 8.5917 0.4642
77.2500 8.5784 0.4619
77.2700 8.5650 0.4640
77.2900 8.5517 0.4600
77.3100 8.5384 0.4614
77.3300 8.5250 0.4597
77.3500 8.5116 0.4598
77.3700 8.4983 0.4580
77.3900 8.4850 0.4583
77.4100 8.4717 0.4562
77.4300 8.4583 0.4563
77.4500 8.4450 0.4556
77.4700 8.4317 0.4547
77.4900 8.4184 0.4543
77.5100 8.4050 0.4537
77.5300 8.3917 0.4531
77.5500 8.3784 0.4513
77.5700 8.3651 0.4531
77.5900 8.3518 0.4490
77.6100 8.3384 0.4509
77.6300 8.3250 0.4482
77.6500 8.3117 0.4491
77.6700 8.2984 0.4457
77.6900 8.2850 0.4490
77.7100 8.2716 0.4444
77.7300 8.2583 0.4469
77.7500 8.2450 0.4437
77.7700 8.2317 0.4446
77.7900 8.2183 0.4429
77.8100 8.2050 0.4433
77.8300 8.1917 0.4422
77.8500 8.1784 0.4397
77.8700 8.1650 0.4417
77.8900 8.1517 0.4384
77.9100 8.1384 0.4400
77.9300 8.1251 0.4370
77.9500 8.1117 0.4388
77.9700 8.0984 0.4344
77.9900 8.0850 0.4378
78.0100 8.0717 0.4336
78.0300 8.0584 0.4356
78.0500 8.0450 0.4329
78.0700 8.0317 0.4333
78.0900 8.0183 0.4319
78.1100 8.0050 0.4317
78.1300 7.9917 0.4324
78.1500 7.9783 0.4282
78.1700 7.9650 0.4318
78.1900 7.9517 0.4274
78.2100 7.9384 0.4287
78.2300 7.9251 0.4262
78.2500 7.9117 0.4273
78.2700 7.8984 0.4244
78.2900 7.8850 0.4263
78.3100 7.8717 0.4223
78.3300 7.8584 0.4243
78.3500 7.8450 0.4226
78.3700 7.8317 0.4223
78.3900 7.8184 0.4203
78.4100 7.8050 0.4207
78.4300 7.7917 0.4208
78.4500 7.7783 0.4174
78.4700 7.7650 0.4204
78.4900 7.7517 0.4153
78.5100 7.7383 0.4179
78.5300 7.7250 0.4150
78.5500 7.7117 0.4173
78.5700 7.6984 0.4122
78.5900 7.6850 0.4163
78.6100 7.6717 0.4109
78.6300 7.6583 0.4140
78.6500 7.6450 0.4099
78.6700 7.6317 0.4124
78.6900 7.6184 0.4080
78.7100 7.6050 0.4102
78.7300 7.5917 0.4085
78.7500 7.5784 0.4070
78.7700 7.5650 0.4078
78.7900 7.5517 0.4053
78.8100 7.5383 0.4064
78.8300 7.5250 0.4036
78.8500 7.5117 0.4055
78.8700 7.4983 0.4011
78.8900 7.4849 0.4048
78.9100 7.4716 0.4001
78.9300 7.4583 0.4023
78.9500 7.4450 0.3983
78.9700 7.4317 0.4021
78.9900 7.4183 0.3965
79.0100 7.4051 0.3993
79.0300 7.3918 0.3964
79.0500 7.3784 0.3959
79.0700 7.3650 0.3968
79.0900 7.3517 0.3944
79.1100 7.3384 0.3950
79.1300 7.3250 0.3921
79.1500 7.3117 0.3947
79.1700 7.2983 0.3898
79.1900 7.2850 0.3934
79.2100 7.2716 0.3888
79.2300 7.2583 0.3911
79.2500 7.2449 0.3875
79.2700 7.2316 0.3909
79.2900 7.2183 0.3855
79.3100 7.2050 0.3887
79.3300 7.1917 0.3858
79.3500 7.1783 0.3853
79.3700 7.1651 0.3854
79.3900 7.1517 0.3842
79.4100 7.1384 0.3832
79.4300 7.1250 0.3825
79.4500 7.1117 0.3835
79.4700 7.0984 0.3788
79.4900 7.0850 0.3818
79.5100 7.0717 0.3781
79.5300 7.0583 0.3802
79.5500 7.0450 0.3760
79.5700 7.0317 0.3788
79.5900 7.0183 0.3746
79.6100 7.0050 0.3771
79.6300 6.9916 0.3743
79.6500 6.9783 0.3754
79.6700 6.9650 0.3731
79.6900 6.9517 0.3740
79.7100 6.9383 0.3719
79.7300 6.9251 0.3713
79.7500 6.9117 0.3720
79.7700 6.8984 0.3686
79.7900 6.8851 0.3708
79.8100 6.8717 0.3670
79.8300 6.8585 0.3684
79.8500 6.8451 0.3652
79.8700 6.8317 0.3678
79.8900 6.8183 0.3640
79.9100 6.8050 0.3653
79.9300 6.7917 0.3638
79.9500 6.7784 0.3631
79.9700 6.7650 0.3622
79.9900 6.7516 0.3627
80.0100 6.7383 0.3610
80.0300 6.7250 0.3595
80.0500 6.7117 0.3609
80.0700 6.6983 0.3561
80.0900 6.6850 0.3600
80.1100 6.6717 0.3550
80.1300 6.6584 0.3577
80.1500 6.6450 0.3540
80.1700 6.6317 0.3564
80.1900 6.6184 0.3518
80.2100 6.6051 0.3542
80.2300 6.5917 0.3523
80.2500 6.5783 0.3517
80.2700 6.5650 0.3515
80.2900 6.5517 0.3498
80.3100 6.5383 0.3499
80.3300 6.5249 0.3470
80.3500 6.5116 0.3500
80.3700 6.4983 0.3443
80.3900 6.4850 0.3486
80.4100 6.4716 0.3430
80.4300 6.4583 0.3465
80.4500 6.4450 0.3417
80.4700 6.4317 0.3455
80.4900 6.4184 0.3407
80.5100 6.4050 0.3425
80.5300 6.3917 0.3412
80.5500 6.3784 0.3390
80.5700 6.3650 0.3395
80.5900 6.3517 0.3384
80.6100 6.3383 0.3377
80.6300 6.3250 0.3358
80.6500 6.3117 0.3369
80.6700 6.2983 0.3330
80.6900 6.2849 0.3355
80.7100 6.2716 0.3323
80.7300 6.2583 0.3337
80.7500 6.2450 0.3295
80.7700 6.2317 0.3332
80.7900 6.2183 0.3290
80.8100 6.2050 0.3308
80.8300 6.1917 0.3290
80.8500 6.1784 0.3278
80.8700 6.1651 0.3276
80.8900 6.1517 0.3270
80.9100 6.1384 0.3253
80.9300 6.1251 0.3244
80.9500 6.1117 0.3250
80.9700 6.0983 0.3217
80.9900 6.0850 0.3237
81.0100 6.0717 0.3197
81.0300 6.0583 0.3226
81.0500 6.0450 0.3174
81.0700 6.0316 0.3227
81.0900 6.0183 0.3153
81.1100 6.0050 0.3204
81.1300 5.9917 0.3155
81.1500 5.9784 0.3184
81.1700 5.9651 0.3142
81.1900 5.9518 0.3167
81.2100 5.9384 0.3127
81.2300 5.9251 0.3136
81.2500 5.9117 0.3138
81.2700 5.8984 0.3109
81.2900 5.8851 0.3116
81.3100 5.8717 0.3093
81.3300 5.8583 0.3108
81.3500 5.8449 0.3064
81.3700 5.8316 0.3103
81.3900 5.8183 0.3040
81.4100 5.8049 0.3076
81.4300 5.7916 0.3041
81.4500 5.7783 0.3055
81.4700 5.7650 0.3027
81.4900 5.7517 0.3058
81.5100 5.7383 0.3014
81.5300 5.7250 0.3029
81.5500 5.7118 0.3005
81.5700 5.6984 0.3005
81.5900 5.6850 0.2995
81.6100 5.6717 0.2992
81.6300 5.6583 0.2974
81.6500 5.6450 0.2962
81.6700 5.6316 0.2970
81.6900 5.6183 0.2946
81.7100 5.6050 0.2954
81.7300 5.5917 0.2934
81.7500 5.5783 0.2935
81.7700 5.5650 0.2908
81.7900 5.5516 0.2931
81.8100 5.5383 0.2896
81.8300 5.5250 0.2902
81.8500 5.5117 0.2884
81.8700 5.4983 0.2887
81.8900 5.4850 0.2868
81.9100 5.4717 0.2872
81.9300 5.4584 0.2849
81.9500 5.4451 0.2841
81.9700 5.4317 0.2851
81.9900 5.4184 0.2821
82.0100 5.4051 0.2834
82.0300 5.3917 0.2805
82.0500 5.3783 0.2830
82.0700 5.3649 0.2773
82.0900 5.3516 0.2812
82.1100 5.3383 0.2764
82.1300 5.3250 0.2781
82.1500 5.3116 0.2769
82.1700 5.2983 0.2759
82.1900 5.2850 0.2751
82.2100 5.2717 0.2755
82.2300 5.2584 0.2744
82.2500 5.2450 0.2724
82.2700 5.2317 0.2740
82.2900 5.2184 0.2707
82.3100 5.2051 0.2725
82.3300 5.1917 0.2685
82.3500 5.1784 0.2716
82.3700 5.1651 0.2663
82.3900 5.1517 0.2695
82.4100 5.1383 0.2665
82.4300 5.1250 0.2666
82.4500 5.1117 0.2661
82.4700 5.0983 0.2633
82.4900 5.0850 0.2640
82.5100 5.0716 0.2623
82.5300 5.0583 0.2632
82.5500 5.0450 0.2595
82.5700 5.0317 0.2630
82.5900 5.0183 0.2588
82.6100 5.0050 0.2615
82.6300 4.9917 0.2572
82.6500 4.9784 0.2603
82.6700 4.9651 0.2547
82.6900 4.9517 0.2590
82.7100 4.9384 0.2541
82.7300 4.9250 0.2558
82.7500 4.9117 0.2538
82.7700 4.8983 0.2540
82.7900 4.8850 0.2519
82.8100 4.8716 0.2520
82.8300 4.8583 0.2507
82.8500 4.8449 0.2489
82.8700 4.8316 0.2504
82.8900 4.8183 0.2463
82.9100 4.8050 0.2485
82.9300 4.7917 0.2446
82.9500 4.7783 0.2484
82.9700 4.7650 0.2422
82.9900 4.7517 0.2486
83.0100 4.7384 0.2409
83.0300 4.7251 0.2456
83.0500 4.7117 0.2405
83.0700 4.6984 0.2434
83.0900 4.6850 0.2386
83.1100 4.6717 0.2410
83.1300 4.6583 0.2384
83.1500 4.6449 0.2380
83.1700 4.6316 0.2384
83.1900 4.6183 0.2349
83.2100 4.6050 0.2368
83.2300 4.5916 0.2334
83.2500 4.5783 0.2360
83.2700 4.5650 0.2299
83.2900 4.5517 0.2349
83.3100 4.5384 0.2291
83.3300 4.5251 0.2318
83.3500 4.5118 0.2282
83.3700 4.4985 0.2299
83.3900 4.4851 0.2268
83.4100 4.4717 0.2272
83.4300 4.4584 0.2273
83.4500 4.4451 0.2243
83.4700 4.4317 0.2272
83.4900 4.4183 0.2236
83.5100 4.4050 0.2247
83.5300 4.3917 0.2213
83.5500 4.3784 0.2225
83.5700 4.3650 0.2183
83.5900 4.3517 0.2208
83.6100 4.3383 0.2179
83.6300 4.3250 0.2180
83.6500 4.3117 0.2172
83.6700 4.2983 0.2169
83.6900 4.2850 0.2160
83.7100 4.2717 0.2156
83.7300 4.2584 0.2154
83.7500 4.2451 0.2131
83.7700 4.2317 0.2132
83.7900 4.2184 0.2118
83.8100 4.2050 0.2110
83.8300 4.1917 0.2100
83.8500 4.1783 0.2106
83.8700 4.1650 0.2079
83.8900 4.1517 0.2087
83.9100 4.1383 0.2062
83.9300 4.1250 0.2071
83.9500 4.1116 0.2051
83.9700 4.0983 0.2062
83.9900 4.0850 0.2023
84.0100 4.0717 0.2042
84.0300 4.0583 0.2019
84.0500 4.0450 0.2010
84.0700 4.0317 0.2009
84.0900 4.0184 0.1994
84.1100 4.0051 0.1984
84.1300 3.9917 0.1960
84.1500 3.9784 0.1987
84.1700 3.9651 0.1934
84.1900 3.9517 0.1968
84.2100 3.9383 0.1931
84.2300 3.9250 0.1951
84.2500 3.9116 0.1928
84.2700 3.8983 0.1937
84.2900 3.8850 0.1908
84.3100 3.8716 0.1912
84.3300 3.8583 0.1902
84.3500 3.8450 0.1879
84.3700 3.8317 0.1892
84.3900 3.8183 0.1864
84.4100 3.8050 0.1885
84.4300 3.7917 0.1842
84.4500 3.7784 0.1880
84.4700 3.7650 0.1818
84.4900 3.7517 0.1857
84.5100 3.7383 0.1809
84.5300 3.7251 0.1827
84.5500 3.7117 0.1793
84.5700 3.6983 0.1815
84.5900 3.6849 0.1780
84.6100 3.6716 0.1788
84.6300 3.6583 0.1775
84.6500 3.6450 0.1764
84.6700 3.6316 0.1759
84.6900 3.6183 0.1757
84.7100 3.6050 0.1748
84.7300 3.5917 0.1727
84.7500 3.5784 0.1740
84.7700 3.5650 0.1706
84.7900 3.5517 0.1721
84.8100 3.5384 0.1691
84.8300 3.5251 0.1699
84.8500 3.5117 0.1671
84.8700 3.4984 0.1691
84.8900 3.4850 0.1644
84.9100 3.4717 0.1676
84.9300 3.4583 0.1636
84.9500 3.4449 0.1652
84.9700 3.4316 0.1616
84.9900 3.4183 0.1639
85.0100 3.4050 0.1612
85.0300 3.3916 0.1606
85.0500 3.3783 0.1607
85.0700 3.3650 0.1574
85.0900 3.3517 0.1596
85.1100 3.3384 0.1561
85.1300 3.3250 0.1581
85.1500 3.3117 0.1539
85.1700 3.2984 0.1575
85.1900 3.2851 0.1514
85.2100 3.2717 0.1549
85.2300 3.2584 0.1504
85.2500 3.2451 0.1528
85.2700 3.2317 0.1499
85.2900 3.2183 0.1503
85.3100 3.2050 0.1489
85.3300 3.1917 0.1467
85.3500 3.1783 0.1486
85.3700 3.1650 0.1437
85.3900 3.1516 0.1471
85.4100 3.1383 0.1425
85.4300 3.1250 0.1451
85.4500 3.1117 0.1411
85.4700 3.0984 0.1439
85.4900 3.0850 0.1400
85.5100 3.0717 0.1414
85.5300 3.0584 0.1395
85.5500 3.0451 0.1396
85.5700 3.0317 0.1378
85.5900 3.0183 0.1375
85.6100 3.0050 0.1360
85.6300 2.9917 0.1350
85.6500 2.9783 0.1353
85.6700 2.9650 0.1327
85.6900 2.9516 0.1339
85.7100 2.9383 0.1317
85.7300 2.9250 0.1312
85.7500 2.9117 0.1295
85.7700 2.8983 0.1304
85.7900 2.8850 0.1282
85.8100 2.8717 0.1280
85.8300 2.8583 0.1272
85.8500 2.8450 0.1264
85.8700 2.8317 0.1244
85.8900 2.8184 0.1255
85.9100 2.8051 0.1230
85.9300 2.7917 0.1225
85.9500 2.7784 0.1227
85.9700 2.7651 0.1197
85.9900 2.7517 0.1205
86.0100 2.7384 0.1187
86.0300 2.7250 0.1193
86.0500 2.7116 0.1159
86.0700 2.6983 0.1186
86.0900 2.6850 0.1136
86.1100 2.6716 0.1157
86.1300 2.6583 0.1132
86.1500 2.6450 0.1136
86.1700 2.6317 0.1108
86.1900 2.6184 0.1121
86.2100 2.6050 0.1106
86.2300 2.5917 0.1083
86.2500 2.5784 0.1106
86.2700 2.5651 0.1056
86.2900 2.5517 0.1085
86.3100 2.5383 0.1045
86.3300 2.5250 0.1080
86.3500 2.5117 0.1016
86.3700 2.4984 0.1058
86.3900 2.4850 0.0998
86.4100 2.4716 0.1028
86.4300 2.4583 0.0996
86.4500 2.4450 0.1002
86.4700 2.4316 0.0974
86.4900 2.4183 0.0979
86.5100 2.4050 0.0973
86.5300 2.3917 0.0947
86.5500 2.3784 0.0968
86.5700 2.3650 0.0934
86.5900 2.3517 0.0943
86.6100 2.3384 0.0912
86.6300 2.3251 0.0932
86.6500 2.3117 0.0884
86.6700 2.2984 0.0921
86.6900 2.2850 0.0876
86.7100 2.2717 0.0892
86.7300 2.2583 0.0865
86.7500 2.2450 0.0871
86.7700 2.2316 0.0849
86.7900 2.2183 0.0855
86.8100 2.2050 0.0832
86.8300 2.1916 0.0822
86.8500 2.1783 0.0828
86.8700 2.1650 0.0804
86.8900 2.1517 0.0806
86.9100 2.1383 0.0783
86.9300 2.1250 0.0800
86.9500 2.1117 0.0754
86.9700 2.0984 0.0788
86.9900 2.0851 0.0738
87.0100 2.0717 0.0769
87.0300 2.0583 0.0730
87.0500 2.0450 0.0750
87.0700 2.0317 0.0708
87.0900 2.0184 0.0723
87.1100 2.0050 0.0702
87.1300 1.9916 0.0698
87.1500 1.9783 0.0688
87.1700 1.9650 0.0673
87.1900 1.9517 0.0671
87.2100 1.9383 0.0654
87.2300 1.9250 0.0668
87.2500 1.9117 0.0627
87.2700 1.8984 0.0652
87.2900 1.8850 0.0607
87.3100 1.8717 0.0625
87.3300 1.8584 0.0593
87.3500 1.8451 0.0615
87.3700 1.8317 0.0578
87.3900 1.8183 0.0583
87.4100 1.8050 0.0576
87.4300 1.7917 0.0546
87.4500 1.7784 0.0569
87.4700 1.7650 0.0529
87.4900 1.7517 0.0552
87.5100 1.7383 0.0513
87.5300 1.7250 0.0530
87.5500 1.7117 0.0495
87.5700 1.6983 0.0525
87.5900 1.6850 0.0476
87.6100 1.6717 0.0495
87.6300 1.6584 0.0467
87.6500 1.6450 0.0471
87.6700 1.6317 0.0453
87.6900 1.6184 0.0442
87.7100 1.6051 0.0452
87.7300 1.5917 0.0414
87.7500 1.5784 0.0446
87.7700 1.5650 0.0408
87.7900 1.5517 0.0431
87.8100 1.5384 0.0391
87.8300 1.5250 0.0407
87.8500 1.5117 0.0367
87.8700 1.4984 0.0388
87.8900 1.4850 0.0352
87.9100 1.4717 0.0360
87.9300 1.4583 0.0337
87.9500 1.4449 0.0349
87.9700 1.4316 0.0316
87.9900 1.4183 0.0327
88.0100 1.4050 0.0322
88.0300 1.3917 0.0304
88.0500 1.3784 0.0300
88.0700 1.3651 0.0274
88.0900 1.3517 0.0283
88.1100 1.3384 0.0257
88.1300 1.3250 0.0269
88.1500 1.3117 0.0229
88.1700 1.2984 0.0265
88.1900 1.2850 0.0212
88.2100 1.2716 0.0239
88.2300 1.2583 0.0191
88.2500 1.2450 0.0216
88.2700 1.2316 0.0178
88.2900 1.2183 0.0196
88.3100 1.2049 0.0168
88.3300 1.1917 0.0160
88.3500 1.1784 0.0153
88.3700 1.1650 0.0134
88.3900 1.1517 0.0150
88.4100 1.1384 0.0113
88.4300 1.1251 0.0124
88.4500 1.1117 0.0085
88.4700 1.0984 0.0109
88.4900 1.0850 0.0074
88.5100 1.0717 0.0082
88.5300 1.0584 0.0049
88.5500 1.0450 0.0070
88.5700 1.0316 0.0031
88.5900 1.0183 0.0054
88.6100 1.0050 0.0029
88.6300 0.9917 0.0033
88.6500 0.9783 0.0014
88.6700 0.9650 0.0015
88.6900 0.9517 0.0015
88.7100 0.9384 -0.0006
88.7300 0.9250 0.0021
88.7500 0.9117 -0.0021
88.7700 0.8984 0.0005
88.7900 0.8851 -0.0028
88.8100 0.8718 -0.0013
88.8300 0.8584 -0.0042
88.8500 0.8450 -0.0024
88.8700 0.8317 -0.0062
88.8900 0.8183 -0.0047
88.9100 0.8050 -0.0070
88.9300 0.7916 -0.0071
88.9500 0.7783 -0.0092
88.9700 0.7650 -0.0102
88.9900 0.7517 -0.0110
89.0100 0.7383 -0.0132
89.0300 0.7250 -0.0122
89.0500 0.7117 -0.0154
89.0700 0.6984 -0.0150
89.0900 0.6850 -0.0177
89.1100 0.6717 -0.0173
89.1300 0.6584 -0.0200
89.1500 0.6451 -0.0198
89.1700 0.6318 -0.0222
89.1900 0.6184 -0.0215
89.2100 0.6050 -0.0235
89.2300 0.5917 -0.0237
89.2500 0.5784 -0.0257
89.2700 0.5650 -0.0255
89.2900 0.5516 -0.0269
89.3100 0.5383 -0.0282
89.3300 0.5250 -0.0276
89.3500 0.5117 -0.0301
89.3700 0.4983 -0.0290
89.3900 0.4849 -0.0313
89.4100 0.4716 -0.0301
89.4300 0.4583 -0.0334
89.4500 0.4450 -0.0310
89.4700 0.4317 -0.0338
89.4900 0.4184 -0.0333
89.5100 0.4051 -0.0343
89.5300 0.3917 -0.0335
89.5500 0.3784 -0.0337
89.5700 0.3650 -0.0329
89.5900 0.3517 -0.0334
89.6100 0.3384 -0.0346
89.6300 0.3250 -0.0325
89.6500 0.3116 -0.0349
89.6700 0.2983 -0.0323
89.6900 0.2850 -0.0354
89.7100 0.2716 -0.0326
89.7300 0.2583 -0.0357
89.7500 0.2449 -0.0327
89.7700 0.2316 -0.0345
89.7900 0.2183 -0.0334
89.8100 0.2050 -0.0339
89.8300 0.1917 -0.0334
89.8500 0.1784 -0.0338
89.8700 0.1651 -0.0336
89.8900 0.1517 -0.0329
89.9100 0.1384 -0.0340
89.9300 0.1250 -0.0322
89.9500 0.1117 -0.0357
89.9700 0.0984 -0.0322
89.9900 0.0850 -0.0356
90.0100 0.0716 -0.0309
90.0300 0.0583 -0.0353
90.0500 0.0450 -0.0319
90.0700 0.0316 -0.0352
90.0900 0.0183 -0.0328
90.1100 0.0050 -0.0324
90.1180 -0.0002 -0.0302
