Raw Data
Time Displacement Force
(s) (mm) (N)
0.0000 0.0000 -0.0329
0.0200 0.0001 -0.0326
0.0400 0.0018 -0.0203
0.0600 0.0089 -0.0247
0.0800 0.0205 -0.0326
0.1000 0.0330 -0.0341
0.1200 0.0456 -0.0334
0.1400 0.0589 -0.0318
0.1600 0.0730 -0.0338
0.1800 0.0873 -0.0343
0.2000 0.1012 -0.0350
0.2200 0.1148 -0.0336
0.2400 0.1282 -0.0352
0.2600 0.1415 -0.0332
0.2800 0.1548 -0.0344
0.3000 0.1681 -0.0340
0.3200 0.1815 -0.0340
0.3400 0.1949 -0.0330
0.3600 0.2082 -0.0330
0.3800 0.2215 -0.0287
0.4000 0.2348 -0.0305
0.4200 0.2481 -0.0268
0.4400 0.2615 -0.0284
0.4600 0.2748 -0.0252
0.4800 0.2882 -0.0261
0.5000 0.3015 -0.0234
0.5200 0.3149 -0.0224
0.5400 0.3283 -0.0224
0.5600 0.3416 -0.0186
0.5800 0.3549 -0.0192
0.6000 0.3682 -0.0160
0.6200 0.3816 -0.0166
0.6400 0.3949 -0.0126
0.6600 0.4082 -0.0141
0.6800 0.4215 -0.0082
0.7000 0.4348 -0.0099
0.7200 0.4482 -0.0053
0.7400 0.4615 -0.0055
0.7600 0.4748 -0.0006
0.7800 0.4882 -0.0021
0.8000 0.5015 0.0025
0.8200 0.5149 0.0022
0.8400 0.5282 0.0044
0.8600 0.5416 0.0069
0.8800 0.5549 0.0079
0.9000 0.5682 0.0106
0.9200 0.5816 0.0121
0.9400 0.5949 0.0144
0.9600 0.6082 0.0147
0.9800 0.6216 0.0180
1.0000 0.6349 0.0191
1.0200 0.6482 0.0213
1.0400 0.6615 0.0227
1.0600 0.6748 0.0253
1.0800 0.6882 0.0261
1.1000 0.7015 0.0295
1.1200 0.7148 0.0304
1.1400 0.7281 0.0323
1.1600 0.7415 0.0338
1.1800 0.7548 0.0363
1.2000 0.7682 0.0374
1.2200 0.7815 0.0399
1.2400 0.7949 0.0409
1.2600 0.8082 0.0424
1.2800 0.8215 0.0457
1.3000 0.8349 0.0468
1.3200 0.8482 0.0492
1.3400 0.8616 0.0492
1.3600 0.8749 0.0534
1.3800 0.8882 0.0517
1.4000 0.9016 0.0581
1.4200 0.9149 0.0551
1.4400 0.9282 0.0607
1.4600 0.9415 0.0586
1.4800 0.9548 0.0646
1.5000 0.9681 0.0623
1.5200 0.9815 0.0670
1.5400 0.9948 0.0670
1.5600 1.0081 0.0691
1.5800 1.0215 0.0711
1.6000 1.0349 0.0724
1.6200 1.0483 0.0750
1.6400 1.0616 0.0751
1.6600 1.0749 0.0789
1.6800 1.0883 0.0777
1.7000 1.1016 0.0823
1.7200 1.1149 0.0823
1.7400 1.1282 0.0849
1.7600 1.1415 0.0864
1.7800 1.1549 0.0881
1.8000 1.1682 0.0892
1.8200 1.1815 0.0915
1.8400 1.1948 0.0937
1.8600 1.2081 0.0936
1.8800 1.2215 0.0967
1.9000 1.2348 0.0968
1.9200 1.2482 0.0999
1.9400 1.2615 0.0999
1.9600 1.2749 0.1035
1.9800 1.2883 0.1028
2.0000 1.3016 0.1062
2.0200 1.3149 0.1068
2.0400 1.3283 0.1091
2.0600 1.3416 0.1088
2.0800 1.3549 0.1134
2.1000 1.3682 0.1116
2.1200 1.3815 0.1163
2.1400 1.3949 0.1158
2.1600 1.4082 0.1185
2.1800 1.4215 0.1192
2.2000 1.4348 0.1210
2.2200 1.4481 0.1217
2.2400 1.4615 0.1240
2.2600 1.4748 0.1251
2.2800 1.4882 0.1263
2.3000 1.5015 0.1289
2.3200 1.5149 0.1286
2.3400 1.5283 0.1324
2.3600 1.5416 0.1306
2.3800 1.5549 0.1370
2.4000 1.5683 0.1327
2.4200 1.5816 0.1395
2.4400 1.5949 0.1365
2.4600 1.6082 0.1413
2.4800 1.6215 0.1399
2.5000 1.6349 0.1445
2.5200 1.6482 0.1433
2.5400 1.6615 0.1464
2.5600 1.6748 0.1474
2.5800 1.6881 0.1481
2.6000 1.7015 0.1502
2.6200 1.7149 0.1507
2.6400 1.7282 0.1533
2.6600 1.7415 0.1528
2.6800 1.7549 0.1577
2.7000 1.7683 0.1549
2.7200 1.7816 0.1597
2.7400 1.7949 0.1588
2.7600 1.8082 0.1620
2.7800 1.8216 0.1609
2.8000 1.8349 0.1650
2.8200 1.8482 0.1652
2.8400 1.8615 0.1668
2.8600 1.8749 0.1676
2.8800 1.8882 0.1695
2.9000 1.9015 0.1700
2.9200 1.9148 0.1729
2.9400 1.9282 0.1737
2.9600 1.9415 0.1741
2.9800 1.9549 0.1770
3.0000 1.9682 0.1761
3.0200 1.9815 0.1793
3.0400 1.9949 0.1795
3.0600 2.0082 0.1822
3.0800 2.0215 0.1813
3.1000 2.0348 0.1857
3.1200 2.0482 0.1840
3.1400 2.0616 0.1884
3.1600 2.0749 0.1874
3.1800 2.0882 0.1911
3.2000 2.1015 0.1892
3.2200 2.1149 0.1937
3.2400 2.1282 0.1922
3.2600 2.1415 0.1952
3.2800 2.1548 0.1963
3.3000 2.1682 0.1972
3.3200 2.1815 0.1990
3.3400 2.1949 0.1993
3.3600 2.2082 0.2021
3.3800 2.2215 0.2010
3.4000 2.2349 0.2048
3.4200 2.2482 0.2031
3.4400 2.2616 0.2070
3.4600 2.2749 0.2067
3.4800 2.2882 0.2093
3.5000 2.3016 0.2090
3.5200 2.3149 0.2121
3.5400 2.3282 0.2128
3.5600 2.3415 0.2134
3.5800 2.3549 0.2164
3.6000 2.3682 0.2151
3.6200 2.3815 0.2190
3.6400 2.3948 0.2178
3.6600 2.4081 0.2220
3.6800 2.4215 0.2193
3.7000 2.4348 0.2249
3.7200 2.4481 0.2220
3.7400 2.4615 0.2266
3.7600 2.4749 0.2250
3.7800 2.4883 0.2281
3.8000 2.5016 0.2280
3.8200 2.5150 0.2299
3.8400 2.5283 0.2311
3.8600 2.5416 0.2318
3.8800 2.5549 0.2341
3.9000 2.5682 0.2341
3.9200 2.5815 0.2361
3.9400 2.5948 0.2361
3.9600 2.6082 0.2391
3.9800 2.6215 0.2378
4.0000 2.6348 0.2425
4.0200 2.6482 0.2400
4.0400 2.6615 0.2447
4.0600 2.6749 0.2419
4.0800 2.6882 0.2470
4.1000 2.7015 0.2441
4.1200 2.7149 0.2494
4.1400 2.7283 0.2469
4.1600 2.7416 0.2513
4.1800 2.7549 0.2494
4.2000 2.7682 0.2532
4.2200 2.7816 0.2517
4.2400 2.7949 0.2554
4.2600 2.8082 0.2556
4.2800 2.8215 0.2556
4.3000 2.8348 0.2591
4.3200 2.8482 0.2573
4.3400 2.8615 0.2614
4.3600 2.8748 0.2594
4.3800 2.8881 0.2647
4.4000 2.9015 0.2605
4.4200 2.9149 0.2664
4.4400 2.9282 0.2636
4.4600 2.9415 0.2680
4.4800 2.9549 0.2666
4.5000 2.9683 0.2701
4.5200 2.9816 0.2685
4.5400 2.9949 0.2728
4.5600 3.0082 0.2712
4.5800 3.0216 0.2739
4.6000 3.0349 0.2748
4.6200 3.0482 0.2756
4.6400 3.0615 0.2775
4.6600 3.0749 0.2772
4.6800 3.0882 0.2799
4.7000 3.1015 0.2795
4.7200 3.1148 0.2821
4.7400 3.1281 0.2818
4.7600 3.1415 0.2838
4.7800 3.1549 0.2835
4.8000 3.1682 0.2867
4.8200 3.1815 0.2853
4.8400 3.1949 0.2892
4.8600 3.2083 0.2876
4.8800 3.2216 0.2904
4.9000 3.2349 0.2906
4.9200 3.2482 0.2927
4.9400 3.2616 0.2927
4.9600 3.2749 0.2942
4.9800 3.2882 0.2961
5.0000 3.3015 0.2956
5.0200 3.3148 0.2992
5.0400 3.3282 0.2974
5.0600 3.3415 0.3005
5.0800 3.3548 0.2994
5.1000 3.3682 0.3044
5.1200 3.3815 0.3004
5.1400 3.3949 0.3064
5.1600 3.4082 0.3031
5.1800 3.4215 0.3081
5.2000 3.4349 0.3055
5.2200 3.4483 0.3090
5.2400 3.4616 0.3078
5.2600 3.4749 0.3106
5.2800 3.4882 0.3111
5.3000 3.5016 0.3112
5.3200 3.5149 0.3127
5.3400 3.5283 0.3132
5.3600 3.5416 0.3155
5.3800 3.5549 0.3151
5.4000 3.5682 0.3177
5.4200 3.5815 0.3164
5.4400 3.5948 0.3196
5.4600 3.6081 0.3197
5.4800 3.6215 0.3216
5.5000 3.6348 0.3214
5.5200 3.6481 0.3240
5.5400 3.6615 0.3231
5.5600 3.6749 0.3255
5.5800 3.6883 0.3260
5.6000 3.7016 0.3269
5.6200 3.7149 0.3281
5.6400 3.7282 0.3292
5.6600 3.7416 0.3305
5.6800 3.7550 0.3298
5.7000 3.7683 0.3333
5.7200 3.7815 0.3321
5.7400 3.7949 0.3351
5.7600 3.8082 0.3339
5.7800 3.8215 0.3370
5.8000 3.8348 0.3353
5.8200 3.8481 0.3401
5.8400 3.8615 0.3370
5.8600 3.8748 0.3409
5.8800 3.8882 0.3396
5.9000 3.9015 0.3423
5.9200 3.9149 0.3419
5.9400 3.9282 0.3442
5.9600 3.9416 0.3441
5.9800 3.9549 0.3449
6.0000 3.9682 0.3472
6.0200 3.9816 0.3466
6.0400 3.9949 0.3494
6.0600 4.0082 0.3479
6.0800 4.0215 0.3516
6.1000 4.0348 0.3498
6.1200 4.0482 0.3542
6.1400 4.0615 0.3514
6.1600 4.0748 0.3558
6.1800 4.0881 0.3540
6.2000 4.1015 0.3576
6.2200 4.1149 0.3556
6.2400 4.1282 0.3599
6.2600 4.1416 0.3582
6.2800 4.1549 0.3601
6.3000 4.1683 0.3616
6.3200 4.1816 0.3613
6.3400 4.1949 0.3635
6.3600 4.2082 0.3637
6.3800 4.2215 0.3655
6.4000 4.2349 0.3647
6.4200 4.2482 0.3684
6.4400 4.2616 0.3656
6.4600 4.2749 0.3708
6.4800 4.2882 0.3676
6.5000 4.3016 0.3722
6.5200 4.3149 0.3699
6.5400 4.3282 0.3740
6.5600 4.3415 0.3721
6.5800 4.3548 0.3746
6.6000 4.3682 0.3748
6.6200 4.3815 0.3756
6.6400 4.3949 0.3767
6.6600 4.4082 0.3772
6.6800 4.4216 0.3787
6.7000 4.4349 0.3785
6.7200 4.4482 0.3817
6.7400 4.4616 0.3794
6.7600 4.4750 0.3837
6.7800 4.4883 0.3816
6.8000 4.5016 0.3862
6.8200 4.5149 0.3830
6.8400 4.5282 0.3879
6.8600 4.5416 0.3847
6.8800 4.5548 0.3887
6.9000 4.5681 0.3876
6.9200 4.5815 0.3900
6.9400 4.5948 0.3896
6.9600 4.6082 0.3912
6.9800 4.6215 0.3920
7.0000 4.6348 0.3923
7.0200 4.6482 0.3943
7.0400 4.6616 0.3936
7.0600 4.6749 0.3964
7.0800 4.6883 0.3949
7.1000 4.7016 0.3984
7.1200 4.7150 0.3961
7.1400 4.7283 0.4008
7.1600 4.7416 0.3976
7.1800 4.7549 0.4021
7.2000 4.7682 0.4001
7.2200 4.7816 0.4035
7.2400 4.7948 0.4018
7.2600 4.8081 0.4053
7.2800 4.8215 0.4044
7.3000 4.8349 0.4056
7.3200 4.8482 0.4066
7.3400 4.8615 0.4079
7.3600 4.8749 0.4083
7.3800 4.8882 0.4093
7.4000 4.9016 0.4110
7.4200 4.9149 0.4096
7.4400 4.9282 0.4137
7.4600 4.9416 0.4114
7.4800 4.9550 0.4149
7.5000 4.9683 0.4133
7.5200 4.9816 0.4166
7.5400 4.9949 0.4151
7.5600 5.0082 0.4174
7.5800 5.0215 0.4174
7.6000 5.0348 0.4187
7.6200 5.0481 0.4193
7.6400 5.0615 0.4213
7.6600 5.0748 0.4205
7.6800 5.0882 0.4223
7.7000 5.1015 0.4231
7.7200 5.1149 0.4230
7.7400 5.1283 0.4256
7.7600 5.1416 0.4242
7.7800 5.1549 0.4268
7.8000 5.1682 0.4269
7.8200 5.1816 0.4291
7.8400 5.1949 0.4272
7.8600 5.2083 0.4311
7.8800 5.2215 0.4289
7.9000 5.2348 0.4321
7.9200 5.2482 0.4301
7.9400 5.2615 0.4347
7.9600 5.2748 0.4313
7.9800 5.2881 0.4362
8.0000 5.3015 0.4341
8.0200 5.3148 0.4371
8.0400 5.3282 0.4364
8.0600 5.3415 0.4379
8.0800 5.3549 0.4381
8.1000 5.3682 0.4393
8.1200 5.3816 0.4404
8.1400 5.3949 0.4397
8.1600 5.4082 0.4430
8.1800 5.4216 0.4412
8.2000 5.4349 0.4444
8.2200 5.4482 0.4427
8.2400 5.4615 0.4463
8.2600 5.4748 0.4443
8.2800 5.4882 0.4479
8.3000 5.5015 0.4464
8.3200 5.5148 0.4486
8.3400 5.5281 0.4487
8.3600 5.5415 0.4501
8.3800 5.5548 0.4499
8.4000 5.5682 0.4507
8.4200 5.5815 0.4525
8.4400 5.5949 0.4517
8.4600 5.6082 0.4548
8.4800 5.6216 0.4531
8.5000 5.6349 0.4566
8.5200 5.6482 0.4550
8.5400 5.6616 0.4585
8.5600 5.6749 0.4560
8.5800 5.6883 0.4597
8.6000 5.7016 0.4584
8.6200 5.7149 0.4609
8.6400 5.7283 0.4600
8.6600 5.7416 0.4629
8.6800 5.7549 0.4616
8.7000 5.7682 0.4637
8.7200 5.7815 0.4645
8.7400 5.7948 0.4641
8.7600 5.8081 0.4661
8.7800 5.8215 0.4654
8.8000 5.8348 0.4673
8.8200 5.8482 0.4669
8.8400 5.8616 0.4688
8.8600 5.8750 0.4686
8.8800 5.8883 0.4709
8.9000 5.9016 0.4705
8.9200 5.9150 0.4729
8.9400 5.9283 0.4706
8.9600 5.9416 0.4758
8.9800 5.9549 0.4718
9.0000 5.9682 0.4767
9.0200 5.9815 0.4746
9.0400 5.9948 0.4768
9.0600 6.0081 0.4768
9.0800 6.0215 0.4781
9.1000 6.0348 0.4782
9.1200 6.0482 0.4793
9.1400 6.0615 0.4811
9.1600 6.0749 0.4794
9.1800 6.0882 0.4827
9.2000 6.1016 0.4805
9.2200 6.1149 0.4845
9.2400 6.1282 0.4820
9.2600 6.1416 0.4867
9.2800 6.1549 0.4834
9.3000 6.1683 0.4873
9.3200 6.1816 0.4855
9.3400 6.1949 0.4888
9.3600 6.2082 0.4877
9.3800 6.2215 0.4895
9.4000 6.2348 0.4891
9.4200 6.2481 0.4902
9.4400 6.2615 0.4919
9.4600 6.2748 0.4915
9.4800 6.2882 0.4925
9.5000 6.3015 0.4940
9.5200 6.3148 0.4946
9.5400 6.3282 0.4943
9.5600 6.3416 0.4972
9.5800 6.3549 0.4951
9.6000 6.3682 0.4991
9.6200 6.3816 0.4967
9.6400 6.3949 0.4998
9.6600 6.4083 0.4978
9.6800 6.4216 0.5023
9.7000 6.4349 0.4996
9.7200 6.4482 0.5027
9.7400 6.4615 0.5023
9.7600 6.4748 0.5035
9.7800 6.4881 0.5032
9.8000 6.5014 0.5050
9.8200 6.5148 0.5058
9.8400 6.5282 0.5043
9.8600 6.5415 0.5087
9.8800 6.5549 0.5056
9.9000 6.5682 0.5102
9.9200 6.5816 0.5065
9.9400 6.5950 0.5117
9.9600 6.6083 0.5075
9.9800 6.6216 0.5135
10.0000 6.6349 0.5099
10.0200 6.6483 0.5126
10.0400 6.6616 0.5133
10.0600 6.6749 0.5141
10.0800 6.6882 0.5139
10.1000 6.7015 0.5156
10.1200 6.7149 0.5161
10.1400 6.7282 0.5160
10.1600 6.7415 0.5186
10.1800 6.7549 0.5169
10.2000 6.7682 0.5197
10.2200 6.7815 0.5184
10.2400 6.7948 0.5214
10.2600 6.8082 0.5198
10.2800 6.8216 0.5224
10.3000 6.8349 0.5219
10.3200 6.8482 0.5224
10.3400 6.8615 0.5243
10.3600 6.8749 0.5242
10.3800 6.8883 0.5236
10.4000 6.9016 0.5254
10.4200 6.9149 0.5264
10.4400 6.9282 0.5262
10.4600 6.9415 0.5284
10.4800 6.9548 0.5277
10.5000 6.9682 0.5295
10.5200 6.9815 0.5293
10.5400 6.9948 0.5313
10.5600 7.0082 0.5299
10.5800 7.0215 0.5344
10.6000 7.0348 0.5305
10.6200 7.0482 0.5357
10.6400 7.0616 0.5318
10.6600 7.0749 0.5371
10.6800 7.0882 0.5336
10.7000 7.1015 0.5386
10.7200 7.1149 0.5357
10.7400 7.1283 0.5377
10.7600 7.1416 0.5370
10.7800 7.1549 0.5395
10.8000 7.1682 0.5388
10.8200 7.1816 0.5405
10.8400 7.1949 0.5412
10.8600 7.2082 0.5398
10.8800 7.2215 0.5440
10.9000 7.2348 0.5412
10.9200 7.2481 0.5444
10.9400 7.2615 0.5429
10.9600 7.2748 0.5462
10.9800 7.2882 0.5439
11.0000 7.3016 0.5475
11.0200 7.3150 0.5460
11.0400 7.3283 0.5479
11.0600 7.3416 0.5486
11.0800 7.3550 0.5492
11.1000 7.3683 0.5494
11.1200 7.3816 0.5506
11.1400 7.3949 0.5518
11.1600 7.4082 0.5514
11.1800 7.4215 0.5532
11.2000 7.4348 0.5525
11.2200 7.4481 0.5549
11.2400 7.4615 0.5534
11.2600 7.4748 0.5567
11.2800 7.4882 0.5540
11.3000 7.5016 0.5574
11.3200 7.5149 0.5565
11.3400 7.5282 0.5581
11.3600 7.5416 0.5584
11.3800 7.5550 0.5599
11.4000 7.5683 0.5579
11.4200 7.5816 0.5622
11.4400 7.5949 0.5600
11.4600 7.6083 0.5619
11.4800 7.6216 0.5619
11.5000 7.6349 0.5634
11.5200 7.6482 0.5635
11.5400 7.6615 0.5647
11.5600 7.6749 0.5662
11.5800 7.6882 0.5648
11.6000 7.7015 0.5678
11.6200 7.7148 0.5661
11.6400 7.7282 0.5683
11.6600 7.7415 0.5683
11.6800 7.7549 0.5707
11.7000 7.7682 0.5688
11.7200 7.7816 0.5720
11.7400 7.7949 0.5702
11.7600 7.8082 0.5725
11.7800 7.8215 0.5722
11.8000 7.8349 0.5738
11.8200 7.8483 0.5729
11.8400 7.8616 0.5741
11.8600 7.8749 0.5756
11.8800 7.8882 0.5735
11.9000 7.9015 0.5775
11.9200 7.9149 0.5756
11.9400 7.9282 0.5777
11.9600 7.9415 0.5775
11.9800 7.9548 0.5799
12.0000 7.9682 0.5780
12.0200 7.9815 0.5811
12.0400 7.9949 0.5797
12.0600 8.0082 0.5820
12.0800 8.0216 0.5804
12.1000 8.0349 0.5832
12.1200 8.0482 0.5813
12.1400 8.0615 0.5851
12.1600 8.0749 0.5842
12.1800 8.0883 0.5851
12.2000 8.1016 0.5856
12.2200 8.1149 0.5876
12.2400 8.1282 0.5857
12.2600 8.1415 0.5884
12.2800 8.1549 0.5887
12.3000 8.1682 0.5893
12.3200 8.1815 0.5900
12.3400 8.1948 0.5904
12.3600 8.2082 0.5911
12.3800 8.2215 0.5909
12.4000 8.2348 0.5939
12.4200 8.2482 0.5911
12.4400 8.2616 0.5955
12.4600 8.2749 0.5923
12.4800 8.2882 0.5957
12.5000 8.3016 0.5941
12.5200 8.3149 0.5974
12.5400 8.3283 0.5949
12.5600 8.3416 0.5978
12.5800 8.3549 0.5973
12.6000 8.3682 0.5988
12.6200 8.3816 0.5991
12.6400 8.3949 0.5995
12.6600 8.4082 0.6010
12.6800 8.4215 0.5998
12.7000 8.4348 0.6036
12.7200 8.4481 0.6001
12.7400 8.4615 0.6042
12.7600 8.4748 0.6020
12.7800 8.4882 0.6049
12.8000 8.5016 0.6028
12.8200 8.5149 0.6070
12.8400 8.5283 0.6045
12.8600 8.5416 0.6077
12.8800 8.5549 0.6065
12.9000 8.5683 0.6079
12.9200 8.5816 0.6080
12.9400 8.5949 0.6095
12.9600 8.6082 0.6091
12.9800 8.6215 0.6109
13.0000 8.6349 0.6106
13.0200 8.6482 0.6111
13.0400 8.6615 0.6133
13.0600 8.6748 0.6123
13.0800 8.6881 0.6142
13.1000 8.7015 0.6128
13.1200 8.7148 0.6161
13.1400 8.7282 0.6137
13.1600 8.7416 0.6169
13.1800 8.7549 0.6157
13.2000 8.7683 0.6185
13.2200 8.7816 0.6170
13.2400 8.7949 0.6198
13.2600 8.8082 0.6182
13.2800 8.8215 0.6204
13.3000 8.8349 0.6208
13.3200 8.8482 0.6209
13.3400 8.8615 0.6225
13.3600 8.8749 0.6214
13.3800 8.8882 0.6247
13.4000 8.9015 0.6217
13.4200 8.9148 0.6272
13.4400 8.9282 0.6227
13.4600 8.9416 0.6278
13.4800 8.9549 0.6244
13.5000 8.9682 0.6283
13.5200 8.9816 0.6258
13.5400 8.9949 0.6300
13.5600 9.0082 0.6273
13.5800 9.0215 0.6285
13.6000 9.0349 0.6288
13.6200 9.0482 0.6291
13.6400 9.0616 0.6300
13.6600 9.0749 0.6299
13.6800 9.0882 0.6325
13.7000 9.1016 0.6298
13.7200 9.1149 0.6344
13.7400 9.1282 0.6309
13.7600 9.1415 0.6353
13.7800 9.1548 0.6341
13.8000 9.1682 0.6357
13.8200 9.1815 0.6348
13.8400 9.1948 0.6374
13.8600 9.2082 0.6361
13.8800 9.2215 0.6375
13.9000 9.2349 0.6382
13.9200 9.2482 0.6392
13.9400 9.2616 0.6390
13.9600 9.2749 0.6407
13.9800 9.2883 0.6409
14.0000 9.3016 0.6409
14.0200 9.3149 0.6428
14.0400 9.3282 0.6421
14.0600 9.3416 0.6439
14.0800 9.3549 0.6436
14.1000 9.3682 0.6454
14.1200 9.3815 0.6436
14.1400 9.3948 0.6469
14.1600 9.4081 0.6455
14.1800 9.4215 0.6473
14.2000 9.4348 0.6469
14.2200 9.4482 0.6492
14.2400 9.4615 0.6468
14.2600 9.4749 0.6507
14.2800 9.4883 0.6482
14.3000 9.5016 0.6497
14.3200 9.5149 0.6516
14.3400 9.5283 0.6501
14.3600 9.5416 0.6522
14.3800 9.5549 0.6517
14.4000 9.5682 0.6544
14.4200 9.5815 0.6520
14.4400 9.5949 0.6556
14.4600 9.6082 0.6532
14.4800 9.6215 0.6565
14.5000 9.6348 0.6539
14.5200 9.6482 0.6579
14.5400 9.6615 0.6547
14.5600 9.6748 0.6593
14.5800 9.6881 0.6568
14.6000 9.7015 0.6590
14.6200 9.7149 0.6593
14.6400 9.7282 0.6601
14.6600 9.7416 0.6600
14.6800 9.7549 0.6616
14.7000 9.7683 0.6620
14.7200 9.7816 0.6617
14.7400 9.7949 0.6635
14.7600 9.8082 0.6634
14.7800 9.8215 0.6636
14.8000 9.8349 0.6650
14.8200 9.8482 0.6658
14.8400 9.8615 0.6656
14.8600 9.8748 0.6677
14.8800 9.8881 0.6662
14.9000 9.9015 0.6681
14.9200 9.9148 0.6668
14.9400 9.9282 0.6698
14.9600 9.9415 0.6679
14.9800 9.9550 0.6705
15.0000 9.9683 0.6701
15.0200 9.9816 0.6703
15.0400 9.9949 0.6723
15.0600 10.0083 0.6711
15.0800 10.0216 0.6727
15.1000 10.0349 0.6717
15.1200 10.0482 0.6757
15.1400 10.0615 0.6711
15.1600 10.0748 0.6782
15.1800 10.0882 0.6725
15.2000 10.1015 0.6794
15.2200 10.1148 0.6742
15.2400 10.1282 0.6799
15.2600 10.1415 0.6752
15.2800 10.1549 0.6810
15.3000 10.1682 0.6777
15.3200 10.1816 0.6802
15.3400 10.1949 0.6807
15.3600 10.2083 0.6811
15.3800 10.2216 0.6823
15.4000 10.2349 0.6819
15.4200 10.2483 0.6845
15.4400 10.2616 0.6816
15.4600 10.2749 0.6861
15.4800 10.2882 0.6835
15.5000 10.3015 0.6855
15.5200 10.3148 0.6842
15.5400 10.3282 0.6858
15.5600 10.3415 0.6843
15.5800 10.3548 0.6869
15.6000 10.3682 0.6873
15.6200 10.3815 0.6867
15.6400 10.3949 0.6892
15.6600 10.4082 0.6882
15.6800 10.4215 0.6890
15.7000 10.4349 0.6898
15.7200 10.4483 0.6898
15.7400 10.4616 0.6899
15.7600 10.4749 0.6920
15.7800 10.4882 0.6915
15.8000 10.5016 0.6920
15.8200 10.5149 0.6930
15.8400 10.5282 0.6943
15.8600 10.5416 0.6925
15.8800 10.5549 0.6960
15.9000 10.5683 0.6934
15.9200 10.5815 0.6970
15.9400 10.5948 0.6950
15.9600 10.6081 0.6987
15.9800 10.6215 0.6952
16.0000 10.6348 0.6986
16.0200 10.6482 0.6978
16.0400 10.6615 0.6989
16.0600 10.6749 0.6998
16.0800 10.6883 0.6996
16.1000 10.7016 0.7004
16.1200 10.7149 0.7005
16.1400 10.7283 0.7035
16.1600 10.7416 0.6998
16.1800 10.7549 0.7055
16.2000 10.7682 0.7015
16.2200 10.7815 0.7058
16.2400 10.7949 0.7033
16.2600 10.8082 0.7070
16.2800 10.8215 0.7043
16.3000 10.8348 0.7070
16.3200 10.8481 0.7078
16.3400 10.8615 0.7065
16.3600 10.8748 0.7088
16.3800 10.8882 0.7083
16.4000 10.9015 0.7089
16.4200 10.9149 0.7093
16.4400 10.9283 0.7106
16.4600 10.9416 0.7097
16.4800 10.9549 0.7127
16.5000 10.9683 0.7107
16.5200 10.9816 0.7134
16.5400 10.9949 0.7116
16.5600 11.0082 0.7157
16.5800 11.0215 0.7131
16.6000 11.0349 0.7157
16.6200 11.0482 0.7150
16.6400 11.0615 0.7161
16.6600 11.0748 0.7150
16.6800 11.0881 0.7184
16.7000 11.1015 0.7160
16.7200 11.1149 0.7193
16.7400 11.1282 0.7181
16.7600 11.1415 0.7192
16.7800 11.1549 0.7198
16.8000 11.1683 0.7197
16.8200 11.1816 0.7212
16.8400 11.1949 0.7197
16.8600 11.2083 0.7238
16.8800 11.2216 0.7201
16.9000 11.2349 0.7251
16.9200 11.2482 0.7227
16.9400 11.2615 0.7254
16.9600 11.2749 0.7235
16.9800 11.2882 0.7266
17.0000 11.3015 0.7244
17.0200 11.3148 0.7270
17.0400 11.3281 0.7273
17.0600 11.3415 0.7264
17.0800 11.3549 0.7285
17.1000 11.3682 0.7268
17.1200 11.3816 0.7292
17.1400 11.3949 0.7274
17.1600 11.4083 0.7313
17.1800 11.4216 0.7280
17.2000 11.4349 0.7316
17.2200 11.4482 0.7304
17.2400 11.4616 0.7322
17.2600 11.4749 0.7314
17.2800 11.4882 0.7337
17.3000 11.5015 0.7330
17.3200 11.5149 0.7339
17.3400 11.5282 0.7342
17.3600 11.5415 0.7347
17.3800 11.5549 0.7353
17.4000 11.5682 0.7366
17.4200 11.5815 0.7363
17.4400 11.5949 0.7373
17.4600 11.6082 0.7382
17.4800 11.6215 0.7381
17.5000 11.6349 0.7383
17.5200 11.6483 0.7400
17.5400 11.6616 0.7391
17.5600 11.6748 0.7408
17.5800 11.6882 0.7413
17.6000 11.7016 0.7407
17.6200 11.7149 0.7416
17.6400 11.7282 0.7430
17.6600 11.7415 0.7431
17.6800 11.7549 0.7431
17.7000 11.7682 0.7451
17.7200 11.7815 0.7434
17.7400 11.7948 0.7453
17.7600 11.8081 0.7464
17.7800 11.8215 0.7452
17.8000 11.8348 0.7477
17.8200 11.8482 0.7458
17.8400 11.8615 0.7489
17.8600 11.8749 0.7468
17.8800 11.8882 0.7509
17.9000 11.9016 0.7469
17.9200 11.9149 0.7519
17.9400 11.9282 0.7492
17.9600 11.9416 0.7528
17.9800 11.9549 0.7499
18.0000 11.9682 0.7542
18.0200 11.9815 0.7517
18.0400 11.9949 0.7538
18.0600 12.0082 0.7544
18.0800 12.0215 0.7538
18.1000 12.0348 0.7560
18.1200 12.0481 0.7546
18.1400 12.0615 0.7571
18.1600 12.0748 0.7548
18.1800 12.0882 0.7591
18.2000 12.1015 0.7555
18.2200 12.1149 0.7584
18.2400 12.1283 0.7577
18.2600 12.1416 0.7589
18.2800 12.1550 0.7576
18.3000 12.1683 0.7604
18.3200 12.1817 0.7596
18.3400 12.1950 0.7610
18.3600 12.2082 0.7611
18.3800 12.2215 0.7626
18.4000 12.2349 0.7618
18.4200 12.2482 0.7634
18.4400 12.2615 0.7631
18.4600 12.2748 0.7633
18.4800 12.2881 0.7652
18.5000 12.3015 0.7644
18.5200 12.3149 0.7659
18.5400 12.3282 0.7662
18.5600 12.3416 0.7678
18.5800 12.3549 0.7664
18.6000 12.3683 0.7697
18.6200 12.3816 0.7674
18.6400 12.3949 0.7710
18.6600 12.4082 0.7685
18.6800 12.4216 0.7716
18.7000 12.4349 0.7675
18.7200 12.4482 0.7731
18.7400 12.4615 0.7698
18.7600 12.4749 0.7726
18.7800 12.4882 0.7725
18.8000 12.5015 0.7735
18.8200 12.5148 0.7734
18.8400 12.5281 0.7743
18.8600 12.5415 0.7757
18.8800 12.5548 0.7746
18.9000 12.5682 0.7776
18.9200 12.5815 0.7759
18.9400 12.5949 0.7779
18.9600 12.6083 0.7766
18.9800 12.6216 0.7796
19.0000 12.6349 0.7767
19.0200 12.6482 0.7808
19.0400 12.6616 0.7787
19.0600 12.6749 0.7798
19.0800 12.6882 0.7802
19.1000 12.7015 0.7816
19.1200 12.7148 0.7812
19.1400 12.7282 0.7828
19.1600 12.7415 0.7815
19.1800 12.7548 0.7840
19.2000 12.7681 0.7836
19.2200 12.7815 0.7852
19.2400 12.7949 0.7847
19.2600 12.8082 0.7859
19.2800 12.8215 0.7867
19.3000 12.8349 0.7859
19.3200 12.8483 0.7882
19.3400 12.8616 0.7865
19.3600 12.8749 0.7882
19.3800 12.8882 0.7877
19.4000 12.9016 0.7900
19.4200 12.9149 0.7874
19.4400 12.9282 0.7914
19.4600 12.9415 0.7888
19.4800 12.9548 0.7916
19.5000 12.9682 0.7908
19.5200 12.9815 0.7922
19.5400 12.9948 0.7912
19.5600 13.0082 0.7935
19.5800 13.0215 0.7939
19.6000 13.0349 0.7927
19.6200 13.0482 0.7955
19.6400 13.0615 0.7949
19.6600 13.0749 0.7969
19.6800 13.0883 0.7955
19.7000 13.1016 0.7980
19.7200 13.1149 0.7966
19.7400 13.1282 0.7991
19.7600 13.1416 0.7985
19.7800 13.1550 0.7985
19.8000 13.1683 0.7996
19.8200 13.1816 0.8002
19.8400 13.1949 0.8005
19.8600 13.2082 0.8008
19.8800 13.2215 0.8030
19.9000 13.2348 0.8005
19.9200 13.2482 0.8040
19.9400 13.2615 0.8016
19.9600 13.2748 0.8045
19.9800 13.2881 0.8029
20.0000 13.3015 0.8059
20.0200 13.3149 0.8033
20.0400 13.3283 0.8071
20.0600 13.3416 0.8046
20.0800 13.3549 0.8079
20.1000 13.3682 0.8069
20.1200 13.3816 0.8089
20.1400 13.3950 0.8066
20.1600 13.4083 0.8099
20.1800 13.4215 0.8090
20.2000 13.4349 0.8086
20.2200 13.4482 0.8095
20.2400 13.4615 0.8100
20.2600 13.4748 0.8094
20.2800 13.4881 0.8090
20.3000 13.5015 0.8107
20.3200 13.5148 0.8076
20.3400 13.5281 0.8130
20.3600 13.5415 0.8094
20.3800 13.5548 0.8137
20.4000 13.5682 0.8110
20.4200 13.5816 0.8158
20.4400 13.5949 0.8117
20.4600 13.6082 0.8167
20.4800 13.6216 0.8141
20.5000 13.6350 0.8165
20.5200 13.6483 0.8158
20.5400 13.6615 0.8180
20.5600 13.6748 0.8170
20.5800 13.6882 0.8184
20.6000 13.7015 0.8198
20.6200 13.7148 0.8176
20.6400 13.7282 0.8222
20.6600 13.7415 0.8193
20.6800 13.7549 0.8218
20.7000 13.7682 0.8197
20.7200 13.7816 0.8243
20.7400 13.7949 0.8209
20.7600 13.8083 0.8247
20.7800 13.8216 0.8228
20.8000 13.8349 0.8256
20.8200 13.8482 0.8235
20.8400 13.8615 0.8270
20.8600 13.8749 0.8245
20.8800 13.8882 0.8272
20.9000 13.9016 0.8267
20.9200 13.9149 0.8266
20.9400 13.9282 0.8282
20.9600 13.9416 0.8269
20.9800 13.9549 0.8285
21.0000 13.9682 0.8273
21.0200 13.9815 0.8305
21.0400 13.9949 0.8283
21.0600 14.0082 0.8310
21.0800 14.0215 0.8298
21.1000 14.0348 0.8333
21.1200 14.0482 0.8302
21.1400 14.0616 0.8347
21.1600 14.0749 0.8310
21.1800 14.0882 0.8351
21.2000 14.1016 0.8345
21.2200 14.1150 0.8347
21.2400 14.1283 0.8355
21.2600 14.1416 0.8364
21.2800 14.1549 0.8365
21.3000 14.1682 0.8370
21.3200 14.1816 0.8384
21.3400 14.1949 0.8383
21.3600 14.2082 0.8397
21.3800 14.2215 0.8390
21.4000 14.2348 0.8410
21.4200 14.2482 0.8393
21.4400 14.2615 0.8435
21.4600 14.2748 0.8403
21.4800 14.2882 0.8441
21.5000 14.3016 0.8421
21.5200 14.3149 0.8443
21.5400 14.3282 0.8435
21.5600 14.3416 0.8458
21.5800 14.3549 0.8446
21.6000 14.3683 0.8462
21.6200 14.3816 0.8465
21.6400 14.3949 0.8469
21.6600 14.4082 0.8472
21.6800 14.4215 0.8483
21.7000 14.4348 0.8483
21.7200 14.4481 0.8483
21.7400 14.4615 0.8503
21.7600 14.4749 0.8469
21.7800 14.4882 0.8505
21.8000 14.5015 0.8492
21.8200 14.5148 0.8514
21.8400 14.5282 0.8504
21.8600 14.5416 0.8522
21.8800 14.5549 0.8517
21.9000 14.5682 0.8524
21.9200 14.5816 0.8528
21.9400 14.5950 0.8528
21.9600 14.6083 0.8536
21.9800 14.6216 0.8542
22.0000 14.6349 0.8552
22.0200 14.6482 0.8538
22.0400 14.6616 0.8573
22.0600 14.6749 0.8551
22.0800 14.6882 0.8579
22.1000 14.7015 0.8563
22.1200 14.7148 0.8592
22.1400 14.7282 0.8562
22.1600 14.7415 0.8610
22.1800 14.7548 0.8570
22.2000 14.7682 0.8619
22.2200 14.7816 0.8585
22.2400 14.7949 0.8623
22.2600 14.8082 0.8597
22.2800 14.8216 0.8642
22.3000 14.8350 0.8613
22.3200 14.8483 0.8636
22.3400 14.8616 0.8641
22.3600 14.8749 0.8641
22.3800 14.8882 0.8651
22.4000 14.9015 0.8651
22.4200 14.9148 0.8675
22.4400 14.9282 0.8655
22.4600 14.9415 0.8695
22.4800 14.9548 0.8660
22.5000 14.9682 0.8698
22.5200 14.9815 0.8681
22.5400 14.9949 0.8703
22.5600 15.0083 0.8688
22.5800 15.0216 0.8711
22.6000 15.0349 0.8711
22.6200 15.0482 0.8712
22.6400 15.0616 0.8732
22.6600 15.0749 0.8717
22.6800 15.0883 0.8737
22.7000 15.1016 0.8724
22.7200 15.1148 0.8750
22.7400 15.1282 0.8721
22.7600 15.1415 0.8777
22.7800 15.1549 0.8730
22.8000 15.1682 0.8777
22.8200 15.1815 0.8753
22.8400 15.1948 0.8785
22.8600 15.2082 0.8761
22.8800 15.2215 0.8795
22.9000 15.2348 0.8784
22.9200 15.2482 0.8792
22.9400 15.2616 0.8796
22.9600 15.2749 0.8803
22.9800 15.2882 0.8803
23.0000 15.3015 0.8816
23.0200 15.3149 0.8820
23.0400 15.3283 0.8805
23.0600 15.3416 0.8853
23.0800 15.3549 0.8820
23.1000 15.3682 0.8861
23.1200 15.3816 0.8830
23.1400 15.3949 0.8873
23.1600 15.4082 0.8839
23.1800 15.4214 0.8882
23.2000 15.4348 0.8861
23.2200 15.4481 0.8876
23.2400 15.4614 0.8879
23.2600 15.4748 0.8882
23.2800 15.4882 0.8890
23.3000 15.5016 0.8896
23.3200 15.5150 0.8907
23.3400 15.5283 0.8884
23.3600 15.5416 0.8933
23.3800 15.5550 0.8890
23.4000 15.5683 0.8935
23.4200 15.5816 0.8903
23.4400 15.5949 0.8951
23.4600 15.6082 0.8902
23.4800 15.6215 0.8952
23.5000 15.6348 0.8920
23.5200 15.6481 0.8949
23.5400 15.6615 0.8940
23.5600 15.6748 0.8958
23.5800 15.6882 0.8943
23.6000 15.7015 0.8973
23.6200 15.7149 0.8973
23.6400 15.7282 0.8964
23.6600 15.7416 0.8999
23.6800 15.7550 0.8976
23.7000 15.7683 0.9007
23.7200 15.7816 0.8991
23.7400 15.7950 0.9029
23.7600 15.8083 0.8987
23.7800 15.8216 0.9041
23.8000 15.8349 0.9011
23.8200 15.8482 0.9037
23.8400 15.8615 0.9027
23.8600 15.8749 0.9042
23.8800 15.8882 0.9038
23.9000 15.9015 0.9054
23.9200 15.9148 0.9052
23.9400 15.9282 0.9059
23.9600 15.9415 0.9065
23.9800 15.9548 0.9060
24.0000 15.9682 0.9074
24.0200 15.9816 0.9063
24.0400 15.9949 0.9090
24.0600 16.0083 0.9062
24.0800 16.0216 0.9113
24.1000 16.0349 0.9082
24.1200 16.0483 0.9114
24.1400 16.0616 0.9097
24.1600 16.0749 0.9131
24.1800 16.0882 0.9098
24.2000 16.1015 0.9130
24.2200 16.1149 0.9104
24.2400 16.1281 0.9125
24.2600 16.1415 0.9124
24.2800 16.1548 0.9136
24.3000 16.1682 0.9139
24.3200 16.1815 0.9138
24.3400 16.1948 0.9167
24.3600 16.2082 0.9136
24.3800 16.2216 0.9181
24.4000 16.2349 0.9154
24.4200 16.2483 0.9195
24.4400 16.2616 0.9166
24.4600 16.2749 0.9205
24.4800 16.2883 0.9175
24.5000 16.3016 0.9215
24.5200 16.3149 0.9198
24.5400 16.3282 0.9217
24.5600 16.3415 0.9217
24.5800 16.3549 0.9224
24.6000 16.3682 0.9227
24.6200 16.3815 0.9230
24.6400 16.3949 0.9248
24.6600 16.4082 0.9230
24.6800 16.4215 0.9267
24.7000 16.4348 0.9240
24.7200 16.4482 0.9275
24.7400 16.4616 0.9253
24.7600 16.4749 0.9279
24.7800 16.4882 0.9257
24.8000 16.5015 0.9298
24.8200 16.5149 0.9272
24.8400 16.5282 0.9297
24.8600 16.5416 0.9281
24.8800 16.5549 0.9313
24.9000 16.5682 0.9295
24.9200 16.5816 0.9323
24.9400 16.5949 0.9310
24.9600 16.6082 0.9323
24.9800 16.6215 0.9330
25.0000 16.6348 0.9335
25.0200 16.6482 0.9341
25.0400 16.6615 0.9337
25.0600 16.6749 0.9368
25.0800 16.6882 0.9321
25.1000 16.7016 0.9374
25.1200 16.7149 0.9348
25.1400 16.7282 0.9380
25.1600 16.7415 0.9356
25.1800 16.7549 0.9395
25.2000 16.7682 0.9369
25.2200 16.7816 0.9408
25.2400 16.7949 0.9390
25.2600 16.8082 0.9415
25.2800 16.8215 0.9406
25.3000 16.8348 0.9412
25.3200 16.8481 0.9425
25.3400 16.8614 0.9416
25.3600 16.8748 0.9448
25.3800 16.8882 0.9417
25.4000 16.9015 0.9456
25.4200 16.9148 0.9435
25.4400 16.9282 0.9466
25.4600 16.9416 0.9443
25.4800 16.9550 0.9478
25.5000 16.9683 0.9456
25.5200 16.9816 0.9493
25.5400 16.9949 0.9470
25.5600 17.0083 0.9500
25.5800 17.0216 0.9481
25.6000 17.0348 0.9520
25.6200 17.0482 0.9500
25.6400 17.0615 0.9513
25.6600 17.0748 0.9522
25.6800 17.0881 0.9516
25.7000 17.1015 0.9538
25.7200 17.1148 0.9527
25.7400 17.1282 0.9545
25.7600 17.1416 0.9537
25.7800 17.1549 0.9562
25.8000 17.1682 0.9548
25.8200 17.1816 0.9567
25.8400 17.1950 0.9552
25.8600 17.2083 0.9581
25.8800 17.2216 0.9554
25.9000 17.2349 0.9590
25.9200 17.2483 0.9566
25.9400 17.2616 0.9583
25.9600 17.2749 0.9590
25.9800 17.2882 0.9595
26.0000 17.3015 0.9599
26.0200 17.3149 0.9606
26.0400 17.3282 0.9615
26.0600 17.3415 0.9612
26.0800 17.3548 0.9635
26.1000 17.3682 0.9618
26.1200 17.3815 0.9650
26.1400 17.3949 0.9627
26.1600 17.4082 0.9669
26.1800 17.4216 0.9629
26.2000 17.4349 0.9684
26.2200 17.4482 0.9649
26.2400 17.4616 0.9687
26.2600 17.4749 0.9669
26.2800 17.4883 0.9685
26.3000 17.5016 0.9679
26.3200 17.5149 0.9687
26.3400 17.5282 0.9690
26.3600 17.5415 0.9678
26.3800 17.5549 0.9700
26.4000 17.5682 0.9667
26.4200 17.5815 0.9685
26.4400 17.5948 0.9671
26.4600 17.6082 0.9708
26.4800 17.6215 0.9674
26.5000 17.6349 0.9729
26.5200 17.6482 0.9694
26.5400 17.6616 0.9740
26.5600 17.6749 0.9715
26.5800 17.6883 0.9748
26.6000 17.7016 0.9735
26.6200 17.7149 0.9763
26.6400 17.7282 0.9749
26.6600 17.7416 0.9768
26.6800 17.7549 0.9767
26.7000 17.7682 0.9780
26.7200 17.7815 0.9779
26.7400 17.7949 0.9790
26.7600 17.8082 0.9793
26.7800 17.8215 0.9798
26.8000 17.8348 0.9809
26.8200 17.8482 0.9802
26.8400 17.8615 0.9824
26.8600 17.8748 0.9810
26.8800 17.8882 0.9846
26.9000 17.9015 0.9815
26.9200 17.9149 0.9863
26.9400 17.9282 0.9824
26.9600 17.9416 0.9866
26.9800 17.9549 0.9841
27.0000 17.9683 0.9880
27.0200 17.9816 0.9854
27.0400 17.9949 0.9896
27.0600 18.0082 0.9877
27.0800 18.0215 0.9893
27.1000 18.0349 0.9895
27.1200 18.0482 0.9898
27.1400 18.0615 0.9915
27.1600 18.0748 0.9905
27.1800 18.0881 0.9939
27.2000 18.1015 0.9901
27.2200 18.1148 0.9958
27.2400 18.1282 0.9917
27.2600 18.1416 0.9965
27.2800 18.1550 0.9930
27.3000 18.1683 0.9967
27.3200 18.1816 0.9949
27.3400 18.1949 0.9981
27.3600 18.2083 0.9970
27.3800 18.2216 0.9977
27.4000 18.2349 0.9989
27.4200 18.2482 0.9993
27.4400 18.2615 1.0001
27.4600 18.2749 0.9995
27.4800 18.2882 1.0016
27.5000 18.3015 1.0001
27.5200 18.3148 1.0029
27.5400 18.3281 1.0008
27.5600 18.3415 1.0041
27.5800 18.3548 1.0027
27.6000 18.3682 1.0045
27.6200 18.3815 1.0034
27.6400 18.3949 1.0057
27.6600 18.4083 1.0043
27.6800 18.4216 1.0063
27.7000 18.4349 1.0061
27.7200 18.4483 1.0076
27.7400 18.4616 1.0059
27.7600 18.4749 1.0081
27.7800 18.4882 1.0078
27.8000 18.5015 1.0071
27.8200 18.5149 1.0095
27.8400 18.5282 1.0086
27.8600 18.5415 1.0117
27.8800 18.5548 1.0096
27.9000 18.5682 1.0135
27.9200 18.5816 1.0098
27.9400 18.5949 1.0147
27.9600 18.6082 1.0116
27.9800 18.6216 1.0155
28.0000 18.6349 1.0131
28.0200 18.6482 1.0171
28.0400 18.6615 1.0140
28.0600 18.6749 1.0177
28.0800 18.6882 1.0169
28.1000 18.7016 1.0173
28.1200 18.7149 1.0195
28.1400 18.7282 1.0175
28.1600 18.7416 1.0211
28.1800 18.7549 1.0181
28.2000 18.7682 1.0229
28.2200 18.7815 1.0197
28.2400 18.7948 1.0243
28.2600 18.8082 1.0212
28.2800 18.8215 1.0242
28.3000 18.8348 1.0227
28.3200 18.8481 1.0265
28.3400 18.8615 1.0239
28.3600 18.8749 1.0267
28.3800 18.8882 1.0259
28.4000 18.9016 1.0271
28.4200 18.9149 1.0275
28.4400 18.9283 1.0277
28.4600 18.9416 1.0284
28.4800 18.9549 1.0291
28.5000 18.9682 1.0302
28.5200 18.9815 1.0300
28.5400 18.9949 1.0301
28.5600 19.0082 1.0311
28.5800 19.0215 1.0311
28.6000 19.0348 1.0312
28.6200 19.0481 1.0338
28.6400 19.0615 1.0309
28.6600 19.0748 1.0347
28.6800 19.0882 1.0322
28.7000 19.1015 1.0366
28.7200 19.1149 1.0329
28.7400 19.1283 1.0381
28.7600 19.1416 1.0351
28.7800 19.1549 1.0376
28.8000 19.1683 1.0365
28.8200 19.1816 1.0374
28.8400 19.1949 1.0388
28.8600 19.2082 1.0389
28.8800 19.2215 1.0403
28.9000 19.2349 1.0383
28.9200 19.2482 1.0422
28.9400 19.2615 1.0395
28.9600 19.2748 1.0438
28.9800 19.2882 1.0413
29.0000 19.3015 1.0441
29.0200 19.3149 1.0423
29.0400 19.3282 1.0456
29.0600 19.3415 1.0445
29.0800 19.3549 1.0458
29.1000 19.3682 1.0470
29.1200 19.3816 1.0458
29.1400 19.3949 1.0495
29.1600 19.4083 1.0470
29.1800 19.4216 1.0502
29.2000 19.4349 1.0479
29.2200 19.4482 1.0518
29.2400 19.4615 1.0490
29.2600 19.4749 1.0531
29.2800 19.4882 1.0500
29.3000 19.5015 1.0532
29.3200 19.5148 1.0509
29.3400 19.5281 1.0537
29.3600 19.5415 1.0513
29.3800 19.5548 1.0548
29.4000 19.5682 1.0534
29.4200 19.5816 1.0560
29.4400 19.5950 1.0547
29.4600 19.6083 1.0575
29.4800 19.6216 1.0564
29.5000 19.6349 1.0580
29.5200 19.6482 1.0582
29.5400 19.6616 1.0585
29.5600 19.6749 1.0601
29.5800 19.6882 1.0593
29.6000 19.7015 1.0618
29.6200 19.7148 1.0601
29.6400 19.7282 1.0634
29.6600 19.7415 1.0607
29.6800 19.7548 1.0652
29.7000 19.7682 1.0621
29.7200 19.7815 1.0659
29.7400 19.7948 1.0636
29.7600 19.8082 1.0670
29.7800 19.8215 1.0664
29.8000 19.8349 1.0664
29.8200 19.8483 1.0690
29.8400 19.8616 1.0671
29.8600 19.8749 1.0713
29.8800 19.8883 1.0676
29.9000 19.9016 1.0726
29.9200 19.9149 1.0685
29.9400 19.9282 1.0750
29.9600 19.9415 1.0705
29.9800 19.9548 1.0752
30.0000 19.9682 1.0725
30.0200 19.9815 1.0757
30.0400 19.9948 1.0737
30.0600 20.0082 1.0760
30.0800 20.0215 1.0767
30.1000 20.0349 1.0761
30.1200 20.0482 1.0780
30.1400 20.0615 1.0775
30.1600 20.0749 1.0791
30.1800 20.0882 1.0794
30.2000 20.1016 1.0809
30.2200 20.1149 1.0793
30.2400 20.1282 1.0825
30.2600 20.1416 1.0807
30.2800 20.1549 1.0841
30.3000 20.1682 1.0823
30.3200 20.1816 1.0851
30.3400 20.1949 1.0832
30.3600 20.2083 1.0861
30.3800 20.2216 1.0847
30.4000 20.2348 1.0872
30.4200 20.2481 1.0862
30.4400 20.2615 1.0881
30.4600 20.2748 1.0870
30.4800 20.2881 1.0890
30.5000 20.3015 1.0890
30.5200 20.3149 1.0892
30.5400 20.3283 1.0901
30.5600 20.3416 1.0887
30.5800 20.3549 1.0912
30.6000 20.3683 1.0880
30.6200 20.3816 1.0913
30.6400 20.3950 1.0853
30.6600 20.4082 1.0915
30.6800 20.4215 1.0886
30.7000 20.4349 1.0930
30.7200 20.4482 1.0911
30.7400 20.4615 1.0942
30.7600 20.4748 1.0931
30.7800 20.4881 1.0955
30.8000 20.5015 1.0955
30.8200 20.5148 1.0963
30.8400 20.5282 1.0978
30.8600 20.5415 1.0968
30.8800 20.5549 1.0998
30.9000 20.5683 1.0974
30.9200 20.5816 1.1030
30.9400 20.5949 1.0978
30.9600 20.6083 1.1033
30.9800 20.6216 1.1004
31.0000 20.6349 1.1031
31.0200 20.6482 1.1028
31.0400 20.6615 1.1051
31.0600 20.6749 1.1035
31.0800 20.6882 1.1055
31.1000 20.7015 1.1064
31.1200 20.7148 1.1061
31.1400 20.7281 1.1075
31.1600 20.7415 1.1082
31.1800 20.7548 1.1083
31.2000 20.7682 1.1085
31.2200 20.7815 1.1103
31.2400 20.7949 1.1084
31.2600 20.8083 1.1118
31.2800 20.8216 1.1095
31.3000 20.8349 1.1126
31.3200 20.8483 1.1110
31.3400 20.8616 1.1147
31.3600 20.8749 1.1116
31.3800 20.8882 1.1163
31.4000 20.9015 1.1138
31.4200 20.9149 1.1167
31.4400 20.9282 1.1154
31.4600 20.9415 1.1184
31.4800 20.9548 1.1172
31.5000 20.9681 1.1193
31.5200 20.9815 1.1203
31.5400 20.9948 1.1187
31.5600 21.0082 1.1225
31.5800 21.0215 1.1194
31.6000 21.0349 1.1226
31.6200 21.0483 1.1204
31.6400 21.0616 1.1253
31.6600 21.0749 1.1219
31.6800 21.0883 1.1260
31.7000 21.1016 1.1248
31.7200 21.1150 1.1257
31.7400 21.1282 1.1278
31.7600 21.1415 1.1269
31.7800 21.1549 1.1291
31.8000 21.1682 1.1272
31.8200 21.1815 1.1316
31.8400 21.1948 1.1273
31.8600 21.2082 1.1338
31.8800 21.2215 1.1283
31.9000 21.2349 1.1343
31.9200 21.2482 1.1303
31.9400 21.2615 1.1365
31.9600 21.2749 1.1315
31.9800 21.2883 1.1370
32.0000 21.3016 1.1337
32.0200 21.3148 1.1371
32.0400 21.3282 1.1366
32.0600 21.3416 1.1384
32.0800 21.3549 1.1376
32.1000 21.3682 1.1398
32.1200 21.3815 1.1397
32.1400 21.3949 1.1405
32.1600 21.4082 1.1412
32.1800 21.4215 1.1411
32.2000 21.4348 1.1425
32.2200 21.4482 1.1413
32.2400 21.4615 1.1453
32.2600 21.4749 1.1425
32.2800 21.4882 1.1467
32.3000 21.5015 1.1444
32.3200 21.5149 1.1481
32.3400 21.5282 1.1456
32.3600 21.5416 1.1495
32.3800 21.5549 1.1474
32.4000 21.5682 1.1501
32.4200 21.5816 1.1495
32.4400 21.5949 1.1506
32.4600 21.6082 1.1514
32.4800 21.6215 1.1524
32.5000 21.6349 1.1531
32.5200 21.6482 1.1514
32.5400 21.6615 1.1555
32.5600 21.6748 1.1511
32.5800 21.6881 1.1565
32.6000 21.7015 1.1517
32.6200 21.7148 1.1572
32.6400 21.7281 1.1540
32.6600 21.7415 1.1589
32.6800 21.7549 1.1557
32.7000 21.7683 1.1591
32.7200 21.7816 1.1587
32.7400 21.7950 1.1599
32.7600 21.8083 1.1599
32.7800 21.8216 1.1616
32.8000 21.8350 1.1619
32.8200 21.8482 1.1607
32.8400 21.8615 1.1647
32.8600 21.8748 1.1618
32.8800 21.8882 1.1654
32.9000 21.9015 1.1625
32.9200 21.9148 1.1662
32.9400 21.9281 1.1636
32.9600 21.9415 1.1678
32.9800 21.9549 1.1652
33.0000 21.9682 1.1684
33.0200 21.9816 1.1679
33.0400 21.9949 1.1700
33.0600 22.0083 1.1693
33.0800 22.0216 1.1719
33.1000 22.0349 1.1716
33.1200 22.0482 1.1728
33.1400 22.0616 1.1741
33.1600 22.0749 1.1743
33.1800 22.0882 1.1762
33.2000 22.1015 1.1749
33.2200 22.1149 1.1781
33.2400 22.1282 1.1761
33.2600 22.1415 1.1803
33.2800 22.1548 1.1776
33.3000 22.1681 1.1812
33.3200 22.1815 1.1800
33.3400 22.1948 1.1822
33.3600 22.2082 1.1806
33.3800 22.2215 1.1838
33.4000 22.2349 1.1819
33.4200 22.2483 1.1833
33.4400 22.2616 1.1829
33.4600 22.2749 1.1828
33.4800 22.2882 1.1841
33.5000 22.3016 1.1839
33.5200 22.3149 1.1866
33.5400 22.3282 1.1850
33.5600 22.3415 1.1889
33.5800 22.3549 1.1862
33.6000 22.3682 1.1905
33.6200 22.3815 1.1880
33.6400 22.3948 1.1922
33.6600 22.4081 1.1894
33.6800 22.4215 1.1937
33.7000 22.4349 1.1924
33.7200 22.4482 1.1940
33.7400 22.4615 1.1946
33.7600 22.4749 1.1947
33.7800 22.4882 1.1962
33.8000 22.5016 1.1951
33.8200 22.5149 1.1983
33.8400 22.5282 1.1958
33.8600 22.5416 1.2006
33.8800 22.5549 1.1971
33.9000 22.5682 1.2022
33.9200 22.5815 1.1990
33.9400 22.5949 1.2040
33.9600 22.6082 1.2003
33.9800 22.6215 1.2053
34.0000 22.6348 1.2025
34.0200 22.6482 1.2068
34.0400 22.6615 1.2037
34.0600 22.6749 1.2083
34.0800 22.6882 1.2056
34.1000 22.7015 1.2096
34.1200 22.7149 1.2084
34.1400 22.7283 1.2092
34.1600 22.7416 1.2110
34.1800 22.7549 1.2110
34.2000 22.7682 1.2127
34.2200 22.7816 1.2115
34.2400 22.7949 1.2157
34.2600 22.8083 1.2124
34.2800 22.8216 1.2172
34.3000 22.8349 1.2140
34.3200 22.8482 1.2185
34.3400 22.8616 1.2157
34.3600 22.8749 1.2199
34.3800 22.8882 1.2166
34.4000 22.9015 1.2214
34.4200 22.9148 1.2189
34.4400 22.9281 1.2213
34.4600 22.9415 1.2210
34.4800 22.9549 1.2226
34.5000 22.9683 1.2237
34.5200 22.9816 1.2227
34.5400 22.9949 1.2270
34.5600 23.0082 1.2233
34.5800 23.0216 1.2290
34.6000 23.0350 1.2248
34.6200 23.0483 1.2297
34.6400 23.0615 1.2265
34.6600 23.0749 1.2314
34.6800 23.0882 1.2269
34.7000 23.1015 1.2323
34.7200 23.1148 1.2291
34.7400 23.1281 1.2328
34.7600 23.1415 1.2316
34.7800 23.1548 1.2334
34.8000 23.1682 1.2339
34.8200 23.1815 1.2357
34.8400 23.1948 1.2366
34.8600 23.2082 1.2351
34.8800 23.2216 1.2391
34.9000 23.2349 1.2374
34.9200 23.2482 1.2395
34.9400 23.2616 1.2397
34.9600 23.2749 1.2413
34.9800 23.2882 1.2408
35.0000 23.3015 1.2436
35.0200 23.3148 1.2430
35.0400 23.3282 1.2447
35.0600 23.3415 1.2440
35.0800 23.3548 1.2465
35.1000 23.3682 1.2462
35.1200 23.3815 1.2479
35.1400 23.3949 1.2491
35.1600 23.4082 1.2482
35.1800 23.4216 1.2516
35.2000 23.4349 1.2507
35.2200 23.4482 1.2519
35.2400 23.4616 1.2515
35.2600 23.4749 1.2541
35.2800 23.4882 1.2517
35.3000 23.5016 1.2555
35.3200 23.5149 1.2539
35.3400 23.5283 1.2574
35.3600 23.5416 1.2554
35.3800 23.5549 1.2592
35.4000 23.5683 1.2572
35.4200 23.5816 1.2600
35.4400 23.5949 1.2607
35.4600 23.6082 1.2602
35.4800 23.6215 1.2637
35.5000 23.6349 1.2614
35.5200 23.6482 1.2656
35.5400 23.6615 1.2622
35.5600 23.6748 1.2644
35.5800 23.6882 1.2575
35.6000 23.7016 1.2613
35.6200 23.7149 1.2585
35.6400 23.7282 1.2636
35.6600 23.7416 1.2616
35.6800 23.7550 1.2667
35.7000 23.7683 1.2638
35.7200 23.7816 1.2681
35.7400 23.7949 1.2688
35.7600 23.8082 1.2683
35.7800 23.8216 1.2711
35.8000 23.8349 1.2707
35.8200 23.8482 1.2737
35.8400 23.8615 1.2715
35.8600 23.8748 1.2765
35.8800 23.8882 1.2731
35.9000 23.9015 1.2781
35.9200 23.9148 1.2755
35.9400 23.9282 1.2801
35.9600 23.9416 1.2760
35.9800 23.9549 1.2815
36.0000 23.9682 1.2780
36.0200 23.9816 1.2834
36.0400 23.9949 1.2803
36.0600 24.0082 1.2837
36.0800 24.0216 1.2812
36.1000 24.0349 1.2842
36.1200 24.0482 1.2820
36.1400 24.0616 1.2828
36.1600 24.0749 1.2845
36.1800 24.0882 1.2842
36.2000 24.1015 1.2862
36.2200 24.1148 1.2872
36.2400 24.1282 1.2891
36.2600 24.1415 1.2879
36.2800 24.1548 1.2925
36.3000 24.1682 1.2888
36.3200 24.1816 1.2941
36.3400 24.1949 1.2915
36.3600 24.2082 1.2951
36.3800 24.2216 1.2930
36.4000 24.2349 1.2966
36.4200 24.2483 1.2941
36.4400 24.2616 1.2978
36.4600 24.2749 1.2983
36.4800 24.2882 1.2986
36.5000 24.3016 1.3004
36.5200 24.3149 1.3003
36.5400 24.3281 1.3031
36.5600 24.3415 1.3011
36.5800 24.3548 1.3063
36.6000 24.3682 1.3034
36.6200 24.3815 1.3072
36.6400 24.3949 1.3057
36.6600 24.4082 1.3092
36.6800 24.4216 1.3069
36.7000 24.4350 1.3109
36.7200 24.4483 1.3092
36.7400 24.4616 1.3114
36.7600 24.4749 1.3119
36.7800 24.4883 1.3124
36.8000 24.5016 1.3145
36.8200 24.5149 1.3141
36.8400 24.5282 1.3160
36.8600 24.5415 1.3151
36.8800 24.5548 1.3186
36.9000 24.5681 1.3173
36.9200 24.5815 1.3196
36.9400 24.5948 1.3196
36.9600 24.6082 1.3214
36.9800 24.6215 1.3201
37.0000 24.6349 1.3234
37.0200 24.6483 1.3221
37.0400 24.6616 1.3246
37.0600 24.6749 1.3248
37.0800 24.6883 1.3265
37.1000 24.7016 1.3268
37.1200 24.7149 1.3276
37.1400 24.7283 1.3291
37.1600 24.7416 1.3278
37.1800 24.7548 1.3320
37.2000 24.7682 1.3304
37.2200 24.7815 1.3330
37.2400 24.7948 1.3326
37.2600 24.8081 1.3361
37.2800 24.8215 1.3335
37.3000 24.8348 1.3394
37.3200 24.8482 1.3351
37.3400 24.8615 1.3409
37.3600 24.8748 1.3376
37.3800 24.8882 1.3423
37.4000 24.9016 1.3392
37.4200 24.9149 1.3428
37.4400 24.9282 1.3427
37.4600 24.9415 1.3431
37.4800 24.9549 1.3454
37.5000 24.9683 1.3448
37.5200 24.9816 1.3468
37.5400 24.9949 1.3459
37.5600 25.0082 1.3490
37.5800 25.0216 1.3453
37.6000 25.0349 1.3511
37.6200 25.0482 1.3471
37.6400 25.0615 1.3515
37.6600 25.0748 1.3503
37.6800 25.0882 1.3533
37.7000 25.1015 1.3524
37.7200 25.1148 1.3557
37.7400 25.1282 1.3557
37.7600 25.1416 1.3563
37.7800 25.1550 1.3578
37.8000 25.1683 1.3572
37.8200 25.1816 1.3568
37.8400 25.1950 1.3569
37.8600 25.2083 1.3585
37.8800 25.2216 1.3587
37.9000 25.2349 1.3626
37.9200 25.2482 1.3613
37.9400 25.2615 1.3645
37.9600 25.2749 1.3633
37.9800 25.2881 1.3673
38.0000 25.3014 1.3653
38.0200 25.3148 1.3693
38.0400 25.3282 1.3686
38.0600 25.3415 1.3695
38.0800 25.3549 1.3710
38.1000 25.3682 1.3726
38.1200 25.3816 1.3728
38.1400 25.3950 1.3746
38.1600 25.4083 1.3763
38.1800 25.4216 1.3749
38.2000 25.4349 1.3791
38.2200 25.4483 1.3768
38.2400 25.4616 1.3811
38.2600 25.4749 1.3784
38.2800 25.4882 1.3840
38.3000 25.5015 1.3794
38.3200 25.5149 1.3857
38.3400 25.5282 1.3830
38.3600 25.5415 1.3872
38.3800 25.5548 1.3858
38.4000 25.5682 1.3885
38.4200 25.5815 1.3871
38.4400 25.5949 1.3900
38.4600 25.6082 1.3915
38.4800 25.6216 1.3903
38.5000 25.6349 1.3932
38.5200 25.6483 1.3905
38.5400 25.6616 1.3929
38.5600 25.6749 1.3920
38.5800 25.6883 1.3964
38.6000 25.7016 1.3930
38.6200 25.7149 1.3981
38.6400 25.7282 1.3969
38.6600 25.7415 1.3996
38.6800 25.7549 1.4001
38.7000 25.7681 1.4023
38.7200 25.7814 1.4019
38.7400 25.7948 1.4039
38.7600 25.8082 1.4047
38.7800 25.8215 1.4043
38.8000 25.8349 1.4073
38.8200 25.8482 1.4063
38.8400 25.8616 1.4092
38.8600 25.8749 1.4075
38.8800 25.8883 1.4115
38.9000 25.9016 1.4095
38.9200 25.9149 1.4135
38.9400 25.9283 1.4108
38.9600 25.9416 1.4140
38.9800 25.9549 1.4132
39.0000 25.9682 1.4183
39.0200 25.9815 1.4151
39.0400 25.9949 1.4198
39.0600 26.0082 1.4189
39.0800 26.0215 1.4209
39.1000 26.0349 1.4220
39.1200 26.0482 1.4238
39.1400 26.0615 1.4241
39.1600 26.0748 1.4255
39.1800 26.0882 1.4270
39.2000 26.1016 1.4252
39.2200 26.1150 1.4300
39.2400 26.1282 1.4275
39.2600 26.1415 1.4324
39.2800 26.1549 1.4295
39.3000 26.1683 1.4357
39.3200 26.1816 1.4324
39.3400 26.1949 1.4370
39.3600 26.2082 1.4368
39.3800 26.2216 1.4379
39.4000 26.2349 1.4391
39.4200 26.2482 1.4403
39.4400 26.2615 1.4418
39.4600 26.2748 1.4426
39.4800 26.2882 1.4453
39.5000 26.3015 1.4435
39.5200 26.3148 1.4483
39.5400 26.3282 1.4466
39.5600 26.3416 1.4497
39.5800 26.3549 1.4475
39.6000 26.3682 1.4526
39.6200 26.3815 1.4492
39.6400 26.3949 1.4541
39.6600 26.4083 1.4528
39.6800 26.4216 1.4546
39.7000 26.4349 1.4555
39.7200 26.4482 1.4579
39.7400 26.4615 1.4571
39.7600 26.4749 1.4587
39.7800 26.4882 1.4613
39.8000 26.5015 1.4597
39.8200 26.5148 1.4635
39.8400 26.5281 1.4623
39.8600 26.5415 1.4668
39.8800 26.5548 1.4635
39.9000 26.5682 1.4705
39.9200 26.5816 1.4655
39.9400 26.5950 1.4719
39.9600 26.6083 1.4691
39.9800 26.6216 1.4738
40.0000 26.6350 1.4724
40.0200 26.6483 1.4766
40.0400 26.6616 1.4743
40.0600 26.6749 1.4779
40.0800 26.6881 1.4789
40.1000 26.7015 1.4793
40.1200 26.7148 1.4813
40.1400 26.7282 1.4820
40.1600 26.7415 1.4840
40.1800 26.7548 1.4793
40.2000 26.7682 1.4831
40.2200 26.7815 1.4783
40.2400 26.7949 1.4849
40.2600 26.8082 1.4824
40.2800 26.8216 1.4866
40.3000 26.8350 1.4851
40.3200 26.8483 1.4904
40.3400 26.8616 1.4885
40.3600 26.8749 1.4915
40.3800 26.8882 1.4916
40.4000 26.9016 1.4925
40.4200 26.9149 1.4942
40.4400 26.9282 1.4958
40.4600 26.9415 1.4976
40.4800 26.9549 1.4965
40.5000 26.9682 1.5008
40.5200 26.9815 1.4987
40.5400 26.9948 1.5034
40.5600 27.0082 1.5015
40.5800 27.0215 1.5038
40.6000 27.0348 1.5021
40.6200 27.0482 1.5054
40.6400 27.0616 1.5048
40.6600 27.0749 1.5075
40.6800 27.0883 1.5093
40.7000 27.1016 1.5101
40.7200 27.1149 1.5121
40.7400 27.1283 1.5132
40.7600 27.1416 1.5154
40.7800 27.1549 1.5161
40.8000 27.1682 1.5196
40.8200 27.1815 1.5180
40.8400 27.1949 1.5218
40.8600 27.2082 1.5198
40.8800 27.2215 1.5233
40.9000 27.2348 1.5210
40.9200 27.2482 1.5266
40.9400 27.2615 1.5243
40.9600 27.2749 1.5285
40.9800 27.2882 1.5290
41.0000 27.3016 1.5315
41.0200 27.3149 1.5309
41.0400 27.3283 1.5337
41.0600 27.3416 1.5339
41.0800 27.3549 1.5359
41.1000 27.3683 1.5379
41.1200 27.3816 1.5372
41.1400 27.3949 1.5405
41.1600 27.4082 1.5408
41.1800 27.4215 1.5435
41.2000 27.4349 1.5423
41.2200 27.4482 1.5475
41.2400 27.4615 1.5455
41.2600 27.4748 1.5498
41.2800 27.4882 1.5488
41.3000 27.5016 1.5527
41.3200 27.5149 1.5520
41.3400 27.5282 1.5560
41.3600 27.5415 1.5551
41.3800 27.5549 1.5570
41.4000 27.5682 1.5587
41.4200 27.5816 1.5594
41.4400 27.5949 1.5616
41.4600 27.6083 1.5616
41.4800 27.6216 1.5645
41.5000 27.6349 1.5619
41.5200 27.6482 1.5676
41.5400 27.6616 1.5637
41.5600 27.6749 1.5699
41.5800 27.6882 1.5658
41.6000 27.7015 1.5720
41.6200 27.7148 1.5689
41.6400 27.7281 1.5748
41.6600 27.7415 1.5732
41.6800 27.7548 1.5772
41.7000 27.7681 1.5784
41.7200 27.7815 1.5804
41.7400 27.7949 1.5804
41.7600 27.8083 1.5839
41.7800 27.8216 1.5851
41.8000 27.8349 1.5857
41.8200 27.8483 1.5895
41.8400 27.8616 1.5885
41.8600 27.8749 1.5917
41.8800 27.8882 1.5921
41.9000 27.9015 1.5956
41.9200 27.9149 1.5940
41.9400 27.9282 1.5985
41.9600 27.9415 1.5976
41.9800 27.9548 1.6001
42.0000 27.9681 1.5994
42.0200 27.9815 1.6005
42.0400 27.9948 1.5979
42.0600 28.0082 1.6032
42.0800 28.0215 1.6025
42.1000 28.0349 1.6056
42.1200 28.0483 1.6072
42.1400 28.0616 1.6093
42.1600 28.0749 1.6120
42.1800 28.0883 1.6123
42.2000 28.1016 1.6163
42.2200 28.1149 1.6147
42.2400 28.1282 1.6210
42.2600 28.1415 1.6182
42.2800 28.1548 1.6230
42.3000 28.1682 1.6205
42.3200 28.1815 1.6263
42.3400 28.1948 1.6224
42.3600 28.2082 1.6295
42.3800 28.2216 1.6267
42.4000 28.2349 1.6308
42.4200 28.2483 1.6320
42.4400 28.2616 1.6328
42.4600 28.2749 1.6346
42.4800 28.2883 1.6341
42.5000 28.3015 1.6381
42.5200 28.3149 1.6359
42.5400 28.3282 1.6428
42.5600 28.3416 1.6409
42.5800 28.3549 1.6458
42.6000 28.3682 1.6447
42.6200 28.3816 1.6498
42.6400 28.3949 1.6472
42.6600 28.4083 1.6525
42.6800 28.4215 1.6517
42.7000 28.4348 1.6545
42.7200 28.4482 1.6552
42.7400 28.4615 1.6568
42.7600 28.4748 1.6582
42.7800 28.4882 1.6605
42.8000 28.5015 1.6630
42.8200 28.5149 1.6624
42.8400 28.5283 1.6667
42.8600 28.5416 1.6653
42.8800 28.5549 1.6690
42.9000 28.5683 1.6683
42.9200 28.5816 1.6732
42.9400 28.5949 1.6707
42.9600 28.6082 1.6767
42.9800 28.6215 1.6750
43.0000 28.6349 1.6811
43.0200 28.6482 1.6793
43.0400 28.6615 1.6851
43.0600 28.6748 1.6833
43.0800 28.6881 1.6883
43.1000 28.7015 1.6888
43.1200 28.7148 1.6909
43.1400 28.7281 1.6947
43.1600 28.7415 1.6954
43.1800 28.7549 1.6987
43.2000 28.7682 1.6990
43.2200 28.7816 1.7054
43.2400 28.7949 1.7014
43.2600 28.8083 1.7087
43.2800 28.8216 1.7055
43.3000 28.8349 1.7105
43.3200 28.8482 1.7098
43.3400 28.8615 1.7147
43.3600 28.8749 1.7130
43.3800 28.8882 1.7138
43.4000 28.9015 1.7160
43.4200 28.9148 1.7150
43.4400 28.9282 1.7216
43.4600 28.9415 1.7196
43.4800 28.9548 1.7266
43.5000 28.9682 1.7245
43.5200 28.9815 1.7326
43.5400 28.9949 1.7296
43.5600 29.0083 1.7374
43.5800 29.0216 1.7357
43.6000 29.0349 1.7404
43.6200 29.0482 1.7401
43.6400 29.0616 1.7451
43.6600 29.0749 1.7438
43.6800 29.0882 1.7476
43.7000 29.1016 1.7484
43.7200 29.1149 1.7489
43.7400 29.1282 1.7524
43.7600 29.1415 1.7541
43.7800 29.1548 1.7570
43.8000 29.1682 1.7593
43.8200 29.1815 1.7631
43.8400 29.1949 1.7630
43.8600 29.2082 1.7691
43.8800 29.2215 1.7687
43.9000 29.2349 1.7737
43.9200 29.2483 1.7736
43.9400 29.2616 1.7777
43.9600 29.2749 1.7751
43.9800 29.2883 1.7792
44.0000 29.3016 1.7794
44.0200 29.3149 1.7824
44.0400 29.3282 1.7851
44.0600 29.3415 1.7876
44.0800 29.3548 1.7908
44.1000 29.3682 1.7912
44.1200 29.3815 1.7980
44.1400 29.3948 1.7952
44.1600 29.4082 1.8028
44.1800 29.4215 1.8004
44.2000 29.4348 1.8073
44.2200 29.4482 1.8055
44.2400 29.4615 1.8138
44.2600 29.4749 1.8119
44.2800 29.4883 1.8185
44.3000 29.5016 1.8192
44.3200 29.5149 1.8235
44.3400 29.5283 1.8252
44.3600 29.5416 1.8287
44.3800 29.5549 1.8318
44.4000 29.5682 1.8324
44.4200 29.5815 1.8397
44.4400 29.5948 1.8374
44.4600 29.6082 1.8448
44.4800 29.6215 1.8430
44.5000 29.6348 1.8485
44.5200 29.6481 1.8468
44.5400 29.6615 1.8503
44.5600 29.6748 1.8480
44.5800 29.6882 1.8532
44.6000 29.7015 1.8550
44.6200 29.7149 1.8601
44.6400 29.7283 1.8620
44.6600 29.7416 1.8676
44.6800 29.7549 1.8693
44.7000 29.7682 1.8723
44.7200 29.7816 1.8754
44.7400 29.7949 1.8765
44.7600 29.8082 1.8807
44.7800 29.8216 1.8826
44.8000 29.8349 1.8858
44.8200 29.8483 1.8868
44.8400 29.8616 1.8919
44.8600 29.8748 1.8910
44.8800 29.8881 1.8963
44.9000 29.9015 1.8972
44.9200 29.9148 1.9032
44.9400 29.9281 1.9030
44.9600 29.9415 1.9103
44.9800 29.9549 1.9109
45.0000 29.9683 1.9153
45.0200 29.9816 1.9195
45.0400 29.9949 1.9198
45.0480 30.0001 1.9209
45.0490 30.0008 1.9209
45.0500 30.0014 1.9209
45.0700 30.0119 1.9044
45.0900 30.0141 1.8982
45.1100 30.0058 1.8994
45.1300 29.9931 1.9047
45.1500 29.9802 1.8920
45.1700 29.9673 1.8839
45.1900 29.9538 1.8756
45.2100 29.9398 1.8667
45.2300 29.9257 1.8614
45.2500 29.9119 1.8518
45.2700 29.8984 1.8483
45.2900 29.8851 1.8346
45.3100 29.8718 1.8337
45.3300 29.8585 1.8231
45.3500 29.8451 1.8203
45.3700 29.8318 1.8115
45.3900 29.8185 1.8083
45.4100 29.8051 1.7993
45.4300 29.7917 1.7960
45.4500 29.7784 1.7895
45.4700 29.7651 1.7844
45.4900 29.7518 1.7779
45.5100 29.7384 1.7732
45.5300 29.7250 1.7680
45.5500 29.7116 1.7626
45.5700 29.6983 1.7601
45.5900 29.6850 1.7520
45.6100 29.6716 1.7498
45.6300 29.6583 1.7428
45.6500 29.6450 1.7395
45.6700 29.6317 1.7338
45.6900 29.6183 1.7321
45.7100 29.6050 1.7246
45.7300 29.5917 1.7231
45.7500 29.5784 1.7167
45.7700 29.5651 1.7146
45.7900 29.5517 1.7083
45.8100 29.5384 1.7061
45.8300 29.5251 1.7006
45.8500 29.5117 1.6966
45.8700 29.4984 1.6948
45.8900 29.4850 1.6884
45.9100 29.4717 1.6869
45.9300 29.4584 1.6810
45.9500 29.4450 1.6794
45.9700 29.4317 1.6732
45.9900 29.4183 1.6731
46.0100 29.4050 1.6655
46.0300 29.3917 1.6657
46.0500 29.3784 1.6603
46.0700 29.3650 1.6587
46.0900 29.3517 1.6540
46.1100 29.3384 1.6512
46.1300 29.3251 1.6479
46.1500 29.3117 1.6437
46.1700 29.2984 1.6434
46.1900 29.2851 1.6359
46.2100 29.2718 1.6371
46.2300 29.2584 1.6300
46.2500 29.2450 1.6315
46.2700 29.2316 1.6239
46.2900 29.2183 1.6252
46.3100 29.2050 1.6174
46.3300 29.1916 1.6177
46.3500 29.1783 1.6132
46.3700 29.1650 1.6108
46.3900 29.1517 1.6077
46.4100 29.1384 1.6050
46.4300 29.1250 1.6020
46.4500 29.1117 1.5985
46.4700 29.0985 1.5983
46.4900 29.0851 1.5917
46.5100 29.0717 1.5919
46.5300 29.0583 1.5865
46.5500 29.0450 1.5865
46.5700 29.0317 1.5803
46.5900 29.0183 1.5819
46.6100 29.0049 1.5756
46.6300 28.9916 1.5752
46.6500 28.9783 1.5717
46.6700 28.9650 1.5697
46.6900 28.9516 1.5661
46.7100 28.9382 1.5652
46.7300 28.9249 1.5610
46.7500 28.9116 1.5592
46.7700 28.8983 1.5569
46.7900 28.8850 1.5538
46.8100 28.8717 1.5526
46.8300 28.8584 1.5486
46.8500 28.8451 1.5483
46.8700 28.8317 1.5426
46.8900 28.8184 1.5444
46.9100 28.8051 1.5370
46.9300 28.7917 1.5394
46.9500 28.7783 1.5335
46.9700 28.7649 1.5345
46.9900 28.7516 1.5281
47.0100 28.7383 1.5306
47.0300 28.7250 1.5231
47.0500 28.7116 1.5247
47.0700 28.6983 1.5207
47.0900 28.6850 1.5190
47.1100 28.6717 1.5161
47.1300 28.6584 1.5142
47.1500 28.6450 1.5130
47.1700 28.6317 1.5089
47.1900 28.6184 1.5100
47.2100 28.6051 1.5034
47.2300 28.5918 1.5054
47.2500 28.5784 1.5000
47.2700 28.5650 1.5012
47.2900 28.5517 1.4948
47.3100 28.5384 1.4974
47.3300 28.5250 1.4918
47.3500 28.5116 1.4904
47.3700 28.4983 1.4893
47.3900 28.4850 1.4862
47.4100 28.4716 1.4850
47.4300 28.4583 1.4832
47.4500 28.4450 1.4809
47.4700 28.4317 1.4776
47.4900 28.4183 1.4788
47.5100 28.4050 1.4721
47.5300 28.3917 1.4752
47.5500 28.3784 1.4686
47.5700 28.3651 1.4708
47.5900 28.3517 1.4649
47.6100 28.3383 1.4664
47.6300 28.3250 1.4620
47.6500 28.3117 1.4616
47.6700 28.2984 1.4578
47.6900 28.2850 1.4584
47.7100 28.2716 1.4538
47.7300 28.2583 1.4535
47.7500 28.2450 1.4519
47.7700 28.2317 1.4480
47.7900 28.2183 1.4492
47.8100 28.2050 1.4450
47.8300 28.1917 1.4440
47.8500 28.1783 1.4414
47.8700 28.1650 1.4416
47.8900 28.1516 1.4362
47.9100 28.1384 1.4393
47.9300 28.1251 1.4332
47.9500 28.1117 1.4341
47.9700 28.0983 1.4311
47.9900 28.0850 1.4296
48.0100 28.0717 1.4274
48.0300 28.0584 1.4267
48.0500 28.0450 1.4242
48.0700 28.0316 1.4217
48.0900 28.0183 1.4229
48.1100 28.0050 1.4164
48.1300 27.9916 1.4206
48.1500 27.9783 1.4126
48.1700 27.9650 1.4178
48.1900 27.9517 1.4090
48.2100 27.9383 1.4132
48.2300 27.9250 1.4066
48.2500 27.9117 1.4097
48.2700 27.8984 1.4034
48.2900 27.8851 1.4060
48.3100 27.8717 1.3998
48.3300 27.8583 1.4019
48.3500 27.8450 1.3990
48.3700 27.8317 1.3963
48.3900 27.8184 1.3969
48.4100 27.8050 1.3926
48.4300 27.7916 1.3935
48.4500 27.7783 1.3897
48.4700 27.7650 1.3914
48.4900 27.7517 1.3854
48.5100 27.7383 1.3887
48.5300 27.7250 1.3826
48.5500 27.7117 1.3844
48.5700 27.6984 1.3809
48.5900 27.6850 1.3806
48.6100 27.6717 1.3779
48.6300 27.6584 1.3772
48.6500 27.6451 1.3752
48.6700 27.6317 1.3730
48.6900 27.6184 1.3727
48.7100 27.6050 1.3695
48.7300 27.5917 1.3695
48.7500 27.5783 1.3657
48.7700 27.5650 1.3680
48.7900 27.5516 1.3618
48.8100 27.5383 1.3653
48.8300 27.5250 1.3589
48.8500 27.5117 1.3610
48.8700 27.4983 1.3565
48.8900 27.4850 1.3578
48.9100 27.4717 1.3531
48.9300 27.4584 1.3549
48.9500 27.4450 1.3515
48.9700 27.4317 1.3515
48.9900 27.4184 1.3483
49.0100 27.4051 1.3479
49.0300 27.3917 1.3464
49.0500 27.3783 1.3441
49.0700 27.3650 1.3445
49.0900 27.3517 1.3394
49.1100 27.3384 1.3432
49.1300 27.3250 1.3361
49.1500 27.3116 1.3404
49.1700 27.2983 1.3338
49.1900 27.2850 1.3369
49.2100 27.2716 1.3310
49.2300 27.2583 1.3339
49.2500 27.2450 1.3296
49.2700 27.2317 1.3298
49.2900 27.2184 1.3277
49.3100 27.2050 1.3260
49.3300 27.1917 1.3258
49.3500 27.1784 1.3220
49.3700 27.1651 1.3237
49.3900 27.1517 1.3174
49.4100 27.1383 1.3214
49.4300 27.1250 1.3152
49.4500 27.1117 1.3183
49.4700 27.0984 1.3122
49.4900 27.0850 1.3156
49.5100 27.0716 1.3103
49.5300 27.0583 1.3114
49.5500 27.0450 1.3083
49.5700 27.0317 1.3075
49.5900 27.0183 1.3065
49.6100 27.0050 1.3047
49.6300 26.9917 1.3047
49.6500 26.9784 1.3012
49.6700 26.9650 1.3030
49.6900 26.9517 1.2978
49.7100 26.9384 1.3004
49.7300 26.9251 1.2957
49.7500 26.9117 1.2975
49.7700 26.8984 1.2924
49.7900 26.8850 1.2962
49.8100 26.8717 1.2888
49.8300 26.8584 1.2926
49.8500 26.8450 1.2875
49.8700 26.8316 1.2890
49.8900 26.8183 1.2859
49.9100 26.8050 1.2860
49.9300 26.7917 1.2829
49.9500 26.7783 1.2831
49.9700 26.7649 1.2815
49.9900 26.7516 1.2796
50.0100 26.7383 1.2794
50.0300 26.7250 1.2766
50.0500 26.7117 1.2779
50.0700 26.6984 1.2731
50.0900 26.6851 1.2761
50.1100 26.6717 1.2699
50.1300 26.6584 1.2734
50.1500 26.6450 1.2680
50.1700 26.6317 1.2700
50.1900 26.6184 1.2656
50.2100 26.6050 1.2675
50.2300 26.5916 1.2636
50.2500 26.5783 1.2639
50.2700 26.5650 1.2627
50.2900 26.5516 1.2602
50.3100 26.5383 1.2604
50.3300 26.5249 1.2584
50.3500 26.5116 1.2579
50.3700 26.4983 1.2548
50.3900 26.4850 1.2571
50.4100 26.4717 1.2514
50.4300 26.4584 1.2538
50.4500 26.4451 1.2507
50.4700 26.4318 1.2510
50.4900 26.4184 1.2474
50.5100 26.4050 1.2491
50.5300 26.3917 1.2452
50.5500 26.3784 1.2459
50.5700 26.3650 1.2435
50.5900 26.3516 1.2435
50.6100 26.3383 1.2413
50.6300 26.3250 1.2408
50.6500 26.3117 1.2390
50.6700 26.2983 1.2377
50.6900 26.2849 1.2382
50.7100 26.2716 1.2342
50.7300 26.2583 1.2358
50.7500 26.2450 1.2318
50.7700 26.2316 1.2339
50.7900 26.2183 1.2293
50.8100 26.2050 1.2318
50.8300 26.1917 1.2268
50.8500 26.1784 1.2293
50.8700 26.1650 1.2252
50.8900 26.1517 1.2260
50.9100 26.1384 1.2233
50.9300 26.1250 1.2237
50.9500 26.1116 1.2214
50.9700 26.0983 1.2202
50.9900 26.0850 1.2205
51.0100 26.0717 1.2171
51.0300 26.0583 1.2188
51.0500 26.0450 1.2146
51.0700 26.0316 1.2175
51.0900 26.0183 1.2112
51.1100 26.0050 1.2157
51.1300 25.9917 1.2093
51.1500 25.9783 1.2126
51.1700 25.9650 1.2075
51.1900 25.9517 1.2105
51.2100 25.9383 1.2054
51.2300 25.9250 1.2076
51.2500 25.9117 1.2040
51.2700 25.8984 1.2038
51.2900 25.8851 1.2031
51.3100 25.8717 1.2012
51.3300 25.8583 1.2015
51.3500 25.8450 1.1980
51.3700 25.8317 1.2001
51.3900 25.8183 1.1953
51.4100 25.8050 1.1991
51.4300 25.7916 1.1936
51.4500 25.7783 1.1957
51.4700 25.7650 1.1920
51.4900 25.7517 1.1929
51.5100 25.7383 1.1903
51.5300 25.7250 1.1909
51.5500 25.7117 1.1885
51.5700 25.6984 1.1873
51.5900 25.6850 1.1873
51.6100 25.6717 1.1850
51.6300 25.6584 1.1851
51.6500 25.6450 1.1823
51.6700 25.6317 1.1841
51.6900 25.6183 1.1787
51.7100 25.6050 1.1827
51.7300 25.5917 1.1765
51.7500 25.5783 1.1798
51.7700 25.5649 1.1752
51.7900 25.5516 1.1780
51.8100 25.5383 1.1726
51.8300 25.5250 1.1762
51.8500 25.5116 1.1713
51.8700 25.4983 1.1725
51.8900 25.4850 1.1704
51.9100 25.4718 1.1693
51.9300 25.4584 1.1687
51.9500 25.4450 1.1672
51.9700 25.4317 1.1680
51.9900 25.4184 1.1638
52.0100 25.4051 1.1667
52.0300 25.3917 1.1610
52.0500 25.3783 1.1649
52.0700 25.3650 1.1595
52.0900 25.3516 1.1621
52.1100 25.3383 1.1580
52.1300 25.3249 1.1598
52.1500 25.3116 1.1574
52.1700 25.2983 1.1559
52.1900 25.2850 1.1565
52.2100 25.2717 1.1540
52.2300 25.2583 1.1544
52.2500 25.2451 1.1511
52.2700 25.2318 1.1530
52.2900 25.2184 1.1480
52.3100 25.2050 1.1524
52.3300 25.1917 1.1452
52.3500 25.1783 1.1494
52.3700 25.1650 1.1440
52.3900 25.1516 1.1474
52.4100 25.1383 1.1422
52.4300 25.1249 1.1444
52.4500 25.1116 1.1418
52.4700 25.0983 1.1410
52.4900 25.0849 1.1407
52.5100 25.0716 1.1388
52.5300 25.0583 1.1394
52.5500 25.0450 1.1363
52.5700 25.0317 1.1378
52.5900 25.0183 1.1342
52.6100 25.0051 1.1363
52.6300 24.9917 1.1322
52.6500 24.9784 1.1339
52.6700 24.9650 1.1304
52.6900 24.9517 1.1326
52.7100 24.9384 1.1278
52.7300 24.9250 1.1300
52.7500 24.9116 1.1278
52.7700 24.8983 1.1264
52.7900 24.8850 1.1270
52.8100 24.8716 1.1245
52.8300 24.8583 1.1247
52.8500 24.8449 1.1224
52.8700 24.8316 1.1232
52.8900 24.8183 1.1197
52.9100 24.8050 1.1217
52.9300 24.7917 1.1180
52.9500 24.7783 1.1200
52.9700 24.7650 1.1155
52.9900 24.7517 1.1183
53.0100 24.7384 1.1138
53.0300 24.7250 1.1160
53.0500 24.7117 1.1129
53.0700 24.6984 1.1128
53.0900 24.6850 1.1114
53.1100 24.6717 1.1105
53.1300 24.6583 1.1105
53.1500 24.6450 1.1084
53.1700 24.6317 1.1093
53.1900 24.6183 1.1058
53.2100 24.6050 1.1071
53.2300 24.5916 1.1045
53.2500 24.5783 1.1055
53.2700 24.5650 1.1021
53.2900 24.5517 1.1042
53.3100 24.5383 1.0998
53.3300 24.5250 1.1019
53.3500 24.5117 1.0988
53.3700 24.4984 1.0994
53.3900 24.4850 1.0975
53.4100 24.4717 1.0971
53.4300 24.4584 1.0963
53.4500 24.4451 1.0941
53.4700 24.4317 1.0953
53.4900 24.4183 1.0923
53.5100 24.4050 1.0941
53.5300 24.3916 1.0897
53.5500 24.3783 1.0930
53.5700 24.3649 1.0874
53.5900 24.3516 1.0923
53.6100 24.3383 1.0859
53.6300 24.3250 1.0892
53.6500 24.3117 1.0847
53.6700 24.2983 1.0871
53.6900 24.2850 1.0837
53.7100 24.2717 1.0849
53.7300 24.2584 1.0820
53.7500 24.2450 1.0826
53.7700 24.2317 1.0815
53.7900 24.2184 1.0796
53.8100 24.2050 1.0794
53.8300 24.1917 1.0779
53.8500 24.1783 1.0783
53.8700 24.1650 1.0755
53.8900 24.1516 1.0771
53.9100 24.1383 1.0737
53.9300 24.1249 1.0755
53.9500 24.1116 1.0722
53.9700 24.0983 1.0731
53.9900 24.0850 1.0707
54.0100 24.0717 1.0719
54.0300 24.0583 1.0692
54.0500 24.0450 1.0694
54.0700 24.0317 1.0680
54.0900 24.0184 1.0675
54.1100 24.0050 1.0660
54.1300 23.9917 1.0661
54.1500 23.9784 1.0648
54.1700 23.9650 1.0629
54.1900 23.9517 1.0640
54.2100 23.9383 1.0605
54.2300 23.9249 1.0631
54.2500 23.9116 1.0588
54.2700 23.8983 1.0616
54.2900 23.8850 1.0561
54.3100 23.8716 1.0612
54.3300 23.8583 1.0542
54.3500 23.8451 1.0589
54.3700 23.8317 1.0537
54.3900 23.8184 1.0566
54.4100 23.8051 1.0525
54.4300 23.7918 1.0544
54.4500 23.7784 1.0517
54.4700 23.7651 1.0514
54.4900 23.7517 1.0508
54.5100 23.7383 1.0490
54.5300 23.7250 1.0504
54.5500 23.7117 1.0467
54.5700 23.6983 1.0488
54.5900 23.6850 1.0443
54.6100 23.6717 1.0475
54.6300 23.6583 1.0427
54.6500 23.6450 1.0455
54.6700 23.6316 1.0427
54.6900 23.6183 1.0423
54.7100 23.6050 1.0411
54.7300 23.5916 1.0412
54.7500 23.5783 1.0398
54.7700 23.5650 1.0384
54.7900 23.5517 1.0393
54.8100 23.5384 1.0355
54.8300 23.5250 1.0375
54.8500 23.5117 1.0345
54.8700 23.4983 1.0363
54.8900 23.4850 1.0325
54.9100 23.4717 1.0345
54.9300 23.4583 1.0303
54.9500 23.4449 1.0338
54.9700 23.4316 1.0288
54.9900 23.4183 1.0317
55.0100 23.4050 1.0277
55.0300 23.3916 1.0298
55.0500 23.3783 1.0273
55.0700 23.3650 1.0267
55.0900 23.3517 1.0264
55.1100 23.3383 1.0254
55.1300 23.3250 1.0244
55.1500 23.3117 1.0230
55.1700 23.2984 1.0239
55.1900 23.2850 1.0196
55.2100 23.2717 1.0238
55.2300 23.2584 1.0180
55.2500 23.2451 1.0214
55.2700 23.2317 1.0160
55.2900 23.2183 1.0204
55.3100 23.2050 1.0148
55.3300 23.1917 1.0181
55.3500 23.1783 1.0149
55.3700 23.1650 1.0146
55.3900 23.1516 1.0152
55.4100 23.1383 1.0124
55.4300 23.1250 1.0136
55.4500 23.1117 1.0106
55.4700 23.0983 1.0133
55.4900 23.0850 1.0075
55.5100 23.0717 1.0137
55.5300 23.0584 1.0051
55.5500 23.0450 1.0112
55.5700 23.0317 1.0044
55.5900 23.0184 1.0084
55.6100 23.0050 1.0035
55.6300 22.9917 1.0062
55.6500 22.9783 1.0035
55.6700 22.9649 1.0036
55.6900 22.9516 1.0030
55.7100 22.9383 1.0003
55.7300 22.9250 1.0028
55.7500 22.9116 0.9981
55.7700 22.8983 1.0013
55.7900 22.8850 0.9965
55.8100 22.8717 0.9995
55.8300 22.8584 0.9960
55.8500 22.8451 0.9974
55.8700 22.8318 0.9940
55.8900 22.8184 0.9965
55.9100 22.8051 0.9926
55.9300 22.7917 0.9946
55.9500 22.7783 0.9927
55.9700 22.7650 0.9912
55.9900 22.7516 0.9915
56.0100 22.7383 0.9896
56.0300 22.7249 0.9904
56.0500 22.7116 0.9879
56.0700 22.6983 0.9890
56.0900 22.6850 0.9855
56.1100 22.6716 0.9881
56.1300 22.6583 0.9839
56.1500 22.6450 0.9869
56.1700 22.6317 0.9823
56.1900 22.6183 0.9855
56.2100 22.6050 0.9802
56.2300 22.5917 0.9845
56.2500 22.5784 0.9796
56.2700 22.5650 0.9815
56.2900 22.5517 0.9794
56.3100 22.5383 0.9795
56.3300 22.5250 0.9783
56.3500 22.5117 0.9766
56.3700 22.4983 0.9786
56.3900 22.4850 0.9748
56.4100 22.4716 0.9769
56.4300 22.4583 0.9722
56.4500 22.4450 0.9763
56.4700 22.4316 0.9710
56.4900 22.4183 0.9748
56.5100 22.4050 0.9697
56.5300 22.3917 0.9729
56.5500 22.3784 0.9692
56.5700 22.3650 0.9705
56.5900 22.3517 0.9689
56.6100 22.3384 0.9682
56.6300 22.3250 0.9677
56.6500 22.3116 0.9658
56.6700 22.2983 0.9680
56.6900 22.2850 0.9630
56.7100 22.2717 0.9675
56.7300 22.2583 0.9617
56.7500 22.2450 0.9653
56.7700 22.2317 0.9602
56.7900 22.2184 0.9638
56.8100 22.2050 0.9593
56.8300 22.1916 0.9618
56.8500 22.1783 0.9585
56.8700 22.1650 0.9602
56.8900 22.1517 0.9570
56.9100 22.1383 0.9582
56.9300 22.1250 0.9565
56.9500 22.1117 0.9557
56.9700 22.0984 0.9557
56.9900 22.0851 0.9534
57.0100 22.0717 0.9551
57.0300 22.0584 0.9521
57.0500 22.0451 0.9535
57.0700 22.0317 0.9497
57.0900 22.0183 0.9529
57.1100 22.0050 0.9484
57.1300 21.9916 0.9518
57.1500 21.9783 0.9468
57.1700 21.9650 0.9505
57.1900 21.9516 0.9447
57.2100 21.9383 0.9499
57.2300 21.9250 0.9439
57.2500 21.9117 0.9467
57.2700 21.8983 0.9444
57.2900 21.8850 0.9440
57.3100 21.8717 0.9439
57.3300 21.8584 0.9418
57.3500 21.8451 0.9437
57.3700 21.8317 0.9392
57.3900 21.8183 0.9435
57.4100 21.8050 0.9370
57.4300 21.7917 0.9415
57.4500 21.7783 0.9364
57.4700 21.7649 0.9404
57.4900 21.7516 0.9343
57.5100 21.7383 0.9387
57.5300 21.7250 0.9330
57.5500 21.7116 0.9362
57.5700 21.6983 0.9343
57.5900 21.6850 0.9334
57.6100 21.6717 0.9336
57.6300 21.6583 0.9310
57.6500 21.6450 0.9332
57.6700 21.6317 0.9288
57.6900 21.6184 0.9322
57.7100 21.6051 0.9277
57.7300 21.5917 0.9304
57.7500 21.5783 0.9263
57.7700 21.5650 0.9293
57.7900 21.5517 0.9243
57.8100 21.5383 0.9283
57.8300 21.5250 0.9232
57.8500 21.5116 0.9260
57.8700 21.4983 0.9225
57.8900 21.4850 0.9242
57.9100 21.4716 0.9214
57.9300 21.4583 0.9232
57.9500 21.4450 0.9206
57.9700 21.4317 0.9202
57.9900 21.4183 0.9206
58.0100 21.4050 0.9189
58.0300 21.3917 0.9189
58.0500 21.3784 0.9175
58.0700 21.3650 0.9183
58.0900 21.3517 0.9147
58.1100 21.3384 0.9186
58.1300 21.3251 0.9129
58.1500 21.3117 0.9165
58.1700 21.2983 0.9118
58.1900 21.2850 0.9151
58.2100 21.2717 0.9108
58.2300 21.2584 0.9139
58.2500 21.2450 0.9101
58.2700 21.2317 0.9107
58.2900 21.2183 0.9106
58.3100 21.2050 0.9093
58.3300 21.1917 0.9089
58.3500 21.1784 0.9072
58.3700 21.1650 0.9092
58.3900 21.1517 0.9047
58.4100 21.1384 0.9084
58.4300 21.1250 0.9026
58.4500 21.1117 0.9070
58.4700 21.0983 0.9021
58.4900 21.0850 0.9057
58.5100 21.0717 0.9004
58.5300 21.0583 0.9041
58.5500 21.0450 0.8996
58.5700 21.0317 0.9021
58.5900 21.0183 0.8992
58.6100 21.0050 0.8999
58.6300 20.9916 0.8985
58.6500 20.9783 0.8979
58.6700 20.9650 0.8984
58.6900 20.9517 0.8958
58.7100 20.9383 0.8972
58.7300 20.9250 0.8952
58.7500 20.9117 0.8959
58.7700 20.8984 0.8935
58.7900 20.8851 0.8947
58.8100 20.8717 0.8914
58.8300 20.8583 0.8941
58.8500 20.8450 0.8904
58.8700 20.8317 0.8922
58.8900 20.8184 0.8892
58.9100 20.8050 0.8910
58.9300 20.7917 0.8884
58.9500 20.7784 0.8889
58.9700 20.7650 0.8878
58.9900 20.7516 0.8860
59.0100 20.7383 0.8881
59.0300 20.7249 0.8846
59.0500 20.7116 0.8867
59.0700 20.6983 0.8823
59.0900 20.6850 0.8870
59.1100 20.6717 0.8798
59.1300 20.6584 0.8858
59.1500 20.6451 0.8793
59.1700 20.6317 0.8837
59.1900 20.6184 0.8784
59.2100 20.6050 0.8823
59.2300 20.5917 0.8772
59.2500 20.5784 0.8795
59.2700 20.5650 0.8779
59.2900 20.5516 0.8761
59.3100 20.5383 0.8778
59.3300 20.5250 0.8750
59.3500 20.5116 0.8763
59.3700 20.4983 0.8738
59.3900 20.4850 0.8756
59.4100 20.4717 0.8709
59.4300 20.4583 0.8757
59.4500 20.4450 0.8700
59.4700 20.4317 0.8732
59.4900 20.4184 0.8693
59.5100 20.4051 0.8720
59.5300 20.3917 0.8681
59.5500 20.3783 0.8704
59.5700 20.3650 0.8687
59.5900 20.3517 0.8666
59.6100 20.3383 0.8684
59.6300 20.3250 0.8662
59.6500 20.3116 0.8672
59.6700 20.2983 0.8640
59.6900 20.2850 0.8668
59.7100 20.2716 0.8617
59.7300 20.2583 0.8658
59.7500 20.2450 0.8607
59.7700 20.2317 0.8647
59.7900 20.2183 0.8593
59.8100 20.2050 0.8639
59.8300 20.1917 0.8582
59.8500 20.1784 0.8614
59.8700 20.1651 0.8579
59.8900 20.1517 0.8589
59.9100 20.1383 0.8576
59.9300 20.1250 0.8580
59.9500 20.1117 0.8557
59.9700 20.0983 0.8561
59.9900 20.0850 0.8560
60.0100 20.0716 0.8541
60.0300 20.0583 0.8556
60.0500 20.0450 0.8520
60.0700 20.0316 0.8546
60.0900 20.0183 0.8503
60.1100 20.0050 0.8546
60.1300 19.9917 0.8483
60.1500 19.9783 0.8530
60.1700 19.9650 0.8488
60.1900 19.9517 0.8505
60.2100 19.9384 0.8478
60.2300 19.9251 0.8490
60.2500 19.9117 0.8471
60.2700 19.8983 0.8464
60.2900 19.8850 0.8474
60.3100 19.8717 0.8434
60.3300 19.8584 0.8474
60.3500 19.8450 0.8423
60.3700 19.8316 0.8460
60.3900 19.8183 0.8405
60.4100 19.8050 0.8453
60.4300 19.7916 0.8393
60.4500 19.7783 0.8438
60.4700 19.7650 0.8392
60.4900 19.7517 0.8415
60.5100 19.7383 0.8388
60.5300 19.7250 0.8394
60.5500 19.7117 0.8388
60.5700 19.6984 0.8370
60.5900 19.6850 0.8384
60.6100 19.6717 0.8351
60.6300 19.6584 0.8376
60.6500 19.6451 0.8340
60.6700 19.6318 0.8365
60.6900 19.6184 0.8319
60.7100 19.6050 0.8360
60.7300 19.5916 0.8307
60.7500 19.5783 0.8341
60.7700 19.5650 0.8306
60.7900 19.5516 0.8321
60.8100 19.5382 0.8296
60.8300 19.5249 0.8313
60.8500 19.5116 0.8286
60.8700 19.4983 0.8287
60.8900 19.4850 0.8290
60.9100 19.4717 0.8270
60.9300 19.4584 0.8275
60.9500 19.4451 0.8259
60.9700 19.4317 0.8267
60.9900 19.4184 0.8233
61.0100 19.4050 0.8271
61.0300 19.3917 0.8213
61.0500 19.3783 0.8260
61.0700 19.3650 0.8201
61.0900 19.3516 0.8245
61.1100 19.3383 0.8189
61.1300 19.3250 0.8237
61.1500 19.3117 0.8179
61.1700 19.2983 0.8212
61.1900 19.2850 0.8185
61.2100 19.2717 0.8188
61.2300 19.2583 0.8177
61.2500 19.2450 0.8182
61.2700 19.2317 0.8175
61.2900 19.2184 0.8153
61.3100 19.2051 0.8172
61.3300 19.1917 0.8131
61.3500 19.1784 0.8168
61.3700 19.1650 0.8120
61.3900 19.1517 0.8146
61.4100 19.1383 0.8105
61.4300 19.1250 0.8142
61.4500 19.1116 0.8099
61.4700 19.0983 0.8112
61.4900 19.0850 0.8105
61.5100 19.0716 0.8087
61.5300 19.0583 0.8094
61.5500 19.0450 0.8079
61.5700 19.0317 0.8088
61.5900 19.0184 0.8055
61.6100 19.0050 0.8093
61.6300 18.9917 0.8043
61.6500 18.9784 0.8070
61.6700 18.9651 0.8031
61.6900 18.9517 0.8056
61.7100 18.9384 0.8017
61.7300 18.9250 0.8060
61.7500 18.9117 0.8002
61.7700 18.8984 0.8033
61.7900 18.8850 0.8002
61.8100 18.8716 0.8019
61.8300 18.8583 0.7988
61.8500 18.8450 0.8009
61.8700 18.8316 0.7986
61.8900 18.8183 0.7988
61.9100 18.8050 0.7987
61.9300 18.7917 0.7974
61.9500 18.7783 0.7969
61.9700 18.7650 0.7962
61.9900 18.7517 0.7970
62.0100 18.7384 0.7934
62.0300 18.7251 0.7968
62.0500 18.7117 0.7918
62.0700 18.6984 0.7958
62.0900 18.6850 0.7912
62.1100 18.6717 0.7936
62.1300 18.6584 0.7897
62.1500 18.6450 0.7929
62.1700 18.6316 0.7899
62.1900 18.6183 0.7899
62.2100 18.6050 0.7901
62.2300 18.5917 0.7885
62.2500 18.5783 0.7887
62.2700 18.5650 0.7875
62.2900 18.5517 0.7881
62.3100 18.5383 0.7845
62.3300 18.5250 0.7882
62.3500 18.5116 0.7835
62.3700 18.4983 0.7866
62.3900 18.4850 0.7829
62.4100 18.4717 0.7854
62.4300 18.4583 0.7819
62.4500 18.4450 0.7833
62.4700 18.4317 0.7823
62.4900 18.4184 0.7800
62.5100 18.4050 0.7821
62.5300 18.3916 0.7793
62.5500 18.3783 0.7799
62.5700 18.3650 0.7780
62.5900 18.3517 0.7796
62.6100 18.3383 0.7758
62.6300 18.3250 0.7790
62.6500 18.3117 0.7750
62.6700 18.2983 0.7770
62.6900 18.2850 0.7749
62.7100 18.2716 0.7756
62.7300 18.2584 0.7737
62.7500 18.2451 0.7742
62.7700 18.2317 0.7734
62.7900 18.2184 0.7722
62.8100 18.2050 0.7726
62.8300 18.1917 0.7715
62.8500 18.1784 0.7704
62.8700 18.1650 0.7699
62.8900 18.1516 0.7707
62.9100 18.1383 0.7686
62.9300 18.1250 0.7702
62.9500 18.1117 0.7669
62.9700 18.0983 0.7688
62.9900 18.0850 0.7659
63.0100 18.0716 0.7688
63.0300 18.0584 0.7639
63.0500 18.0450 0.7677
63.0700 18.0317 0.7632
63.0900 18.0184 0.7650
63.1100 18.0051 0.7633
63.1300 17.9917 0.7643
63.1500 17.9784 0.7623
63.1700 17.9650 0.7621
63.1900 17.9517 0.7628
63.2100 17.9383 0.7594
63.2300 17.9250 0.7634
63.2500 17.9116 0.7585
63.2700 17.8983 0.7612
63.2900 17.8850 0.7570
63.3100 17.8717 0.7603
63.3300 17.8583 0.7557
63.3500 17.8450 0.7598
63.3700 17.8317 0.7555
63.3900 17.8184 0.7568
63.4100 17.8050 0.7551
63.4300 17.7917 0.7555
63.4500 17.7784 0.7550
63.4700 17.7651 0.7529
63.4900 17.7517 0.7553
63.5100 17.7384 0.7506
63.5300 17.7250 0.7546
63.5500 17.7117 0.7501
63.5700 17.6984 0.7526
63.5900 17.6850 0.7489
63.6100 17.6716 0.7522
63.6300 17.6583 0.7466
63.6500 17.6450 0.7508
63.6700 17.6316 0.7470
63.6900 17.6183 0.7486
63.7100 17.6049 0.7467
63.7300 17.5917 0.7477
63.7500 17.5784 0.7453
63.7700 17.5650 0.7457
63.7900 17.5517 0.7456
63.8100 17.5383 0.7436
63.8300 17.5250 0.7449
63.8500 17.5117 0.7429
63.8700 17.4984 0.7432
63.8900 17.4850 0.7419
63.9100 17.4717 0.7436
63.9300 17.4583 0.7393
63.9500 17.4450 0.7422
63.9700 17.4317 0.7391
63.9900 17.4183 0.7404
64.0100 17.4050 0.7379
64.0300 17.3917 0.7396
64.0500 17.3783 0.7369
64.0700 17.3650 0.7376
64.0900 17.3517 0.7379
64.1100 17.3383 0.7347
64.1300 17.3250 0.7375
64.1500 17.3117 0.7337
64.1700 17.2983 0.7365
64.1900 17.2850 0.7322
64.2100 17.2717 0.7364
64.2300 17.2584 0.7301
64.2500 17.2450 0.7350
64.2700 17.2317 0.7300
64.2900 17.2184 0.7329
64.3100 17.2050 0.7288
64.3300 17.1917 0.7317
64.3500 17.1783 0.7294
64.3700 17.1650 0.7281
64.3900 17.1516 0.7303
64.4100 17.1383 0.7256
64.4300 17.1249 0.7299
64.4500 17.1116 0.7250
64.4700 17.0983 0.7284
64.4900 17.0850 0.7234
64.5100 17.0717 0.7286
64.5300 17.0583 0.7220
64.5500 17.0451 0.7267
64.5700 17.0317 0.7217
64.5900 17.0184 0.7249
64.6100 17.0050 0.7209
64.6300 16.9917 0.7236
64.6500 16.9784 0.7198
64.6700 16.9650 0.7218
64.6900 16.9517 0.7206
64.7100 16.9383 0.7194
64.7300 16.9250 0.7200
64.7500 16.9116 0.7189
64.7700 16.8983 0.7188
64.7900 16.8849 0.7168
64.8100 16.8716 0.7187
64.8300 16.8583 0.7153
64.8500 16.8450 0.7179
64.8700 16.8317 0.7148
64.8900 16.8183 0.7163
64.9100 16.8051 0.7135
64.9300 16.7918 0.7160
64.9500 16.7784 0.7117
64.9700 16.7650 0.7150
64.9900 16.7517 0.7118
65.0100 16.7384 0.7118
65.0300 16.7250 0.7110
65.0500 16.7117 0.7110
65.0700 16.6983 0.7107
65.0900 16.6850 0.7085
65.1100 16.6717 0.7107
65.1300 16.6583 0.7063
65.1500 16.6450 0.7105
65.1700 16.6316 0.7062
65.1900 16.6183 0.7091
65.2100 16.6050 0.7040
65.2300 16.5917 0.7092
65.2500 16.5783 0.7030
65.2700 16.5650 0.7073
65.2900 16.5517 0.7027
65.3100 16.5384 0.7052
65.3300 16.5250 0.7020
65.3500 16.5117 0.7038
65.3700 16.4984 0.7018
65.3900 16.4850 0.7013
65.4100 16.4717 0.7021
65.4300 16.4583 0.6993
65.4500 16.4450 0.7010
65.4700 16.4317 0.6989
65.4900 16.4183 0.6992
65.5100 16.4050 0.6973
65.5300 16.3916 0.6999
65.5500 16.3783 0.6956
65.5700 16.3650 0.6979
65.5900 16.3517 0.6960
65.6100 16.3383 0.6963
65.6300 16.3250 0.6941
65.6500 16.3117 0.6955
65.6700 16.2984 0.6933
65.6900 16.2850 0.6940
65.7100 16.2717 0.6933
65.7300 16.2584 0.6917
65.7500 16.2451 0.6916
65.7700 16.2317 0.6918
65.7900 16.2183 0.6907
65.8100 16.2050 0.6896
65.8300 16.1917 0.6910
65.8500 16.1783 0.6882
65.8700 16.1649 0.6897
65.8900 16.1516 0.6883
65.9100 16.1383 0.6888
65.9300 16.1250 0.6861
65.9500 16.1116 0.6881
65.9700 16.0983 0.6853
65.9900 16.0850 0.6865
66.0100 16.0717 0.6853
66.0300 16.0584 0.6849
66.0500 16.0450 0.6847
66.0700 16.0317 0.6835
66.0900 16.0184 0.6839
66.1100 16.0050 0.6814
66.1300 15.9917 0.6836
66.1500 15.9783 0.6799
66.1700 15.9650 0.6825
66.1900 15.9517 0.6791
66.2100 15.9383 0.6819
66.2300 15.9249 0.6771
66.2500 15.9116 0.6814
66.2700 15.8983 0.6763
66.2900 15.8850 0.6792
66.3100 15.8716 0.6766
66.3300 15.8583 0.6775
66.3500 15.8450 0.6757
66.3700 15.8317 0.6760
66.3900 15.8184 0.6757
66.4100 15.8051 0.6738
66.4300 15.7917 0.6757
66.4500 15.7784 0.6725
66.4700 15.7651 0.6732
66.4900 15.7517 0.6718
66.5100 15.7383 0.6734
66.5300 15.7250 0.6698
66.5500 15.7116 0.6727
66.5700 15.6983 0.6685
66.5900 15.6849 0.6713
66.6100 15.6716 0.6677
66.6300 15.6583 0.6699
66.6500 15.6450 0.6669
66.6700 15.6317 0.6694
66.6900 15.6183 0.6669
66.7100 15.6050 0.6669
66.7300 15.5917 0.6663
66.7500 15.5784 0.6664
66.7700 15.5650 0.6649
66.7900 15.5517 0.6652
66.8100 15.5384 0.6652
66.8300 15.5250 0.6617
66.8500 15.5117 0.6651
66.8700 15.4983 0.6606
66.8900 15.4849 0.6638
66.9100 15.4716 0.6590
66.9300 15.4583 0.6624
66.9500 15.4449 0.6579
66.9700 15.4316 0.6617
66.9900 15.4183 0.6580
67.0100 15.4050 0.6588
67.0300 15.3917 0.6584
67.0500 15.3784 0.6574
67.0700 15.3651 0.6571
67.0900 15.3518 0.6561
67.1100 15.3384 0.6568
67.1300 15.3250 0.6536
67.1500 15.3116 0.6566
67.1700 15.2983 0.6520
67.1900 15.2850 0.6553
67.2100 15.2716 0.6511
67.2300 15.2583 0.6557
67.2500 15.2450 0.6489
67.2700 15.2316 0.6540
67.2900 15.2183 0.6498
67.3100 15.2049 0.6512
67.3300 15.1916 0.6495
67.3500 15.1783 0.6505
67.3700 15.1650 0.6486
67.3900 15.1517 0.6486
67.4100 15.1383 0.6491
67.4300 15.1250 0.6470
67.4500 15.1117 0.6480
67.4700 15.0984 0.6456
67.4900 15.0850 0.6466
67.5100 15.0717 0.6443
67.5300 15.0584 0.6467
67.5500 15.0450 0.6421
67.5700 15.0317 0.6452
67.5900 15.0183 0.6424
67.6100 15.0049 0.6428
67.6300 14.9916 0.6423
67.6500 14.9783 0.6415
67.6700 14.9649 0.6407
67.6900 14.9516 0.6404
67.7100 14.9383 0.6410
67.7300 14.9250 0.6384
67.7500 14.9117 0.6405
67.7700 14.8983 0.6372
67.7900 14.8850 0.6386
67.8100 14.8717 0.6366
67.8300 14.8584 0.6382
67.8500 14.8450 0.6346
67.8700 14.8317 0.6375
67.8900 14.8184 0.6335
67.9100 14.8051 0.6353
67.9300 14.7917 0.6332
67.9500 14.7783 0.6350
67.9700 14.7650 0.6314
67.9900 14.7516 0.6335
68.0100 14.7383 0.6326
68.0300 14.7249 0.6313
68.0500 14.7116 0.6318
68.0700 14.6983 0.6308
68.0900 14.6850 0.6298
68.1100 14.6717 0.6297
68.1300 14.6583 0.6302
68.1500 14.6450 0.6275
68.1700 14.6317 0.6294
68.1900 14.6184 0.6261
68.2100 14.6051 0.6282
68.2300 14.5917 0.6256
68.2500 14.5784 0.6277
68.2700 14.5650 0.6238
68.2900 14.5516 0.6254
68.3100 14.5383 0.6242
68.3300 14.5249 0.6237
68.3500 14.5116 0.6234
68.3700 14.4983 0.6227
68.3900 14.4849 0.6223
68.4100 14.4716 0.6209
68.4300 14.4583 0.6223
68.4500 14.4450 0.6191
68.4700 14.4317 0.6216
68.4900 14.4183 0.6182
68.5100 14.4050 0.6204
68.5300 14.3917 0.6168
68.5500 14.3784 0.6207
68.5700 14.3651 0.6153
68.5900 14.3517 0.6188
68.6100 14.3384 0.6157
68.6300 14.3250 0.6158
68.6500 14.3117 0.6150
68.6700 14.2983 0.6156
68.6900 14.2849 0.6138
68.7100 14.2716 0.6135
68.7300 14.2583 0.6143
68.7500 14.2449 0.6116
68.7700 14.2316 0.6130
68.7900 14.2183 0.6113
68.8100 14.2050 0.6121
68.8300 14.1917 0.6093
68.8500 14.1783 0.6125
68.8700 14.1650 0.6078
68.8900 14.1517 0.6100
68.9100 14.1384 0.6080
68.9300 14.1251 0.6085
68.9500 14.1117 0.6071
68.9700 14.0983 0.6074
68.9900 14.0850 0.6051
69.0100 14.0717 0.6061
69.0300 14.0583 0.6051
69.0500 14.0450 0.6047
69.0700 14.0317 0.6043
69.0900 14.0183 0.6033
69.1100 14.0050 0.6038
69.1300 13.9916 0.6005
69.1500 13.9783 0.6047
69.1700 13.9650 0.5987
69.1900 13.9517 0.6026
69.2100 13.9383 0.5989
69.2300 13.9250 0.6017
69.2500 13.9117 0.5974
69.2700 13.8984 0.6007
69.2900 13.8850 0.5973
69.3100 13.8717 0.5987
69.3300 13.8583 0.5972
69.3500 13.8450 0.5970
69.3700 13.8317 0.5970
69.3900 13.8183 0.5962
69.4100 13.8050 0.5963
69.4300 13.7916 0.5939
69.4500 13.7783 0.5965
69.4700 13.7650 0.5925
69.4900 13.7516 0.5949
69.5100 13.7383 0.5921
69.5300 13.7250 0.5930
69.5500 13.7116 0.5907
69.5700 13.6983 0.5923
69.5900 13.6850 0.5900
69.6100 13.6717 0.5895
69.6300 13.6584 0.5903
69.6500 13.6450 0.5883
69.6700 13.6317 0.5892
69.6900 13.6183 0.5881
69.7100 13.6050 0.5874
69.7300 13.5917 0.5862
69.7500 13.5783 0.5874
69.7700 13.5650 0.5844
69.7900 13.5517 0.5866
69.8100 13.5383 0.5840
69.8300 13.5250 0.5855
69.8500 13.5116 0.5827
69.8700 13.4983 0.5859
69.8900 13.4850 0.5808
69.9100 13.4717 0.5841
69.9300 13.4583 0.5808
69.9500 13.4450 0.5831
69.9700 13.4317 0.5788
69.9900 13.4184 0.5824
70.0100 13.4051 0.5777
70.0300 13.3917 0.5802
70.0500 13.3783 0.5781
70.0700 13.3650 0.5772
70.0900 13.3517 0.5775
70.1100 13.3383 0.5762
70.1300 13.3249 0.5777
70.1500 13.3116 0.5734
70.1700 13.2983 0.5778
70.1900 13.2850 0.5726
70.2100 13.2716 0.5761
70.2300 13.2583 0.5730
70.2500 13.2450 0.5740
70.2700 13.2317 0.5711
70.2900 13.2184 0.5735
70.3100 13.2051 0.5713
70.3300 13.1918 0.5711
70.3500 13.1784 0.5716
70.3700 13.1651 0.5682
70.3900 13.1517 0.5706
70.4100 13.1384 0.5680
70.4300 13.1250 0.5697
70.4500 13.1117 0.5657
70.4700 13.0983 0.5697
70.4900 13.0849 0.5653
70.5100 13.0716 0.5672
70.5300 13.0583 0.5643
70.5500 13.0450 0.5668
70.5700 13.0316 0.5630
70.5900 13.0183 0.5666
70.6100 13.0050 0.5622
70.6300 12.9917 0.5636
70.6500 12.9783 0.5623
70.6700 12.9650 0.5626
70.6900 12.9517 0.5608
70.7100 12.9384 0.5624
70.7300 12.9250 0.5600
70.7500 12.9117 0.5603
70.7700 12.8983 0.5597
70.7900 12.8850 0.5590
70.8100 12.8717 0.5584
70.8300 12.8583 0.5576
70.8500 12.8450 0.5589
70.8700 12.8316 0.5552
70.8900 12.8183 0.5579
70.9100 12.8050 0.5542
70.9300 12.7916 0.5569
70.9500 12.7783 0.5539
70.9700 12.7650 0.5556
70.9900 12.7517 0.5517
71.0100 12.7384 0.5550
71.0300 12.7250 0.5518
71.0500 12.7117 0.5525
71.0700 12.6984 0.5519
71.0900 12.6850 0.5509
71.1100 12.6716 0.5510
71.1300 12.6583 0.5486
71.1500 12.6450 0.5511
71.1700 12.6317 0.5468
71.1900 12.6183 0.5504
71.2100 12.6050 0.5462
71.2300 12.5917 0.5484
71.2500 12.5783 0.5460
71.2700 12.5650 0.5471
71.2900 12.5516 0.5448
71.3100 12.5383 0.5466
71.3300 12.5250 0.5442
71.3500 12.5117 0.5439
71.3700 12.4983 0.5443
71.3900 12.4850 0.5427
71.4100 12.4717 0.5435
71.4300 12.4584 0.5407
71.4500 12.4451 0.5428
71.4700 12.4317 0.5391
71.4900 12.4184 0.5423
71.5100 12.4050 0.5389
71.5300 12.3917 0.5401
71.5500 12.3784 0.5375
71.5700 12.3650 0.5398
71.5900 12.3516 0.5357
71.6100 12.3383 0.5393
71.6300 12.3250 0.5347
71.6500 12.3116 0.5382
71.6700 12.2983 0.5343
71.6900 12.2850 0.5365
71.7100 12.2717 0.5337
71.7300 12.2583 0.5349
71.7500 12.2450 0.5332
71.7700 12.2317 0.5323
71.7900 12.2184 0.5333
71.8100 12.2051 0.5314
71.8300 12.1917 0.5320
71.8500 12.1783 0.5303
71.8700 12.1650 0.5316
71.8900 12.1517 0.5275
71.9100 12.1383 0.5316
71.9300 12.1250 0.5263
71.9500 12.1116 0.5308
71.9700 12.0983 0.5255
71.9900 12.0849 0.5290
72.0100 12.0716 0.5247
72.0300 12.0583 0.5275
72.0500 12.0450 0.5254
72.0700 12.0317 0.5248
72.0900 12.0183 0.5256
72.1100 12.0050 0.5232
72.1300 11.9917 0.5249
72.1500 11.9784 0.5216
72.1700 11.9651 0.5248
72.1900 11.9517 0.5193
72.2100 11.9383 0.5236
72.2300 11.9250 0.5183
72.2500 11.9117 0.5219
72.2700 11.8983 0.5183
72.2900 11.8850 0.5208
72.3100 11.8716 0.5171
72.3300 11.8583 0.5187
72.3500 11.8450 0.5174
72.3700 11.8316 0.5164
72.3900 11.8183 0.5168
72.4100 11.8050 0.5155
72.4300 11.7917 0.5155
72.4500 11.7783 0.5141
72.4700 11.7650 0.5158
72.4900 11.7517 0.5119
72.5100 11.7384 0.5147
72.5300 11.7251 0.5111
72.5500 11.7117 0.5137
72.5700 11.6983 0.5103
72.5900 11.6851 0.5128
72.6100 11.6717 0.5078
72.6300 11.6583 0.5118
72.6500 11.6450 0.5083
72.6700 11.6317 0.5095
72.6900 11.6184 0.5075
72.7100 11.6050 0.5079
72.7300 11.5917 0.5063
72.7500 11.5783 0.5068
72.7700 11.5650 0.5068
72.7900 11.5517 0.5045
72.8100 11.5384 0.5061
72.8300 11.5250 0.5027
72.8500 11.5117 0.5050
72.8700 11.4984 0.5015
72.8900 11.4850 0.5048
72.9100 11.4717 0.5001
72.9300 11.4583 0.5030
72.9500 11.4450 0.5002
72.9700 11.4317 0.5011
72.9900 11.4184 0.4989
73.0100 11.4050 0.5000
73.0300 11.3917 0.4987
73.0500 11.3783 0.4975
73.0700 11.3650 0.4992
73.0900 11.3516 0.4951
73.1100 11.3383 0.4985
73.1300 11.3250 0.4945
73.1500 11.3117 0.4970
73.1700 11.2983 0.4933
73.1900 11.2850 0.4967
73.2100 11.2717 0.4920
73.2300 11.2584 0.4948
73.2500 11.2451 0.4918
73.2700 11.2317 0.4936
73.2900 11.2183 0.4909
73.3100 11.2050 0.4918
73.3300 11.1917 0.4903
73.3500 11.1784 0.4896
73.3700 11.1650 0.4907
73.3900 11.1517 0.4877
73.4100 11.1384 0.4897
73.4300 11.1250 0.4873
73.4500 11.1116 0.4878
73.4700 11.0983 0.4859
73.4900 11.0849 0.4876
73.5100 11.0716 0.4845
73.5300 11.0583 0.4865
73.5500 11.0450 0.4840
73.5700 11.0316 0.4863
73.5900 11.0184 0.4814
73.6100 11.0051 0.4855
73.6300 10.9917 0.4806
73.6500 10.9784 0.4840
73.6700 10.9650 0.4803
73.6900 10.9517 0.4815
73.7100 10.9384 0.4794
73.7300 10.9250 0.4809
73.7500 10.9116 0.4792
73.7700 10.8983 0.4786
73.7900 10.8850 0.4791
73.8100 10.8716 0.4767
73.8300 10.8583 0.4782
73.8500 10.8450 0.4751
73.8700 10.8317 0.4781
73.8900 10.8184 0.4729
73.9100 10.8050 0.4778
73.9300 10.7917 0.4723
73.9500 10.7784 0.4752
73.9700 10.7651 0.4720
73.9900 10.7517 0.4735
74.0100 10.7383 0.4722
74.0300 10.7250 0.4715
74.0500 10.7117 0.4717
74.0700 10.6984 0.4690
74.0900 10.6850 0.4715
74.1100 10.6716 0.4681
74.1300 10.6583 0.4706
74.1500 10.6450 0.4665
74.1700 10.6316 0.4694
74.1900 10.6183 0.4654
74.2100 10.6050 0.4695
74.2300 10.5917 0.4638
74.2500 10.5783 0.4670
74.2700 10.5650 0.4641
74.2900 10.5517 0.4656
74.3100 10.5384 0.4629
74.3300 10.5251 0.4644
74.3500 10.5117 0.4626
74.3700 10.4983 0.4624
74.3900 10.4850 0.4619
74.4100 10.4717 0.4608
74.4300 10.4583 0.4610
74.4500 10.4450 0.4596
74.4700 10.4316 0.4604
74.4900 10.4183 0.4581
74.5100 10.4050 0.4597
74.5300 10.3916 0.4559
74.5500 10.3783 0.4587
74.5700 10.3650 0.4556
74.5900 10.3517 0.4576
74.6100 10.3384 0.4541
74.6300 10.3250 0.4565
74.6500 10.3117 0.4536
74.6700 10.2984 0.4548
74.6900 10.2851 0.4527
74.7100 10.2717 0.4534
74.7300 10.2584 0.4519
74.7500 10.2450 0.4518
74.7700 10.2317 0.4519
74.7900 10.2183 0.4493
74.8100 10.2050 0.4517
74.8300 10.1916 0.4484
74.8500 10.1783 0.4506
74.8700 10.1650 0.4465
74.8900 10.1516 0.4500
74.9100 10.1383 0.4451
74.9300 10.1249 0.4496
74.9500 10.1116 0.4446
74.9700 10.0983 0.4471
74.9900 10.0850 0.4455
75.0100 10.0717 0.4452
75.0300 10.0584 0.4447
75.0500 10.0450 0.4438
75.0700 10.0317 0.4448
75.0900 10.0184 0.4411
75.1100 10.0051 0.4448
75.1300 9.9918 0.4403
75.1500 9.9784 0.4432
75.1700 9.9650 0.4393
75.1900 9.9516 0.4425
75.2100 9.9383 0.4372
75.2300 9.9250 0.4407
75.2500 9.9116 0.4368
75.2700 9.8982 0.4384
75.2900 9.8849 0.4366
75.3100 9.8716 0.4366
75.3300 9.8583 0.4352
75.3500 9.8450 0.4356
75.3700 9.8317 0.4349
75.3900 9.8184 0.4335
75.4100 9.8051 0.4342
75.4300 9.7917 0.4331
75.4500 9.7784 0.4328
75.4700 9.7650 0.4316
75.4900 9.7517 0.4330
75.5100 9.7384 0.4296
75.5300 9.7250 0.4321
75.5500 9.7116 0.4281
75.5700 9.6983 0.4305
75.5900 9.6850 0.4273
75.6100 9.6716 0.4298
75.6300 9.6583 0.4261
75.6500 9.6450 0.4285
75.6700 9.6317 0.4262
75.6900 9.6184 0.4256
75.7100 9.6050 0.4255
75.7300 9.5917 0.4256
75.7500 9.5784 0.4240
75.7700 9.5651 0.4226
75.7900 9.5518 0.4247
75.8100 9.5384 0.4203
75.8300 9.5251 0.4240
75.8500 9.5117 0.4192
75.8700 9.4984 0.4221
75.8900 9.4850 0.4184
75.9100 9.4716 0.4213
75.9300 9.4583 0.4175
75.9500 9.4450 0.4187
75.9700 9.4316 0.4178
75.9900 9.4183 0.4166
76.0100 9.4050 0.4172
76.0300 9.3917 0.4151
76.0500 9.3784 0.4169
76.0700 9.3650 0.4129
76.0900 9.3517 0.4162
76.1100 9.3384 0.4112
76.1300 9.3251 0.4152
76.1500 9.3118 0.4105
76.1700 9.2984 0.4138
76.1900 9.2850 0.4096
76.2100 9.2717 0.4121
76.2300 9.2583 0.4088
76.2500 9.2450 0.4104
76.2700 9.2316 0.4088
76.2900 9.2183 0.4087
76.3100 9.2050 0.4074
76.3300 9.1916 0.4083
76.3500 9.1783 0.4058
76.3700 9.1649 0.4076
76.3900 9.1516 0.4049
76.4100 9.1383 0.4053
76.4300 9.1250 0.4048
76.4500 9.1116 0.4042
76.4700 9.0983 0.4040
76.4900 9.0850 0.4018
76.5100 9.0717 0.4035
76.5300 9.0583 0.4005
76.5500 9.0450 0.4023
76.5700 9.0317 0.3998
76.5900 9.0184 0.4004
76.6100 9.0050 0.3990
76.6300 8.9916 0.3991
76.6500 8.9783 0.3981
76.6700 8.9650 0.3973
76.6900 8.9516 0.3978
76.7100 8.9383 0.3951
76.7300 8.9250 0.3980
76.7500 8.9117 0.3929
76.7700 8.8984 0.3972
76.7900 8.8850 0.3916
76.8100 8.8716 0.3965
76.8300 8.8583 0.3904
76.8500 8.8450 0.3947
76.8700 8.8317 0.3901
76.8900 8.8183 0.3927
76.9100 8.8050 0.3900
76.9300 8.7917 0.3906
76.9500 8.7784 0.3892
76.9700 8.7650 0.3885
76.9900 8.7516 0.3895
77.0100 8.7383 0.3867
77.0300 8.7250 0.3880
77.0500 8.7117 0.3860
77.0700 8.6983 0.3870
77.0900 8.6849 0.3840
77.1100 8.6717 0.3866
77.1300 8.6583 0.3824
77.1500 8.6450 0.3850
77.1700 8.6317 0.3823
77.1900 8.6184 0.3835
77.2100 8.6051 0.3812
77.2300 8.5917 0.3821
77.2500 8.5784 0.3806
77.2700 8.5650 0.3806
77.2900 8.5517 0.3804
77.3100 8.5384 0.3788
77.3300 8.5250 0.3787
77.3500 8.5116 0.3785
77.3700 8.4983 0.3779
77.3900 8.4850 0.3761
77.4100 8.4717 0.3771
77.4300 8.4583 0.3747
77.4500 8.4450 0.3766
77.4700 8.4316 0.3730
77.4900 8.4183 0.3756
77.5100 8.4050 0.3712
77.5300 8.3917 0.3747
77.5500 8.3784 0.3707
77.5700 8.3651 0.3726
77.5900 8.3518 0.3703
77.6100 8.3384 0.3706
77.6300 8.3250 0.3688
77.6500 8.3117 0.3694
77.6700 8.2983 0.3685
77.6900 8.2850 0.3674
77.7100 8.2716 0.3682
77.7300 8.2583 0.3655
77.7500 8.2450 0.3675
77.7700 8.2317 0.3640
77.7900 8.2183 0.3666
77.8100 8.2050 0.3624
77.8300 8.1917 0.3660
77.8500 8.1783 0.3612
77.8700 8.1650 0.3636
77.8900 8.1517 0.3613
77.9100 8.1383 0.3626
77.9300 8.1250 0.3603
77.9500 8.1117 0.3606
77.9700 8.0984 0.3595
77.9900 8.0850 0.3592
78.0100 8.0717 0.3588
78.0300 8.0584 0.3574
78.0500 8.0450 0.3574
78.0700 8.0316 0.3566
78.0900 8.0183 0.3572
78.1100 8.0050 0.3539
78.1300 7.9917 0.3568
78.1500 7.9783 0.3527
78.1700 7.9650 0.3551
78.1900 7.9517 0.3524
78.2100 7.9384 0.3541
78.2300 7.9250 0.3505
78.2500 7.9117 0.3531
78.2700 7.8983 0.3492
78.2900 7.8850 0.3520
78.3100 7.8717 0.3483
78.3300 7.8583 0.3505
78.3500 7.8450 0.3472
78.3700 7.8317 0.3488
78.3900 7.8184 0.3466
78.4100 7.8050 0.3468
78.4300 7.7917 0.3462
78.4500 7.7783 0.3454
78.4700 7.7650 0.3448
78.4900 7.7517 0.3442
78.5100 7.7383 0.3443
78.5300 7.7250 0.3426
78.5500 7.7117 0.3429
78.5700 7.6983 0.3417
78.5900 7.6850 0.3410
78.6100 7.6717 0.3406
78.6300 7.6583 0.3404
78.6500 7.6450 0.3393
78.6700 7.6317 0.3393
78.6900 7.6184 0.3384
78.7100 7.6050 0.3373
78.7300 7.5917 0.3376
78.7500 7.5784 0.3363
78.7700 7.5650 0.3363
78.7900 7.5516 0.3343
78.8100 7.5383 0.3357
78.8300 7.5250 0.3331
78.8500 7.5116 0.3340
78.8700 7.4983 0.3323
78.8900 7.4849 0.3323
78.9100 7.4716 0.3314
78.9300 7.4583 0.3316
78.9500 7.4450 0.3294
78.9700 7.4317 0.3305
78.9900 7.4183 0.3287
79.0100 7.4050 0.3291
79.0300 7.3917 0.3271
79.0500 7.3784 0.3278
79.0700 7.3650 0.3264
79.0900 7.3517 0.3257
79.1100 7.3384 0.3258
79.1300 7.3250 0.3238
79.1500 7.3116 0.3246
79.1700 7.2983 0.3230
79.1900 7.2849 0.3234
79.2100 7.2716 0.3207
79.2300 7.2583 0.3230
79.2500 7.2449 0.3187
79.2700 7.2316 0.3223
79.2900 7.2183 0.3182
79.3100 7.2050 0.3206
79.3300 7.1917 0.3177
79.3500 7.1783 0.3188
79.3700 7.1651 0.3171
79.3900 7.1517 0.3160
79.4100 7.1384 0.3167
79.4300 7.1250 0.3144
79.4500 7.1117 0.3159
79.4700 7.0984 0.3127
79.4900 7.0850 0.3152
79.5100 7.0717 0.3114
79.5300 7.0583 0.3148
79.5500 7.0450 0.3097
79.5700 7.0317 0.3137
79.5900 7.0183 0.3092
79.6100 7.0050 0.3117
79.6300 6.9916 0.3081
79.6500 6.9783 0.3109
79.6700 6.9650 0.3072
79.6900 6.9517 0.3084
79.7100 6.9383 0.3077
79.7300 6.9250 0.3061
79.7500 6.9117 0.3068
79.7700 6.8984 0.3048
79.7900 6.8850 0.3065
79.8100 6.8717 0.3028
79.8300 6.8584 0.3057
79.8500 6.8451 0.3007
79.8700 6.8317 0.3044
79.8900 6.8183 0.3009
79.9100 6.8050 0.3030
79.9300 6.7917 0.2989
79.9500 6.7784 0.3020
79.9700 6.7650 0.2977
79.9900 6.7516 0.3000
80.0100 6.7383 0.2984
80.0300 6.7250 0.2979
80.0500 6.7117 0.2973
80.0700 6.6983 0.2967
80.0900 6.6850 0.2969
80.1100 6.6717 0.2939
80.1300 6.6584 0.2973
80.1500 6.6450 0.2929
80.1700 6.6317 0.2950
80.1900 6.6184 0.2920
80.2100 6.6050 0.2934
80.2300 6.5917 0.2903
80.2500 6.5783 0.2930
80.2700 6.5650 0.2895
80.2900 6.5517 0.2911
80.3100 6.5383 0.2891
80.3300 6.5249 0.2889
80.3500 6.5116 0.2885
80.3700 6.4983 0.2883
80.3900 6.4850 0.2880
80.4100 6.4716 0.2847
80.4300 6.4583 0.2879
80.4500 6.4450 0.2840
80.4700 6.4317 0.2859
80.4900 6.4184 0.2838
80.5100 6.4050 0.2844
80.5300 6.3917 0.2823
80.5500 6.3784 0.2844
80.5700 6.3650 0.2811
80.5900 6.3517 0.2829
80.6100 6.3383 0.2810
80.6300 6.3250 0.2808
80.6500 6.3117 0.2795
80.6700 6.2983 0.2797
80.6900 6.2850 0.2802
80.7100 6.2716 0.2769
80.7300 6.2583 0.2798
80.7500 6.2450 0.2762
80.7700 6.2316 0.2785
80.7900 6.2183 0.2762
80.8100 6.2050 0.2786
80.8300 6.1918 0.2767
80.8500 6.1784 0.2803
80.8700 6.1651 0.2780
80.8900 6.1517 0.2787
80.9100 6.1384 0.2770
80.9300 6.1251 0.2761
80.9500 6.1117 0.2748
80.9700 6.0983 0.2741
80.9900 6.0850 0.2744
81.0100 6.0716 0.2710
81.0300 6.0583 0.2737
81.0500 6.0449 0.2692
81.0700 6.0316 0.2718
81.0900 6.0183 0.2678
81.1100 6.0050 0.2702
81.1300 5.9917 0.2666
81.1500 5.9784 0.2694
81.1700 5.9650 0.2652
81.1900 5.9518 0.2670
81.2100 5.9384 0.2645
81.2300 5.9250 0.2665
81.2500 5.9117 0.2629
81.2700 5.8984 0.2642
81.2900 5.8850 0.2620
81.3100 5.8717 0.2617
81.3300 5.8583 0.2618
81.3500 5.8449 0.2608
81.3700 5.8316 0.2604
81.3900 5.8183 0.2595
81.4100 5.8049 0.2593
81.4300 5.7916 0.2571
81.4500 5.7783 0.2587
81.4700 5.7650 0.2557
81.4900 5.7517 0.2570
81.5100 5.7383 0.2541
81.5300 5.7250 0.2560
81.5500 5.7118 0.2516
81.5700 5.6984 0.2549
81.5900 5.6850 0.2508
81.6100 5.6716 0.2527
81.6300 5.6583 0.2504
81.6500 5.6450 0.2504
81.6700 5.6316 0.2490
81.6900 5.6183 0.2489
81.7100 5.6049 0.2489
81.7300 5.5916 0.2460
81.7500 5.5783 0.2480
81.7700 5.5650 0.2449
81.7900 5.5516 0.2468
81.8100 5.5383 0.2432
81.8300 5.5250 0.2456
81.8500 5.5117 0.2418
81.8700 5.4983 0.2450
81.8900 5.4850 0.2403
81.9100 5.4717 0.2428
81.9300 5.4584 0.2392
81.9500 5.4451 0.2408
81.9700 5.4317 0.2381
81.9900 5.4183 0.2399
82.0100 5.4050 0.2380
82.0300 5.3917 0.2372
82.0500 5.3783 0.2370
82.0700 5.3650 0.2353
82.0900 5.3516 0.2355
82.1100 5.3383 0.2347
82.1300 5.3250 0.2351
82.1500 5.3116 0.2319
82.1700 5.2983 0.2341
82.1900 5.2850 0.2310
82.2100 5.2717 0.2326
82.2300 5.2583 0.2298
82.2500 5.2450 0.2316
82.2700 5.2317 0.2276
82.2900 5.2184 0.2305
82.3100 5.2050 0.2275
82.3300 5.1917 0.2289
82.3500 5.1784 0.2266
82.3700 5.1651 0.2274
82.3900 5.1517 0.2248
82.4100 5.1383 0.2265
82.4300 5.1250 0.2253
82.4500 5.1117 0.2230
82.4700 5.0983 0.2255
82.4900 5.0849 0.2215
82.5100 5.0716 0.2242
82.5300 5.0583 0.2206
82.5500 5.0450 0.2236
82.5700 5.0317 0.2180
82.5900 5.0183 0.2222
82.6100 5.0050 0.2180
82.6300 4.9917 0.2196
82.6500 4.9784 0.2174
82.6700 4.9651 0.2173
82.6900 4.9517 0.2162
82.7100 4.9384 0.2154
82.7300 4.9250 0.2149
82.7500 4.9117 0.2128
82.7700 4.8983 0.2147
82.7900 4.8849 0.2117
82.8100 4.8716 0.2126
82.8300 4.8583 0.2099
82.8500 4.8450 0.2119
82.8700 4.8316 0.2089
82.8900 4.8183 0.2104
82.9100 4.8050 0.2087
82.9300 4.7917 0.2077
82.9500 4.7783 0.2084
82.9700 4.7650 0.2068
82.9900 4.7517 0.2071
83.0100 4.7384 0.2052
83.0300 4.7251 0.2061
83.0500 4.7117 0.2036
83.0700 4.6984 0.2046
83.0900 4.6850 0.2023
83.1100 4.6717 0.2038
83.1300 4.6583 0.2002
83.1500 4.6449 0.2032
83.1700 4.6316 0.1979
83.1900 4.6183 0.2013
83.2100 4.6049 0.1969
83.2300 4.5916 0.1999
83.2500 4.5783 0.1958
83.2700 4.5650 0.1982
83.2900 4.5517 0.1941
83.3100 4.5383 0.1965
83.3300 4.5250 0.1941
83.3500 4.5117 0.1941
83.3700 4.4984 0.1933
83.3900 4.4851 0.1932
83.4100 4.4717 0.1931
83.4300 4.4584 0.1906
83.4500 4.4450 0.1933
83.4700 4.4317 0.1882
83.4900 4.4183 0.1922
83.5100 4.4050 0.1870
83.5300 4.3917 0.1903
83.5500 4.3783 0.1854
83.5700 4.3650 0.1887
83.5900 4.3516 0.1847
83.6100 4.3383 0.1861
83.6300 4.3250 0.1845
83.6500 4.3117 0.1835
83.6700 4.2983 0.1835
83.6900 4.2850 0.1823
83.7100 4.2717 0.1827
83.7300 4.2584 0.1798
83.7500 4.2450 0.1826
83.7700 4.2317 0.1772
83.7900 4.2183 0.1818
83.8100 4.2050 0.1763
83.8300 4.1917 0.1801
83.8500 4.1783 0.1750
83.8700 4.1650 0.1793
83.8900 4.1516 0.1741
83.9100 4.1383 0.1771
83.9300 4.1250 0.1750
83.9500 4.1116 0.1749
83.9700 4.0983 0.1734
83.9900 4.0850 0.1736
84.0100 4.0716 0.1723
84.0300 4.0583 0.1710
84.0500 4.0450 0.1721
84.0700 4.0317 0.1688
84.0900 4.0184 0.1708
84.1100 4.0050 0.1677
84.1300 3.9917 0.1690
84.1500 3.9783 0.1656
84.1700 3.9650 0.1686
84.1900 3.9517 0.1638
84.2100 3.9383 0.1663
84.2300 3.9250 0.1637
84.2500 3.9116 0.1654
84.2700 3.8983 0.1622
84.2900 3.8850 0.1638
84.3100 3.8716 0.1618
84.3300 3.8583 0.1619
84.3500 3.8450 0.1620
84.3700 3.8317 0.1597
84.3900 3.8183 0.1617
84.4100 3.8050 0.1588
84.4300 3.7917 0.1604
84.4500 3.7784 0.1562
84.4700 3.7650 0.1606
84.4900 3.7517 0.1550
84.5100 3.7384 0.1581
84.5300 3.7251 0.1536
84.5500 3.7117 0.1557
84.5700 3.6983 0.1530
84.5900 3.6849 0.1540
84.6100 3.6716 0.1526
84.6300 3.6583 0.1510
84.6500 3.6450 0.1522
84.6700 3.6316 0.1485
84.6900 3.6183 0.1511
84.7100 3.6050 0.1482
84.7300 3.5917 0.1505
84.7500 3.5784 0.1449
84.7700 3.5650 0.1500
84.7900 3.5517 0.1440
84.8100 3.5384 0.1479
84.8300 3.5251 0.1432
84.8500 3.5117 0.1457
84.8700 3.4983 0.1424
84.8900 3.4850 0.1441
84.9100 3.4717 0.1416
84.9300 3.4583 0.1412
84.9500 3.4449 0.1420
84.9700 3.4316 0.1393
84.9900 3.4183 0.1399
85.0100 3.4050 0.1379
85.0300 3.3916 0.1393
85.0500 3.3783 0.1350
85.0700 3.3650 0.1388
85.0900 3.3517 0.1339
85.1100 3.3384 0.1373
85.1300 3.3250 0.1323
85.1500 3.3117 0.1364
85.1700 3.2984 0.1299
85.1900 3.2851 0.1350
85.2100 3.2717 0.1295
85.2300 3.2583 0.1319
85.2500 3.2450 0.1294
85.2700 3.2317 0.1305
85.2900 3.2184 0.1270
85.3100 3.2050 0.1295
85.3300 3.1917 0.1269
85.3500 3.1783 0.1264
85.3700 3.1650 0.1265
85.3900 3.1516 0.1247
85.4100 3.1383 0.1254
85.4300 3.1250 0.1231
85.4500 3.1117 0.1252
85.4700 3.0984 0.1201
85.4900 3.0850 0.1245
85.5100 3.0717 0.1200
85.5300 3.0584 0.1212
85.5500 3.0450 0.1190
85.5700 3.0317 0.1202
85.5900 3.0183 0.1174
85.6100 3.0050 0.1186
85.6300 2.9917 0.1165
85.6500 2.9783 0.1163
85.6700 2.9650 0.1165
85.6900 2.9516 0.1147
85.7100 2.9383 0.1147
85.7300 2.9250 0.1126
85.7500 2.9117 0.1147
85.7700 2.8983 0.1093
85.7900 2.8850 0.1139
85.8100 2.8717 0.1088
85.8300 2.8583 0.1112
85.8500 2.8450 0.1076
85.8700 2.8317 0.1103
85.8900 2.8184 0.1062
85.9100 2.8051 0.1085
85.9300 2.7917 0.1052
85.9500 2.7784 0.1064
85.9700 2.7650 0.1045
85.9900 2.7517 0.1049
86.0100 2.7383 0.1029
86.0300 2.7250 0.1026
86.0500 2.7116 0.1022
86.0700 2.6983 0.1000
86.0900 2.6850 0.1018
86.1100 2.6716 0.0987
86.1300 2.6583 0.0994
86.1500 2.6450 0.0972
86.1700 2.6317 0.0982
86.1900 2.6183 0.0948
86.2100 2.6050 0.0979
86.2300 2.5917 0.0936
86.2500 2.5784 0.0961
86.2700 2.5651 0.0919
86.2900 2.5517 0.0946
86.3100 2.5383 0.0912
86.3300 2.5250 0.0928
86.3500 2.5117 0.0904
86.3700 2.4984 0.0891
86.3900 2.4850 0.0903
86.4100 2.4716 0.0872
86.4300 2.4583 0.0888
86.4500 2.4450 0.0853
86.4700 2.4316 0.0883
86.4900 2.4183 0.0829
86.5100 2.4050 0.0873
86.5300 2.3917 0.0820
86.5500 2.3783 0.0844
86.5700 2.3650 0.0809
86.5900 2.3517 0.0834
86.6100 2.3384 0.0792
86.6300 2.3251 0.0814
86.6500 2.3117 0.0787
86.6700 2.2984 0.0785
86.6900 2.2850 0.0783
86.7100 2.2717 0.0761
86.7300 2.2584 0.0774
86.7500 2.2450 0.0742
86.7700 2.2316 0.0772
86.7900 2.2183 0.0718
86.8100 2.2050 0.0757
86.8300 2.1916 0.0713
86.8500 2.1783 0.0734
86.8700 2.1650 0.0700
86.8900 2.1517 0.0724
86.9100 2.1383 0.0674
86.9300 2.1250 0.0706
86.9500 2.1117 0.0677
86.9700 2.0984 0.0680
86.9900 2.0850 0.0661
87.0100 2.0717 0.0665
87.0300 2.0583 0.0646
87.0500 2.0450 0.0645
87.0700 2.0317 0.0640
87.0900 2.0184 0.0616
87.1100 2.0050 0.0635
87.1300 1.9916 0.0603
87.1500 1.9783 0.0612
87.1700 1.9650 0.0584
87.1900 1.9517 0.0605
87.2100 1.9383 0.0559
87.2300 1.9250 0.0587
87.2500 1.9117 0.0549
87.2700 1.8983 0.0570
87.2900 1.8850 0.0539
87.3100 1.8716 0.0552
87.3300 1.8583 0.0526
87.3500 1.8450 0.0521
87.3700 1.8317 0.0528
87.3900 1.8183 0.0486
87.4100 1.8050 0.0508
87.4300 1.7917 0.0478
87.4500 1.7784 0.0491
87.4700 1.7650 0.0455
87.4900 1.7516 0.0487
87.5100 1.7383 0.0431
87.5300 1.7250 0.0455
87.5500 1.7116 0.0432
87.5700 1.6983 0.0440
87.5900 1.6850 0.0411
87.6100 1.6717 0.0413
87.6300 1.6583 0.0399
87.6500 1.6450 0.0384
87.6700 1.6317 0.0400
87.6900 1.6184 0.0358
87.7100 1.6051 0.0381
87.7300 1.5917 0.0348
87.7500 1.5783 0.0370
87.7700 1.5650 0.0329
87.7900 1.5517 0.0352
87.8100 1.5384 0.0308
87.8300 1.5250 0.0325
87.8500 1.5116 0.0301
87.8700 1.4983 0.0305
87.8900 1.4850 0.0275
87.9100 1.4716 0.0299
87.9300 1.4583 0.0259
87.9500 1.4449 0.0281
87.9700 1.4316 0.0255
87.9900 1.4183 0.0250
88.0100 1.4050 0.0236
88.0300 1.3917 0.0237
88.0500 1.3784 0.0224
88.0700 1.3651 0.0209
88.0900 1.3517 0.0215
88.1100 1.3384 0.0188
88.1300 1.3250 0.0196
88.1500 1.3117 0.0171
88.1700 1.2984 0.0175
88.1900 1.2850 0.0145
88.2100 1.2716 0.0170
88.2300 1.2583 0.0120
88.2500 1.2450 0.0139
88.2700 1.2316 0.0111
88.2900 1.2183 0.0118
88.3100 1.2049 0.0099
88.3300 1.1917 0.0092
88.3500 1.1784 0.0096
88.3700 1.1650 0.0062
88.3900 1.1517 0.0087
88.4100 1.1384 0.0039
88.4300 1.1251 0.0066
88.4500 1.1117 0.0027
88.4700 1.0984 0.0046
88.4900 1.0850 0.0007
88.5100 1.0717 0.0037
88.5300 1.0584 -0.0019
88.5500 1.0450 0.0007
88.5700 1.0316 -0.0019
88.5900 1.0183 -0.0016
88.6100 1.0050 -0.0035
88.6300 0.9916 -0.0043
88.6500 0.9783 -0.0044
88.6700 0.9650 -0.0067
88.6900 0.9517 -0.0055
88.7100 0.9384 -0.0085
88.7300 0.9250 -0.0077
88.7500 0.9117 -0.0091
88.7700 0.8984 -0.0065
88.7900 0.8851 -0.0045
88.8100 0.8718 -0.0010
88.8300 0.8584 -0.0044
88.8500 0.8450 -0.0042
88.8700 0.8317 -0.0066
88.8900 0.8183 -0.0070
88.9100 0.8050 -0.0099
88.9300 0.7916 -0.0081
88.9500 0.7783 -0.0118
88.9700 0.7650 -0.0115
88.9900 0.7517 -0.0134
89.0100 0.7383 -0.0137
89.0300 0.7250 -0.0152
89.0500 0.7117 -0.0159
89.0700 0.6984 -0.0171
89.0900 0.6850 -0.0192
89.1100 0.6717 -0.0177
89.1300 0.6584 -0.0215
89.1500 0.6451 -0.0204
89.1700 0.6317 -0.0233
89.1900 0.6184 -0.0213
89.2100 0.6050 -0.0266
89.2300 0.5917 -0.0227
89.2500 0.5783 -0.0280
89.2700 0.5650 -0.0264
89.2900 0.5516 -0.0273
89.3100 0.5383 -0.0282
89.3300 0.5250 -0.0286
89.3500 0.5116 -0.0293
89.3700 0.4983 -0.0288
89.3900 0.4849 -0.0322
89.4100 0.4716 -0.0290
89.4300 0.4583 -0.0331
89.4500 0.4450 -0.0309
89.4700 0.4317 -0.0339
89.4900 0.4184 -0.0319
89.5100 0.4051 -0.0355
89.5300 0.3917 -0.0322
89.5500 0.3784 -0.0351
89.5700 0.3650 -0.0335
89.5900 0.3517 -0.0349
89.6100 0.3384 -0.0337
89.6300 0.3250 -0.0350
89.6500 0.3116 -0.0330
89.6700 0.2983 -0.0341
89.6900 0.2850 -0.0353
89.7100 0.2716 -0.0333
89.7300 0.2582 -0.0341
89.7500 0.2449 -0.0340
89.7700 0.2316 -0.0335
89.7900 0.2183 -0.0337
89.8100 0.2050 -0.0354
89.8300 0.1917 -0.0322
89.8500 0.1784 -0.0356
89.8700 0.1651 -0.0325
89.8900 0.1517 -0.0359
89.9100 0.1384 -0.0322
89.9300 0.1250 -0.0368
89.9500 0.1117 -0.0322
89.9700 0.0983 -0.0361
89.9900 0.0850 -0.0329
90.0100 0.0716 -0.0349
90.0300 0.0583 -0.0333
90.0500 0.0450 -0.0349
90.0700 0.0316 -0.0343
90.0900 0.0183 -0.0336
90.1100 0.0050 -0.0345
90.1180 -0.0003 -0.0295
