Raw Data
Time Displacement Force
(s) (mm) (N)
0.0000 0.0000 -0.0057
0.0200 0.0001 -0.0066
0.0400 0.0018 0.0068
0.0600 0.0088 0.0046
0.0800 0.0202 -0.0011
0.1000 0.0325 0.0000
0.1200 0.0450 0.0055
0.1400 0.0584 0.0068
0.1600 0.0727 0.0086
0.1800 0.0870 0.0109
0.2000 0.1010 0.0123
0.2200 0.1146 0.0153
0.2400 0.1280 0.0181
0.2600 0.1413 0.0207
0.2800 0.1546 0.0219
0.3000 0.1679 0.0254
0.3200 0.1813 0.0262
0.3400 0.1947 0.0300
0.3600 0.2080 0.0306
0.3800 0.2213 0.0342
0.4000 0.2346 0.0342
0.4200 0.2480 0.0372
0.4400 0.2613 0.0389
0.4600 0.2746 0.0404
0.4800 0.2880 0.0442
0.5000 0.3014 0.0450
0.5200 0.3147 0.0475
0.5400 0.3281 0.0505
0.5600 0.3414 0.0522
0.5800 0.3547 0.0538
0.6000 0.3681 0.0573
0.6200 0.3814 0.0577
0.6400 0.3947 0.0607
0.6600 0.4080 0.0619
0.6800 0.4213 0.0656
0.7000 0.4347 0.0652
0.7200 0.4480 0.0701
0.7400 0.4613 0.0694
0.7600 0.4746 0.0737
0.7800 0.4880 0.0740
0.8000 0.5013 0.0774
0.8200 0.5147 0.0774
0.8400 0.5280 0.0815
0.8600 0.5414 0.0812
0.8800 0.5548 0.0849
0.9000 0.5681 0.0863
0.9200 0.5814 0.0886
0.9400 0.5947 0.0905
0.9600 0.6081 0.0913
0.9800 0.6214 0.0955
1.0000 0.6347 0.0941
1.0200 0.6480 0.1000
1.0400 0.6613 0.0981
1.0600 0.6746 0.1024
1.0800 0.6880 0.1030
1.1000 0.7013 0.1066
1.1200 0.7146 0.1061
1.1400 0.7280 0.1105
1.1600 0.7413 0.1101
1.1800 0.7547 0.1135
1.2000 0.7680 0.1141
1.2200 0.7813 0.1172
1.2400 0.7947 0.1183
1.2600 0.8081 0.1196
1.2800 0.8214 0.1232
1.3000 0.8347 0.1225
1.3200 0.8481 0.1274
1.3400 0.8614 0.1269
1.3600 0.8747 0.1302
1.3800 0.8880 0.1305
1.4000 0.9014 0.1338
1.4200 0.9148 0.1336
1.4400 0.9281 0.1372
1.4600 0.9413 0.1382
1.4800 0.9546 0.1410
1.5000 0.9679 0.1418
1.5200 0.9813 0.1443
1.5400 0.9946 0.1450
1.5600 1.0079 0.1474
1.5800 1.0213 0.1492
1.6000 1.0347 0.1496
1.6200 1.0481 0.1526
1.6400 1.0614 0.1541
1.6600 1.0747 0.1560
1.6800 1.0881 0.1577
1.7000 1.1015 0.1597
1.7200 1.1148 0.1605
1.7400 1.1280 0.1642
1.7600 1.1413 0.1636
1.7800 1.1547 0.1673
1.8000 1.1680 0.1670
1.8200 1.1813 0.1720
1.8400 1.1946 0.1697
1.8600 1.2079 0.1752
1.8800 1.2213 0.1741
1.9000 1.2347 0.1770
1.9200 1.2480 0.1778
1.9400 1.2614 0.1813
1.9600 1.2747 0.1815
1.9800 1.2881 0.1832
2.0000 1.3014 0.1855
2.0200 1.3147 0.1858
2.0400 1.3281 0.1892
2.0600 1.3414 0.1894
2.0800 1.3547 0.1926
2.1000 1.3680 0.1926
2.1200 1.3813 0.1965
2.1400 1.3947 0.1953
2.1600 1.4080 0.1987
2.1800 1.4213 0.1999
2.2000 1.4346 0.2011
2.2200 1.4480 0.2032
2.2400 1.4613 0.2042
2.2600 1.4747 0.2061
2.2800 1.4880 0.2070
2.3000 1.5013 0.2100
2.3200 1.5147 0.2104
2.3400 1.5281 0.2128
2.3600 1.5414 0.2136
2.3800 1.5547 0.2160
2.4000 1.5681 0.2161
2.4200 1.5814 0.2194
2.4400 1.5947 0.2190
2.4600 1.6080 0.2225
2.4800 1.6213 0.2224
2.5000 1.6346 0.2258
2.5200 1.6480 0.2251
2.5400 1.6613 0.2295
2.5600 1.6746 0.2276
2.5800 1.6879 0.2327
2.6000 1.7013 0.2313
2.6200 1.7147 0.2339
2.6400 1.7280 0.2343
2.6600 1.7414 0.2370
2.6800 1.7548 0.2376
2.7000 1.7681 0.2393
2.7200 1.7814 0.2416
2.7400 1.7947 0.2422
2.7600 1.8081 0.2444
2.7800 1.8214 0.2446
2.8000 1.8347 0.2486
2.8200 1.8480 0.2475
2.8400 1.8613 0.2520
2.8600 1.8747 0.2501
2.8800 1.8880 0.2535
2.9000 1.9013 0.2544
2.9200 1.9146 0.2564
2.9400 1.9280 0.2579
2.9600 1.9414 0.2590
2.9800 1.9547 0.2604
3.0000 1.9680 0.2616
3.0200 1.9813 0.2640
3.0400 1.9947 0.2640
3.0600 2.0081 0.2668
3.0800 2.0214 0.2666
3.1000 2.0347 0.2701
3.1200 2.0480 0.2690
3.1400 2.0614 0.2738
3.1600 2.0748 0.2720
3.1800 2.0880 0.2755
3.2000 2.1013 0.2756
3.2200 2.1147 0.2775
3.2400 2.1281 0.2776
3.2600 2.1414 0.2807
3.2800 2.1547 0.2807
3.3000 2.1680 0.2839
3.3200 2.1813 0.2834
3.3400 2.1947 0.2868
3.3600 2.2080 0.2856
3.3800 2.2213 0.2899
3.4000 2.2347 0.2888
3.4200 2.2481 0.2914
3.4400 2.2614 0.2929
3.4600 2.2747 0.2941
3.4800 2.2880 0.2948
3.5000 2.3014 0.2973
3.5200 2.3147 0.2986
3.5400 2.3280 0.2981
3.5600 2.3413 0.3021
3.5800 2.3547 0.3007
3.6000 2.3680 0.3044
3.6200 2.3813 0.3033
3.6400 2.3946 0.3081
3.6600 2.4079 0.3056
3.6800 2.4213 0.3111
3.7000 2.4346 0.3080
3.7200 2.4480 0.3120
3.7400 2.4613 0.3124
3.7600 2.4747 0.3142
3.7800 2.4881 0.3142
3.8000 2.5015 0.3164
3.8200 2.5148 0.3176
3.8400 2.5281 0.3178
3.8600 2.5414 0.3206
3.8800 2.5547 0.3205
3.9000 2.5680 0.3225
3.9200 2.5813 0.3225
3.9400 2.5947 0.3256
3.9600 2.6080 0.3248
3.9800 2.6213 0.3282
4.0000 2.6346 0.3285
4.0200 2.6480 0.3305
4.0400 2.6613 0.3317
4.0600 2.6747 0.3331
4.0800 2.6880 0.3336
4.1000 2.7014 0.3359
4.1200 2.7147 0.3364
4.1400 2.7281 0.3383
4.1600 2.7414 0.3398
4.1800 2.7547 0.3402
4.2000 2.7680 0.3420
4.2200 2.7814 0.3421
4.2400 2.7947 0.3455
4.2600 2.8080 0.3436
4.2800 2.8213 0.3493
4.3000 2.8347 0.3470
4.3200 2.8480 0.3510
4.3400 2.8613 0.3493
4.3600 2.8746 0.3537
4.3800 2.8880 0.3518
4.4000 2.9013 0.3563
4.4200 2.9147 0.3556
4.4400 2.9280 0.3575
4.4600 2.9414 0.3587
4.4800 2.9547 0.3600
4.5000 2.9681 0.3605
4.5200 2.9814 0.3614
4.5400 2.9947 0.3634
4.5600 3.0080 0.3624
4.5800 3.0214 0.3670
4.6000 3.0348 0.3651
4.6200 3.0480 0.3695
4.6400 3.0614 0.3678
4.6600 3.0747 0.3717
4.6800 3.0880 0.3696
4.7000 3.1013 0.3744
4.7200 3.1146 0.3739
4.7400 3.1280 0.3757
4.7600 3.1414 0.3772
4.7800 3.1547 0.3777
4.8000 3.1680 0.3798
4.8200 3.1814 0.3797
4.8400 3.1947 0.3832
4.8600 3.2081 0.3807
4.8800 3.2214 0.3858
4.9000 3.2347 0.3843
4.9200 3.2480 0.3882
4.9400 3.2613 0.3862
4.9600 3.2747 0.3913
4.9800 3.2880 0.3882
5.0000 3.3013 0.3941
5.0200 3.3147 0.3916
5.0400 3.3280 0.3946
5.0600 3.3414 0.3945
5.0800 3.3547 0.3973
5.1000 3.3680 0.3972
5.1200 3.3813 0.3993
5.1400 3.3947 0.4002
5.1600 3.4080 0.4006
5.1800 3.4213 0.4035
5.2000 3.4347 0.4033
5.2200 3.4481 0.4053
5.2400 3.4614 0.4046
5.2600 3.4747 0.4090
5.2800 3.4880 0.4058
5.3000 3.5014 0.4123
5.3200 3.5148 0.4089
5.3400 3.5281 0.4136
5.3600 3.5414 0.4113
5.3800 3.5547 0.4160
5.4000 3.5680 0.4124
5.4200 3.5814 0.4166
5.4400 3.5947 0.4159
5.4600 3.6080 0.4169
5.4800 3.6213 0.4179
5.5000 3.6346 0.4196
5.5200 3.6479 0.4210
5.5400 3.6613 0.4222
5.5600 3.6747 0.4247
5.5800 3.6881 0.4221
5.6000 3.7014 0.4276
5.6200 3.7147 0.4259
5.6400 3.7281 0.4295
5.6600 3.7414 0.4276
5.6800 3.7548 0.4310
5.7000 3.7681 0.4297
5.7200 3.7813 0.4329
5.7400 3.7947 0.4326
5.7600 3.8080 0.4333
5.7800 3.8213 0.4346
5.8000 3.8346 0.4369
5.8200 3.8479 0.4371
5.8400 3.8613 0.4394
5.8600 3.8746 0.4403
5.8800 3.8880 0.4403
5.9000 3.9013 0.4432
5.9200 3.9147 0.4432
5.9400 3.9281 0.4447
5.9600 3.9414 0.4450
5.9800 3.9547 0.4485
6.0000 3.9681 0.4470
6.0200 3.9814 0.4499
6.0400 3.9948 0.4500
6.0600 4.0080 0.4523
6.0800 4.0213 0.4517
6.1000 4.0346 0.4553
6.1200 4.0480 0.4534
6.1400 4.0613 0.4575
6.1600 4.0746 0.4563
6.1800 4.0880 0.4587
6.2000 4.1013 0.4594
6.2200 4.1147 0.4609
6.2400 4.1280 0.4618
6.2600 4.1414 0.4620
6.2800 4.1547 0.4647
6.3000 4.1681 0.4631
6.3200 4.1814 0.4661
6.3400 4.1947 0.4664
6.3600 4.2080 0.4684
6.3800 4.2214 0.4684
6.4000 4.2347 0.4713
6.4200 4.2480 0.4699
6.4400 4.2614 0.4736
6.4600 4.2747 0.4728
6.4800 4.2881 0.4730
6.5000 4.3014 0.4735
6.5200 4.3147 0.4757
6.5400 4.3280 0.4764
6.5600 4.3413 0.4777
6.5800 4.3547 0.4799
6.6000 4.3680 0.4793
6.6200 4.3813 0.4814
6.6400 4.3946 0.4825
6.6600 4.4080 0.4825
6.6800 4.4214 0.4830
6.7000 4.4347 0.4852
6.7200 4.4481 0.4852
6.7400 4.4614 0.4870
6.7600 4.4748 0.4876
6.7800 4.4881 0.4892
6.8000 4.5014 0.4892
6.8200 4.5147 0.4914
6.8400 4.5280 0.4916
6.8600 4.5414 0.4933
6.8800 4.5547 0.4937
6.9000 4.5680 0.4959
6.9200 4.5813 0.4956
6.9400 4.5947 0.4976
6.9600 4.6080 0.4968
6.9800 4.6213 0.4999
7.0000 4.6347 0.5007
7.0200 4.6481 0.5009
7.0400 4.6614 0.5023
7.0600 4.6747 0.5034
7.0800 4.6880 0.5051
7.1000 4.7014 0.5049
7.1200 4.7148 0.5076
7.1400 4.7281 0.5067
7.1600 4.7414 0.5093
7.1800 4.7547 0.5090
7.2000 4.7681 0.5109
7.2200 4.7814 0.5105
7.2400 4.7947 0.5135
7.2600 4.8080 0.5131
7.2800 4.8213 0.5148
7.3000 4.8347 0.5160
7.3200 4.8480 0.5166
7.3400 4.8613 0.5175
7.3600 4.8746 0.5185
7.3800 4.8880 0.5207
7.4000 4.9014 0.5196
7.4200 4.9147 0.5239
7.4400 4.9280 0.5209
7.4600 4.9414 0.5244
7.4800 4.9548 0.5219
7.5000 4.9681 0.5256
7.5200 4.9814 0.5234
7.5400 4.9947 0.5281
7.5600 5.0080 0.5247
7.5800 5.0214 0.5290
7.6000 5.0347 0.5281
7.6200 5.0480 0.5318
7.6400 5.0613 0.5300
7.6600 5.0747 0.5347
7.6800 5.0880 0.5317
7.7000 5.1013 0.5359
7.7200 5.1147 0.5348
7.7400 5.1281 0.5374
7.7600 5.1415 0.5370
7.7800 5.1548 0.5390
7.8000 5.1680 0.5389
7.8200 5.1814 0.5387
7.8400 5.1947 0.5415
7.8600 5.2081 0.5397
7.8800 5.2213 0.5421
7.9000 5.2346 0.5421
7.9200 5.2480 0.5450
7.9400 5.2613 0.5432
7.9600 5.2747 0.5479
7.9800 5.2880 0.5459
8.0000 5.3013 0.5490
8.0200 5.3147 0.5489
8.0400 5.3280 0.5504
8.0600 5.3413 0.5517
8.0800 5.3547 0.5519
8.1000 5.3681 0.5541
8.1200 5.3814 0.5529
8.1400 5.3947 0.5570
8.1600 5.4081 0.5550
8.1800 5.4214 0.5579
8.2000 5.4347 0.5572
8.2200 5.4481 0.5601
8.2400 5.4613 0.5584
8.2600 5.4746 0.5626
8.2800 5.4880 0.5603
8.3000 5.5013 0.5638
8.3200 5.5146 0.5623
8.3400 5.5279 0.5661
8.3600 5.5413 0.5636
8.3800 5.5547 0.5673
8.4000 5.5680 0.5667
8.4200 5.5813 0.5678
8.4400 5.5947 0.5692
8.4600 5.6080 0.5700
8.4800 5.6214 0.5702
8.5000 5.6347 0.5722
8.5200 5.6480 0.5740
8.5400 5.6614 0.5725
8.5600 5.6747 0.5765
8.5800 5.6881 0.5745
8.6000 5.7014 0.5777
8.6200 5.7147 0.5762
8.6400 5.7281 0.5797
8.6600 5.7414 0.5756
8.6800 5.7547 0.5799
8.7000 5.7680 0.5796
8.7200 5.7813 0.5814
8.7400 5.7946 0.5823
8.7600 5.8080 0.5838
8.7800 5.8213 0.5834
8.8000 5.8346 0.5854
8.8200 5.8480 0.5860
8.8400 5.8614 0.5860
8.8600 5.8748 0.5880
8.8800 5.8881 0.5872
8.9000 5.9014 0.5893
8.9200 5.9148 0.5886
8.9400 5.9281 0.5924
8.9600 5.9414 0.5898
8.9800 5.9547 0.5941
9.0000 5.9680 0.5927
9.0200 5.9814 0.5940
9.0400 5.9947 0.5950
9.0600 6.0079 0.5957
9.0800 6.0213 0.5956
9.1000 6.0346 0.5960
9.1200 6.0480 0.5990
9.1400 6.0613 0.5976
9.1600 6.0747 0.6016
9.1800 6.0881 0.5992
9.2000 6.1014 0.6033
9.2200 6.1147 0.6016
9.2400 6.1281 0.6056
9.2600 6.1414 0.6031
9.2800 6.1548 0.6072
9.3000 6.1681 0.6058
9.3200 6.1814 0.6082
9.3400 6.1947 0.6084
9.3600 6.2080 0.6110
9.3800 6.2214 0.6097
9.4000 6.2347 0.6120
9.4200 6.2479 0.6122
9.4400 6.2613 0.6127
9.4600 6.2746 0.6147
9.4800 6.2880 0.6147
9.5000 6.3013 0.6160
9.5200 6.3146 0.6163
9.5400 6.3280 0.6191
9.5600 6.3414 0.6168
9.5800 6.3548 0.6211
9.6000 6.3681 0.6193
9.6200 6.3814 0.6225
9.6400 6.3948 0.6209
9.6600 6.4081 0.6240
9.6800 6.4214 0.6233
9.7000 6.4347 0.6253
9.7200 6.4480 0.6253
9.7400 6.4613 0.6261
9.7600 6.4746 0.6276
9.7800 6.4879 0.6282
9.8000 6.5012 0.6283
9.8200 6.5146 0.6279
9.8400 6.5280 0.6287
9.8600 6.5413 0.6274
9.8800 6.5547 0.6319
9.9000 6.5681 0.6291
9.9200 6.5814 0.6322
9.9400 6.5948 0.6301
9.9600 6.6081 0.6351
9.9800 6.6214 0.6317
10.0000 6.6348 0.6373
10.0200 6.6481 0.6349
10.0400 6.6614 0.6378
10.0600 6.6747 0.6374
10.0800 6.6880 0.6400
10.1000 6.7014 0.6386
10.1200 6.7147 0.6415
10.1400 6.7280 0.6421
10.1600 6.7413 0.6420
10.1800 6.7547 0.6438
10.2000 6.7680 0.6428
10.2200 6.7813 0.6451
10.2400 6.7947 0.6438
10.2600 6.8080 0.6449
10.2800 6.8214 0.6381
10.3000 6.8347 0.6402
10.3200 6.8480 0.6410
10.3400 6.8613 0.6427
10.3600 6.8747 0.6442
10.3800 6.8881 0.6461
10.4000 6.9014 0.6467
10.4200 6.9147 0.6483
10.4400 6.9280 0.6493
10.4600 6.9414 0.6503
10.4800 6.9547 0.6510
10.5000 6.9680 0.6530
10.5200 6.9813 0.6530
10.5400 6.9946 0.6540
10.5600 7.0080 0.6566
10.5800 7.0213 0.6538
10.6000 7.0346 0.6571
10.6200 7.0480 0.6561
10.6400 7.0614 0.6582
10.6600 7.0747 0.6578
10.6800 7.0880 0.6614
10.7000 7.1014 0.6597
10.7200 7.1147 0.6625
10.7400 7.1281 0.6616
10.7600 7.1414 0.6649
10.7800 7.1547 0.6637
10.8000 7.1680 0.6669
10.8200 7.1814 0.6657
10.8400 7.1947 0.6668
10.8600 7.2080 0.6682
10.8800 7.2213 0.6675
10.9000 7.2346 0.6687
10.9200 7.2479 0.6689
10.9400 7.2613 0.6697
10.9600 7.2746 0.6708
10.9800 7.2880 0.6721
11.0000 7.3014 0.6721
11.0200 7.3148 0.6726
11.0400 7.3281 0.6738
11.0600 7.3414 0.6738
11.0800 7.3548 0.6751
11.1000 7.3681 0.6763
11.1200 7.3814 0.6768
11.1400 7.3947 0.6774
11.1600 7.4080 0.6797
11.1800 7.4213 0.6786
11.2000 7.4347 0.6793
11.2200 7.4480 0.6790
11.2400 7.4613 0.6803
11.2600 7.4747 0.6811
11.2800 7.4880 0.6827
11.3000 7.5014 0.6835
11.3200 7.5147 0.6841
11.3400 7.5281 0.6859
11.3600 7.5414 0.6868
11.3800 7.5548 0.6858
11.4000 7.5681 0.6896
11.4200 7.5814 0.6866
11.4400 7.5947 0.6899
11.4600 7.6081 0.6877
11.4800 7.6214 0.6916
11.5000 7.6347 0.6895
11.5200 7.6480 0.6940
11.5400 7.6614 0.6918
11.5600 7.6747 0.6948
11.5800 7.6880 0.6949
11.6000 7.7013 0.6957
11.6200 7.7146 0.6968
11.6400 7.7280 0.6966
11.6600 7.7413 0.6990
11.6800 7.7547 0.6977
11.7000 7.7680 0.7018
11.7200 7.7814 0.6993
11.7400 7.7947 0.7021
11.7600 7.8080 0.7016
11.7800 7.8214 0.7041
11.8000 7.8347 0.7027
11.8200 7.8481 0.7059
11.8400 7.8614 0.7046
11.8600 7.8747 0.7062
11.8800 7.8880 0.7074
11.9000 7.9013 0.7078
11.9200 7.9147 0.7080
11.9400 7.9280 0.7102
11.9600 7.9413 0.7100
11.9800 7.9546 0.7104
12.0000 7.9680 0.7110
12.0200 7.9814 0.7114
12.0400 7.9947 0.7127
12.0600 8.0080 0.7134
12.0800 8.0214 0.7154
12.1000 8.0348 0.7139
12.1200 8.0480 0.7175
12.1400 8.0613 0.7159
12.1600 8.0747 0.7187
12.1800 8.0881 0.7182
12.2000 8.1014 0.7205
12.2200 8.1147 0.7189
12.2400 8.1280 0.7228
12.2600 8.1414 0.7212
12.2800 8.1547 0.7227
12.3000 8.1680 0.7228
12.3200 8.1813 0.7231
12.3400 8.1946 0.7233
12.3600 8.2080 0.7242
12.3800 8.2213 0.7261
12.4000 8.2347 0.7245
12.4200 8.2480 0.7297
12.4400 8.2614 0.7259
12.4600 8.2747 0.7300
12.4800 8.2881 0.7281
12.5000 8.3014 0.7323
12.5200 8.3147 0.7296
12.5400 8.3281 0.7336
12.5600 8.3414 0.7319
12.5800 8.3547 0.7339
12.6000 8.3680 0.7332
12.6200 8.3814 0.7356
12.6400 8.3947 0.7338
12.6600 8.4080 0.7365
12.6800 8.4213 0.7368
12.7000 8.4346 0.7368
12.7200 8.4480 0.7391
12.7400 8.4613 0.7386
12.7600 8.4746 0.7396
12.7800 8.4880 0.7409
12.8000 8.5014 0.7412
12.8200 8.5147 0.7415
12.8400 8.5280 0.7432
12.8600 8.5414 0.7441
12.8800 8.5547 0.7442
12.9000 8.5681 0.7453
12.9200 8.5814 0.7465
12.9400 8.5947 0.7460
12.9600 8.6080 0.7487
12.9800 8.6214 0.7486
13.0000 8.6347 0.7483
13.0200 8.6480 0.7494
13.0400 8.6613 0.7494
13.0600 8.6746 0.7509
13.0800 8.6880 0.7512
13.1000 8.7013 0.7532
13.1200 8.7146 0.7513
13.1400 8.7280 0.7558
13.1600 8.7414 0.7534
13.1800 8.7548 0.7570
13.2000 8.7681 0.7542
13.2200 8.7814 0.7601
13.2400 8.7947 0.7551
13.2600 8.8081 0.7613
13.2800 8.8214 0.7576
13.3000 8.8347 0.7613
13.3200 8.8480 0.7601
13.3400 8.8613 0.7626
13.3600 8.8747 0.7613
13.3800 8.8880 0.7629
13.4000 8.9013 0.7641
13.4200 8.9146 0.7617
13.4400 8.9280 0.7647
13.4600 8.9414 0.7619
13.4800 8.9547 0.7653
13.5000 8.9680 0.7641
13.5200 8.9814 0.7680
13.5400 8.9947 0.7651
13.5600 9.0080 0.7699
13.5800 9.0213 0.7680
13.6000 9.0347 0.7703
13.6200 9.0480 0.7701
13.6400 9.0614 0.7721
13.6600 9.0747 0.7722
13.6800 9.0880 0.7734
13.7000 9.1014 0.7747
13.7200 9.1147 0.7736
13.7400 9.1280 0.7758
13.7600 9.1413 0.7762
13.7800 9.1546 0.7767
13.8000 9.1680 0.7764
13.8200 9.1813 0.7789
13.8400 9.1946 0.7768
13.8600 9.2080 0.7805
13.8800 9.2213 0.7787
13.9000 9.2347 0.7819
13.9200 9.2481 0.7795
13.9400 9.2614 0.7838
13.9600 9.2747 0.7801
13.9800 9.2881 0.7838
14.0000 9.3014 0.7813
14.0200 9.3147 0.7845
14.0400 9.3280 0.7847
14.0600 9.3414 0.7860
14.0800 9.3547 0.7865
14.1000 9.3680 0.7870
14.1200 9.3813 0.7895
14.1400 9.3946 0.7868
14.1600 9.4080 0.7913
14.1800 9.4213 0.7879
14.2000 9.4346 0.7927
14.2200 9.4480 0.7889
14.2400 9.4614 0.7948
14.2600 9.4747 0.7907
14.2800 9.4881 0.7951
14.3000 9.5014 0.7938
14.3200 9.5147 0.7954
14.3400 9.5281 0.7960
14.3600 9.5414 0.7970
14.3800 9.5547 0.7970
14.4000 9.5680 0.7966
14.4200 9.5814 0.7988
14.4400 9.5947 0.7966
14.4600 9.6080 0.8005
14.4800 9.6213 0.7989
14.5000 9.6346 0.8019
14.5200 9.6480 0.8001
14.5400 9.6613 0.8037
14.5600 9.6746 0.8014
14.5800 9.6879 0.8050
14.6000 9.7013 0.8040
14.6200 9.7147 0.8057
14.6400 9.7280 0.8056
14.6600 9.7414 0.8075
14.6800 9.7547 0.8072
14.7000 9.7681 0.8085
14.7200 9.7815 0.8093
14.7400 9.7948 0.8091
14.7600 9.8080 0.8109
14.7800 9.8214 0.8103
14.8000 9.8347 0.8119
14.8200 9.8480 0.8109
14.8400 9.8613 0.8147
14.8600 9.8746 0.8117
14.8800 9.8880 0.8167
14.9000 9.9013 0.8138
14.9200 9.9146 0.8173
14.9400 9.9280 0.8149
14.9600 9.9414 0.8196
14.9800 9.9548 0.8157
15.0000 9.9681 0.8192
15.0200 9.9814 0.8182
15.0400 9.9947 0.8199
15.0600 10.0081 0.8197
15.0800 10.0214 0.8214
15.1000 10.0347 0.8223
15.1200 10.0480 0.8216
15.1400 10.0613 0.8255
15.1600 10.0746 0.8217
15.1800 10.0880 0.8268
15.2000 10.1013 0.8237
15.2200 10.1146 0.8280
15.2400 10.1280 0.8241
15.2600 10.1413 0.8298
15.2800 10.1547 0.8265
15.3000 10.1680 0.8296
15.3200 10.1814 0.8301
15.3400 10.1947 0.8298
15.3600 10.2081 0.8313
15.3800 10.2214 0.8316
15.4000 10.2347 0.8333
15.4200 10.2481 0.8316
15.4400 10.2614 0.8340
15.4600 10.2747 0.8308
15.4800 10.2880 0.8348
15.5000 10.3013 0.8329
15.5200 10.3147 0.8366
15.5400 10.3280 0.8336
15.5600 10.3413 0.8387
15.5800 10.3546 0.8362
15.6000 10.3680 0.8390
15.6200 10.3813 0.8384
15.6400 10.3947 0.8406
15.6600 10.4080 0.8391
15.6800 10.4213 0.8436
15.7000 10.4347 0.8399
15.7200 10.4481 0.8445
15.7400 10.4614 0.8423
15.7600 10.4747 0.8457
15.7800 10.4880 0.8437
15.8000 10.5014 0.8465
15.8200 10.5147 0.8461
15.8400 10.5281 0.8461
15.8600 10.5414 0.8488
15.8800 10.5548 0.8470
15.9000 10.5681 0.8498
15.9200 10.5813 0.8486
15.9400 10.5946 0.8520
15.9600 10.6079 0.8485
15.9800 10.6213 0.8533
16.0000 10.6346 0.8498
16.0200 10.6480 0.8535
16.0400 10.6613 0.8529
16.0600 10.6747 0.8542
16.0800 10.6881 0.8537
16.1000 10.7014 0.8555
16.1200 10.7147 0.8567
16.1400 10.7281 0.8561
16.1600 10.7415 0.8592
16.1800 10.7548 0.8569
16.2000 10.7680 0.8596
16.2200 10.7813 0.8592
16.2400 10.7947 0.8611
16.2600 10.8080 0.8598
16.2800 10.8213 0.8620
16.3000 10.8346 0.8597
16.3200 10.8479 0.8607
16.3400 10.8613 0.8598
16.3600 10.8746 0.8614
16.3800 10.8880 0.8612
16.4000 10.9013 0.8637
16.4200 10.9147 0.8632
16.4400 10.9281 0.8648
16.4600 10.9414 0.8654
16.4800 10.9547 0.8668
16.5000 10.9681 0.8662
16.5200 10.9815 0.8686
16.5400 10.9948 0.8687
16.5600 11.0080 0.8686
16.5800 11.0213 0.8696
16.6000 11.0347 0.8687
16.6200 11.0480 0.8691
16.6400 11.0613 0.8701
16.6600 11.0746 0.8723
16.6800 11.0880 0.8712
16.7000 11.1013 0.8742
16.7200 11.1147 0.8729
16.7400 11.1280 0.8757
16.7600 11.1413 0.8746
16.7800 11.1547 0.8772
16.8000 11.1681 0.8755
16.8200 11.1814 0.8787
16.8400 11.1947 0.8779
16.8600 11.2081 0.8787
16.8800 11.2214 0.8803
16.9000 11.2348 0.8795
16.9200 11.2480 0.8814
16.9400 11.2614 0.8812
16.9600 11.2747 0.8837
16.9800 11.2880 0.8807
17.0000 11.3013 0.8857
17.0200 11.3146 0.8831
17.0400 11.3279 0.8862
17.0600 11.3413 0.8850
17.0800 11.3547 0.8871
17.1000 11.3680 0.8863
17.1200 11.3814 0.8887
17.1400 11.3948 0.8886
17.1600 11.4081 0.8884
17.1800 11.4214 0.8904
17.2000 11.4347 0.8891
17.2200 11.4481 0.8900
17.2400 11.4614 0.8906
17.2600 11.4747 0.8917
17.2800 11.4880 0.8914
17.3000 11.5013 0.8945
17.3200 11.5147 0.8930
17.3400 11.5280 0.8950
17.3600 11.5413 0.8942
17.3800 11.5547 0.8974
17.4000 11.5680 0.8946
17.4200 11.5814 0.8989
17.4400 11.5947 0.8965
17.4600 11.6080 0.8990
17.4800 11.6213 0.8985
17.5000 11.6347 0.9004
17.5200 11.6481 0.8987
17.5400 11.6614 0.9018
17.5600 11.6747 0.9012
17.5800 11.6880 0.9014
17.6000 11.7014 0.9027
17.6200 11.7147 0.9014
17.6400 11.7280 0.9043
17.6600 11.7413 0.9031
17.6800 11.7547 0.9070
17.7000 11.7680 0.9035
17.7200 11.7813 0.9083
17.7400 11.7946 0.9060
17.7600 11.8079 0.9083
17.7800 11.8213 0.9080
17.8000 11.8346 0.9099
17.8200 11.8480 0.9091
17.8400 11.8614 0.9104
17.8600 11.8747 0.9111
17.8800 11.8881 0.9111
17.9000 11.9014 0.9128
17.9200 11.9147 0.9128
17.9400 11.9280 0.9137
17.9600 11.9414 0.9130
17.9800 11.9547 0.9152
18.0000 11.9680 0.9132
18.0200 11.9813 0.9162
18.0400 11.9947 0.9150
18.0600 12.0080 0.9164
18.0800 12.0213 0.9167
18.1000 12.0346 0.9187
18.1200 12.0479 0.9182
18.1400 12.0613 0.9197
18.1600 12.0746 0.9196
18.1800 12.0879 0.9197
18.2000 12.1013 0.9199
18.2200 12.1147 0.9209
18.2400 12.1281 0.9214
18.2600 12.1415 0.9220
18.2800 12.1548 0.9241
18.3000 12.1681 0.9229
18.3200 12.1815 0.9253
18.3400 12.1948 0.9245
18.3600 12.2080 0.9265
18.3800 12.2213 0.9258
18.4000 12.2347 0.9289
18.4200 12.2480 0.9256
18.4400 12.2613 0.9300
18.4600 12.2746 0.9277
18.4800 12.2880 0.9306
18.5000 12.3013 0.9284
18.5200 12.3147 0.9317
18.5400 12.3280 0.9297
18.5600 12.3414 0.9325
18.5800 12.3547 0.9328
18.6000 12.3681 0.9320
18.6200 12.3814 0.9345
18.6400 12.3947 0.9335
18.6600 12.4080 0.9365
18.6800 12.4214 0.9347
18.7000 12.4347 0.9383
18.7200 12.4480 0.9357
18.7400 12.4613 0.9397
18.7600 12.4747 0.9376
18.7800 12.4880 0.9396
18.8000 12.5014 0.9392
18.8200 12.5147 0.9413
18.8400 12.5280 0.9408
18.8600 12.5413 0.9415
18.8800 12.5547 0.9432
18.9000 12.5680 0.9419
18.9200 12.5813 0.9451
18.9400 12.5947 0.9435
18.9600 12.6081 0.9458
18.9800 12.6214 0.9437
19.0000 12.6347 0.9477
19.0200 12.6480 0.9454
19.0400 12.6614 0.9489
19.0600 12.6747 0.9467
19.0800 12.6880 0.9491
19.1000 12.7013 0.9476
19.1200 12.7147 0.9506
19.1400 12.7280 0.9491
19.1600 12.7413 0.9516
19.1800 12.7546 0.9509
19.2000 12.7680 0.9526
19.2200 12.7813 0.9518
19.2400 12.7947 0.9532
19.2600 12.8080 0.9539
19.2800 12.8213 0.9533
19.3000 12.8347 0.9565
19.3200 12.8481 0.9543
19.3400 12.8614 0.9575
19.3600 12.8747 0.9563
19.3800 12.8880 0.9595
19.4000 12.9014 0.9568
19.4200 12.9147 0.9608
19.4400 12.9280 0.9579
19.4600 12.9413 0.9622
19.4800 12.9547 0.9602
19.5000 12.9680 0.9634
19.5200 12.9814 0.9612
19.5400 12.9947 0.9640
19.5600 13.0080 0.9631
19.5800 13.0213 0.9639
19.6000 13.0347 0.9659
19.6200 13.0480 0.9636
19.6400 13.0613 0.9682
19.6600 13.0747 0.9652
19.6800 13.0881 0.9697
19.7000 13.1014 0.9660
19.7200 13.1147 0.9713
19.7400 13.1280 0.9676
19.7600 13.1414 0.9716
19.7800 13.1548 0.9681
19.8000 13.1681 0.9725
19.8200 13.1814 0.9686
19.8400 13.1947 0.9737
19.8600 13.2080 0.9710
19.8800 13.2214 0.9734
19.9000 13.2347 0.9736
19.9200 13.2480 0.9743
19.9400 13.2613 0.9753
19.9600 13.2746 0.9753
19.9800 13.2879 0.9770
20.0000 13.3013 0.9757
20.0200 13.3147 0.9790
20.0400 13.3281 0.9774
20.0600 13.3414 0.9803
20.0800 13.3547 0.9788
20.1000 13.3681 0.9823
20.1200 13.3814 0.9786
20.1400 13.3948 0.9845
20.1600 13.4081 0.9803
20.1800 13.4214 0.9852
20.2000 13.4347 0.9827
20.2200 13.4480 0.9854
20.2400 13.4614 0.9838
20.2600 13.4746 0.9861
20.2800 13.4879 0.9861
20.3000 13.5013 0.9859
20.3200 13.5146 0.9870
20.3400 13.5280 0.9865
20.3600 13.5413 0.9886
20.3800 13.5547 0.9878
20.4000 13.5680 0.9904
20.4200 13.5814 0.9877
20.4400 13.5947 0.9929
20.4600 13.6081 0.9886
20.4800 13.6214 0.9911
20.5000 13.6348 0.9887
20.5200 13.6481 0.9921
20.5400 13.6613 0.9900
20.5600 13.6746 0.9933
20.5800 13.6880 0.9936
20.6000 13.7013 0.9940
20.6200 13.7147 0.9952
20.6400 13.7280 0.9957
20.6600 13.7413 0.9964
20.6800 13.7547 0.9971
20.7000 13.7680 0.9982
20.7200 13.7814 0.9973
20.7400 13.7947 1.0002
20.7600 13.8081 0.9981
20.7800 13.8214 0.9997
20.8000 13.8347 0.9993
20.8200 13.8480 1.0028
20.8400 13.8614 0.9998
20.8600 13.8747 1.0039
20.8800 13.8881 1.0016
20.9000 13.9014 1.0048
20.9200 13.9147 1.0042
20.9400 13.9281 1.0065
20.9600 13.9414 1.0044
20.9800 13.9547 1.0079
21.0000 13.9680 1.0067
21.0200 13.9813 1.0079
21.0400 13.9947 1.0088
21.0600 14.0080 1.0091
21.0800 14.0213 1.0099
21.1000 14.0347 1.0098
21.1200 14.0480 1.0127
21.1400 14.0614 1.0104
21.1600 14.0747 1.0134
21.1800 14.0880 1.0116
21.2000 14.1014 1.0143
21.2200 14.1148 1.0129
21.2400 14.1281 1.0161
21.2600 14.1414 1.0143
21.2800 14.1547 1.0169
21.3000 14.1680 1.0170
21.3200 14.1814 1.0166
21.3400 14.1947 1.0193
21.3600 14.2080 1.0178
21.3800 14.2213 1.0198
21.4000 14.2346 1.0188
21.4200 14.2480 1.0213
21.4400 14.2613 1.0196
21.4600 14.2747 1.0239
21.4800 14.2880 1.0202
21.5000 14.3014 1.0246
21.5200 14.3147 1.0218
21.5400 14.3281 1.0250
21.5600 14.3414 1.0229
21.5800 14.3548 1.0261
21.6000 14.3681 1.0241
21.6200 14.3814 1.0263
21.6400 14.3947 1.0259
21.6600 14.4080 1.0279
21.6800 14.4214 1.0268
21.7000 14.4347 1.0289
21.7200 14.4480 1.0295
21.7400 14.4613 1.0293
21.7600 14.4747 1.0315
21.7800 14.4880 1.0306
21.8000 14.5013 1.0322
21.8200 14.5146 1.0312
21.8400 14.5280 1.0348
21.8600 14.5414 1.0321
21.8800 14.5547 1.0351
21.9000 14.5681 1.0346
21.9200 14.5814 1.0361
21.9400 14.5948 1.0356
21.9600 14.6081 1.0377
21.9800 14.6214 1.0366
22.0000 14.6347 1.0382
22.0200 14.6480 1.0378
22.0400 14.6614 1.0369
22.0600 14.6747 1.0395
22.0800 14.6880 1.0373
22.1000 14.7013 1.0404
22.1200 14.7146 1.0389
22.1400 14.7280 1.0424
22.1600 14.7413 1.0401
22.1800 14.7547 1.0440
22.2000 14.7681 1.0424
22.2200 14.7814 1.0446
22.2400 14.7948 1.0432
22.2600 14.8081 1.0468
22.2800 14.8214 1.0441
22.3000 14.8348 1.0475
22.3200 14.8481 1.0457
22.3400 14.8614 1.0491
22.3600 14.8747 1.0473
22.3800 14.8880 1.0501
22.4000 14.9013 1.0494
22.4200 14.9147 1.0501
22.4400 14.9280 1.0521
22.4600 14.9413 1.0507
22.4800 14.9546 1.0535
22.5000 14.9680 1.0522
22.5200 14.9813 1.0547
22.5400 14.9947 1.0524
22.5600 15.0081 1.0569
22.5800 15.0214 1.0532
22.6000 15.0347 1.0584
22.6200 15.0481 1.0557
22.6400 15.0614 1.0592
22.6600 15.0748 1.0571
22.6800 15.0881 1.0601
22.7000 15.1014 1.0598
22.7200 15.1147 1.0606
22.7400 15.1280 1.0621
22.7600 15.1413 1.0606
22.7800 15.1547 1.0627
22.8000 15.1680 1.0619
22.8200 15.1813 1.0631
22.8400 15.1946 1.0623
22.8600 15.2080 1.0653
22.8800 15.2213 1.0631
22.9000 15.2347 1.0667
22.9200 15.2480 1.0654
22.9400 15.2614 1.0677
22.9600 15.2747 1.0656
22.9800 15.2880 1.0692
23.0000 15.3013 1.0669
23.0200 15.3147 1.0696
23.0400 15.3281 1.0692
23.0600 15.3414 1.0711
23.0800 15.3547 1.0714
23.1000 15.3680 1.0722
23.1200 15.3814 1.0728
23.1400 15.3947 1.0731
23.1600 15.4080 1.0746
23.1800 15.4212 1.0739
23.2000 15.4346 1.0760
23.2200 15.4479 1.0749
23.2400 15.4613 1.0777
23.2600 15.4746 1.0759
23.2800 15.4880 1.0793
23.3000 15.5014 1.0770
23.3200 15.5148 1.0791
23.3400 15.5281 1.0794
23.3600 15.5414 1.0797
23.3800 15.5548 1.0809
23.4000 15.5681 1.0804
23.4200 15.5814 1.0825
23.4400 15.5947 1.0805
23.4600 15.6080 1.0843
23.4800 15.6213 1.0818
23.5000 15.6347 1.0855
23.5200 15.6479 1.0838
23.5400 15.6613 1.0863
23.5600 15.6746 1.0843
23.5800 15.6880 1.0872
23.6000 15.7013 1.0857
23.6200 15.7147 1.0871
23.6400 15.7280 1.0874
23.6600 15.7414 1.0881
23.6800 15.7548 1.0887
23.7000 15.7681 1.0892
23.7200 15.7814 1.0916
23.7400 15.7948 1.0896
23.7600 15.8081 1.0929
23.7800 15.8214 1.0913
23.8000 15.8347 1.0938
23.8200 15.8480 1.0924
23.8400 15.8614 1.0930
23.8600 15.8747 1.0908
23.8800 15.8880 1.0936
23.9000 15.9013 1.0922
23.9200 15.9146 1.0950
23.9400 15.9280 1.0940
23.9600 15.9413 1.0972
23.9800 15.9546 1.0951
24.0000 15.9680 1.0992
24.0200 15.9814 1.0971
24.0400 15.9948 1.0996
24.0600 16.0081 1.0988
24.0800 16.0214 1.1009
24.1000 16.0348 1.0999
24.1200 16.0481 1.1021
24.1400 16.0614 1.1021
24.1600 16.0747 1.1029
24.1800 16.0880 1.1042
24.2000 16.1013 1.1039
24.2200 16.1147 1.1061
24.2400 16.1279 1.1053
24.2600 16.1413 1.1084
24.2800 16.1546 1.1052
24.3000 16.1680 1.1097
24.3200 16.1813 1.1076
24.3400 16.1947 1.1101
24.3600 16.2080 1.1099
24.3800 16.2214 1.1100
24.4000 16.2348 1.1107
24.4200 16.2481 1.1119
24.4400 16.2614 1.1138
24.4600 16.2747 1.1121
24.4800 16.2881 1.1148
24.5000 16.3014 1.1139
24.5200 16.3147 1.1159
24.5400 16.3280 1.1149
24.5600 16.3414 1.1180
24.5800 16.3547 1.1155
24.6000 16.3680 1.1187
24.6200 16.3813 1.1178
24.6400 16.3947 1.1197
24.6600 16.4080 1.1187
24.6800 16.4213 1.1204
24.7000 16.4347 1.1196
24.7200 16.4480 1.1223
24.7400 16.4614 1.1207
24.7600 16.4748 1.1231
24.7800 16.4880 1.1214
24.8000 16.5013 1.1243
24.8200 16.5147 1.1222
24.8400 16.5281 1.1252
24.8600 16.5414 1.1257
24.8800 16.5547 1.1251
24.9000 16.5680 1.1272
24.9200 16.5814 1.1261
24.9400 16.5947 1.1288
24.9600 16.6080 1.1277
24.9800 16.6213 1.1307
25.0000 16.6346 1.1286
25.0200 16.6480 1.1314
25.0400 16.6614 1.1288
25.0600 16.6747 1.1319
25.0800 16.6880 1.1300
25.1000 16.7014 1.1320
25.1200 16.7147 1.1300
25.1400 16.7280 1.1303
25.1600 16.7414 1.1329
25.1800 16.7547 1.1319
25.2000 16.7681 1.1345
25.2200 16.7814 1.1335
25.2400 16.7947 1.1366
25.2600 16.8080 1.1348
25.2800 16.8213 1.1386
25.3000 16.8347 1.1361
25.3200 16.8480 1.1393
25.3400 16.8613 1.1388
25.3600 16.8746 1.1403
25.3800 16.8880 1.1401
25.4000 16.9013 1.1418
25.4200 16.9146 1.1413
25.4400 16.9280 1.1421
25.4600 16.9414 1.1426
25.4800 16.9548 1.1424
25.5000 16.9681 1.1445
25.5200 16.9814 1.1446
25.5400 16.9947 1.1462
25.5600 17.0081 1.1452
25.5800 17.0214 1.1484
25.6000 17.0347 1.1467
25.6200 17.0480 1.1496
25.6400 17.0613 1.1485
25.6600 17.0747 1.1501
25.6800 17.0880 1.1493
25.7000 17.1013 1.1526
25.7200 17.1146 1.1501
25.7400 17.1280 1.1529
25.7600 17.1414 1.1519
25.7800 17.1547 1.1532
25.8000 17.1680 1.1540
25.8200 17.1814 1.1541
25.8400 17.1948 1.1553
25.8600 17.2081 1.1546
25.8800 17.2214 1.1584
25.9000 17.2347 1.1555
25.9200 17.2481 1.1594
25.9400 17.2614 1.1574
25.9600 17.2747 1.1610
25.9800 17.2880 1.1582
26.0000 17.3013 1.1623
26.0200 17.3147 1.1596
26.0400 17.3280 1.1628
26.0600 17.3413 1.1624
26.0800 17.3546 1.1635
26.1000 17.3680 1.1639
26.1200 17.3814 1.1639
26.1400 17.3947 1.1656
26.1600 17.4080 1.1636
26.1800 17.4214 1.1685
26.2000 17.4347 1.1643
26.2200 17.4481 1.1693
26.2400 17.4614 1.1659
26.2600 17.4747 1.1702
26.2800 17.4881 1.1674
26.3000 17.5014 1.1707
26.3200 17.5147 1.1682
26.3400 17.5280 1.1699
26.3600 17.5414 1.1692
26.3800 17.5547 1.1695
26.4000 17.5680 1.1703
26.4200 17.5813 1.1719
26.4400 17.5946 1.1731
26.4600 17.6080 1.1717
26.4800 17.6214 1.1757
26.5000 17.6347 1.1738
26.5200 17.6480 1.1764
26.5400 17.6614 1.1758
26.5600 17.6748 1.1780
26.5800 17.6881 1.1766
26.6000 17.7014 1.1806
26.6200 17.7147 1.1781
26.6400 17.7280 1.1806
26.6600 17.7414 1.1793
26.6800 17.7547 1.1819
26.7000 17.7680 1.1798
26.7200 17.7813 1.1837
26.7400 17.7947 1.1808
26.7600 17.8080 1.1838
26.7800 17.8213 1.1836
26.8000 17.8346 1.1846
26.8200 17.8480 1.1853
26.8400 17.8613 1.1854
26.8600 17.8747 1.1873
26.8800 17.8880 1.1858
26.9000 17.9014 1.1908
26.9200 17.9147 1.1864
26.9400 17.9281 1.1910
26.9600 17.9414 1.1888
26.9800 17.9547 1.1921
27.0000 17.9681 1.1896
27.0200 17.9814 1.1933
27.0400 17.9947 1.1922
27.0600 18.0080 1.1941
27.0800 18.0214 1.1939
27.1000 18.0347 1.1951
27.1200 18.0480 1.1957
27.1400 18.0613 1.1955
27.1600 18.0746 1.1988
27.1800 18.0880 1.1960
27.2000 18.1013 1.2002
27.2200 18.1146 1.1980
27.2400 18.1280 1.2001
27.2600 18.1414 1.2003
27.2800 18.1548 1.2013
27.3000 18.1681 1.2005
27.3200 18.1814 1.2032
27.3400 18.1947 1.2023
27.3600 18.2081 1.2038
27.3800 18.2215 1.2042
27.4000 18.2347 1.2056
27.4200 18.2480 1.2053
27.4400 18.2613 1.2065
27.4600 18.2747 1.2068
27.4800 18.2880 1.2063
27.5000 18.3013 1.2088
27.5200 18.3146 1.2079
27.5400 18.3280 1.2094
27.5600 18.3413 1.2090
27.5800 18.3546 1.2114
27.6000 18.3680 1.2090
27.6200 18.3814 1.2130
27.6400 18.3947 1.2096
27.6600 18.4081 1.2136
27.6800 18.4214 1.2103
27.7000 18.4347 1.2156
27.7200 18.4481 1.2115
27.7400 18.4614 1.2165
27.7600 18.4747 1.2140
27.7800 18.4880 1.2164
27.8000 18.5013 1.2163
27.8200 18.5147 1.2172
27.8400 18.5280 1.2179
27.8600 18.5413 1.2181
27.8800 18.5546 1.2202
27.9000 18.5680 1.2184
27.9200 18.5814 1.2224
27.9400 18.5947 1.2200
27.9600 18.6080 1.2239
27.9800 18.6214 1.2212
28.0000 18.6347 1.2253
28.0200 18.6481 1.2229
28.0400 18.6614 1.2263
28.0600 18.6747 1.2244
28.0800 18.6880 1.2244
28.1000 18.7014 1.2247
28.1200 18.7147 1.2255
28.1400 18.7280 1.2259
28.1600 18.7414 1.2263
28.1800 18.7547 1.2285
28.2000 18.7680 1.2275
28.2200 18.7813 1.2302
28.2400 18.7947 1.2297
28.2600 18.8080 1.2312
28.2800 18.8213 1.2307
28.3000 18.8346 1.2331
28.3200 18.8480 1.2315
28.3400 18.8613 1.2352
28.3600 18.8747 1.2330
28.3800 18.8881 1.2355
28.4000 18.9014 1.2342
28.4200 18.9147 1.2378
28.4400 18.9281 1.2352
28.4600 18.9414 1.2394
28.4800 18.9547 1.2377
28.5000 18.9680 1.2408
28.5200 18.9813 1.2390
28.5400 18.9947 1.2421
28.5600 19.0080 1.2405
28.5800 19.0213 1.2432
28.6000 19.0346 1.2424
28.6200 19.0480 1.2429
28.6400 19.0613 1.2443
28.6600 19.0746 1.2443
28.6800 19.0880 1.2456
28.7000 19.1013 1.2444
28.7200 19.1147 1.2479
28.7400 19.1281 1.2446
28.7600 19.1414 1.2477
28.7800 19.1547 1.2458
28.8000 19.1681 1.2480
28.8200 19.1814 1.2468
28.8400 19.1947 1.2500
28.8600 19.2080 1.2483
28.8800 19.2213 1.2518
28.9000 19.2347 1.2506
28.9200 19.2480 1.2523
28.9400 19.2613 1.2526
28.9600 19.2746 1.2552
28.9800 19.2880 1.2537
29.0000 19.3014 1.2559
29.0200 19.3147 1.2559
29.0400 19.3280 1.2575
29.0600 19.3413 1.2570
29.0800 19.3547 1.2591
29.1000 19.3680 1.2581
29.1200 19.3814 1.2610
29.1400 19.3947 1.2607
29.1600 19.4081 1.2603
29.1800 19.4215 1.2627
29.2000 19.4348 1.2620
29.2200 19.4481 1.2642
29.2400 19.4614 1.2627
29.2600 19.4747 1.2676
29.2800 19.4880 1.2639
29.3000 19.5013 1.2667
29.3200 19.5146 1.2666
29.3400 19.5280 1.2669
29.3600 19.5413 1.2680
29.3800 19.5547 1.2689
29.4000 19.5680 1.2696
29.4200 19.5814 1.2693
29.4400 19.5948 1.2731
29.4600 19.6081 1.2696
29.4800 19.6214 1.2744
29.5000 19.6347 1.2712
29.5200 19.6481 1.2756
29.5400 19.6614 1.2725
29.5600 19.6747 1.2772
29.5800 19.6880 1.2747
29.6000 19.7013 1.2782
29.6200 19.7146 1.2776
29.6400 19.7280 1.2785
29.6600 19.7413 1.2796
29.6800 19.7546 1.2807
29.7000 19.7680 1.2802
29.7200 19.7813 1.2813
29.7400 19.7947 1.2825
29.7600 19.8080 1.2830
29.7800 19.8213 1.2839
29.8000 19.8347 1.2843
29.8200 19.8481 1.2858
29.8400 19.8614 1.2844
29.8600 19.8747 1.2882
29.8800 19.8881 1.2856
29.9000 19.9014 1.2884
29.9200 19.9147 1.2873
29.9400 19.9280 1.2897
29.9600 19.9413 1.2881
29.9800 19.9546 1.2906
30.0000 19.9680 1.2896
30.0200 19.9813 1.2915
30.0400 19.9946 1.2928
30.0600 20.0080 1.2931
30.0800 20.0213 1.2942
30.1000 20.0347 1.2944
30.1200 20.0480 1.2968
30.1400 20.0613 1.2944
30.1600 20.0747 1.2995
30.1800 20.0881 1.2947
30.2000 20.1014 1.2998
30.2200 20.1147 1.2959
30.2400 20.1280 1.3008
30.2600 20.1414 1.2975
30.2800 20.1547 1.3027
30.3000 20.1680 1.2996
30.3200 20.1814 1.3035
30.3400 20.1947 1.3029
30.3600 20.2081 1.3037
30.3800 20.2214 1.3055
30.4000 20.2346 1.3048
30.4200 20.2479 1.3082
30.4400 20.2613 1.3052
30.4600 20.2746 1.3107
30.4800 20.2879 1.3067
30.5000 20.3013 1.3120
30.5200 20.3147 1.3088
30.5400 20.3281 1.3128
30.5600 20.3414 1.3104
30.5800 20.3547 1.3146
30.6000 20.3681 1.3127
30.6200 20.3815 1.3143
30.6400 20.3948 1.3149
30.6600 20.4081 1.3155
30.6800 20.4213 1.3170
30.7000 20.4347 1.3177
30.7200 20.4480 1.3187
30.7400 20.4613 1.3181
30.7600 20.4746 1.3209
30.7800 20.4879 1.3201
30.8000 20.5013 1.3219
30.8200 20.5147 1.3216
30.8400 20.5280 1.3239
30.8600 20.5413 1.3220
30.8800 20.5547 1.3264
30.9000 20.5681 1.3238
30.9200 20.5814 1.3271
30.9400 20.5947 1.3258
30.9600 20.6081 1.3285
30.9800 20.6215 1.3267
31.0000 20.6348 1.3301
31.0200 20.6481 1.3289
31.0400 20.6613 1.3301
31.0600 20.6747 1.3297
31.0800 20.6880 1.3298
31.1000 20.7013 1.3304
31.1200 20.7146 1.3299
31.1400 20.7279 1.3322
31.1600 20.7413 1.3294
31.1800 20.7547 1.3352
31.2000 20.7680 1.3323
31.2200 20.7813 1.3363
31.2400 20.7947 1.3354
31.2600 20.8081 1.3375
31.2800 20.8214 1.3364
31.3000 20.8347 1.3392
31.3200 20.8481 1.3397
31.3400 20.8614 1.3398
31.3600 20.8748 1.3422
31.3800 20.8881 1.3415
31.4000 20.9014 1.3435
31.4200 20.9147 1.3434
31.4400 20.9280 1.3456
31.4600 20.9413 1.3440
31.4800 20.9546 1.3477
31.5000 20.9679 1.3461
31.5200 20.9813 1.3482
31.5400 20.9947 1.3477
31.5600 21.0080 1.3496
31.5800 21.0213 1.3488
31.6000 21.0347 1.3512
31.6200 21.0481 1.3511
31.6400 21.0614 1.3525
31.6600 21.0747 1.3531
31.6800 21.0881 1.3554
31.7000 21.1014 1.3536
31.7200 21.1148 1.3571
31.7400 21.1280 1.3566
31.7600 21.1413 1.3576
31.7800 21.1547 1.3593
31.8000 21.1680 1.3589
31.8200 21.1814 1.3606
31.8400 21.1947 1.3609
31.8600 21.2080 1.3624
31.8800 21.2214 1.3616
31.9000 21.2347 1.3647
31.9200 21.2480 1.3638
31.9400 21.2613 1.3659
31.9600 21.2747 1.3647
31.9800 21.2881 1.3683
32.0000 21.3014 1.3650
32.0200 21.3147 1.3700
32.0400 21.3280 1.3682
32.0600 21.3414 1.3701
32.0800 21.3548 1.3699
32.1000 21.3681 1.3719
32.1200 21.3813 1.3724
32.1400 21.3947 1.3734
32.1600 21.4080 1.3748
32.1800 21.4214 1.3735
32.2000 21.4346 1.3770
32.2200 21.4480 1.3761
32.2400 21.4613 1.3772
32.2600 21.4747 1.3772
32.2800 21.4880 1.3794
32.3000 21.5013 1.3780
32.3200 21.5147 1.3811
32.3400 21.5280 1.3807
32.3600 21.5414 1.3811
32.3800 21.5547 1.3830
32.4000 21.5680 1.3830
32.4200 21.5814 1.3841
32.4400 21.5947 1.3842
32.4600 21.6080 1.3870
32.4800 21.6213 1.3847
32.5000 21.6347 1.3868
32.5200 21.6480 1.3849
32.5400 21.6614 1.3859
32.5600 21.6746 1.3833
32.5800 21.6880 1.3853
32.6000 21.7013 1.3831
32.6200 21.7146 1.3876
32.6400 21.7280 1.3866
32.6600 21.7413 1.3907
32.6800 21.7547 1.3887
32.7000 21.7681 1.3930
32.7200 21.7814 1.3896
32.7400 21.7948 1.3953
32.7600 21.8081 1.3933
32.7800 21.8214 1.3966
32.8000 21.8348 1.3953
32.8200 21.8481 1.3992
32.8400 21.8613 1.3973
32.8600 21.8746 1.4003
32.8800 21.8880 1.4001
32.9000 21.9013 1.4009
32.9200 21.9146 1.4024
32.9400 21.9280 1.4023
32.9600 21.9413 1.4047
32.9800 21.9547 1.4032
33.0000 21.9680 1.4075
33.0200 21.9814 1.4046
33.0400 21.9947 1.4089
33.0600 22.0081 1.4073
33.0800 22.0214 1.4092
33.1000 22.0347 1.4098
33.1200 22.0480 1.4111
33.1400 22.0614 1.4125
33.1600 22.0747 1.4115
33.1800 22.0880 1.4150
33.2000 22.1013 1.4128
33.2200 22.1147 1.4169
33.2400 22.1280 1.4153
33.2600 22.1414 1.4181
33.2800 22.1547 1.4166
33.3000 22.1680 1.4212
33.3200 22.1813 1.4177
33.3400 22.1947 1.4215
33.3600 22.2080 1.4210
33.3800 22.2213 1.4229
33.4000 22.2347 1.4225
33.4200 22.2481 1.4248
33.4400 22.2614 1.4238
33.4600 22.2747 1.4262
33.4800 22.2880 1.4268
33.5000 22.3014 1.4278
33.5200 22.3147 1.4277
33.5400 22.3281 1.4303
33.5600 22.3414 1.4297
33.5800 22.3547 1.4314
33.6000 22.3680 1.4331
33.6200 22.3814 1.4315
33.6400 22.3946 1.4347
33.6600 22.4079 1.4341
33.6800 22.4213 1.4366
33.7000 22.4347 1.4347
33.7200 22.4480 1.4392
33.7400 22.4613 1.4363
33.7600 22.4747 1.4402
33.7800 22.4881 1.4391
33.8000 22.5014 1.4418
33.8200 22.5147 1.4402
33.8400 22.5280 1.4443
33.8600 22.5414 1.4417
33.8800 22.5548 1.4448
33.9000 22.5681 1.4448
33.9200 22.5814 1.4455
33.9400 22.5947 1.4475
33.9600 22.6080 1.4475
33.9800 22.6214 1.4479
34.0000 22.6347 1.4456
34.0200 22.6480 1.4483
34.0400 22.6613 1.4461
34.0600 22.6747 1.4486
34.0800 22.6880 1.4493
34.1000 22.7013 1.4521
34.1200 22.7147 1.4503
34.1400 22.7281 1.4546
34.1600 22.7414 1.4526
34.1800 22.7547 1.4558
34.2000 22.7680 1.4563
34.2200 22.7814 1.4572
34.2400 22.7947 1.4585
34.2600 22.8081 1.4594
34.2800 22.8214 1.4613
34.3000 22.8347 1.4610
34.3200 22.8481 1.4641
34.3400 22.8614 1.4624
34.3600 22.8747 1.4656
34.3800 22.8880 1.4655
34.4000 22.9013 1.4673
34.4200 22.9146 1.4663
34.4400 22.9280 1.4705
34.4600 22.9413 1.4679
34.4800 22.9547 1.4714
34.5000 22.9681 1.4704
34.5200 22.9814 1.4729
34.5400 22.9947 1.4709
34.5600 23.0080 1.4729
34.5800 23.0214 1.4720
34.6000 23.0348 1.4727
34.6200 23.0481 1.4752
34.6400 23.0613 1.4744
34.6600 23.0747 1.4778
34.6800 23.0880 1.4770
34.7000 23.1014 1.4802
34.7200 23.1147 1.4778
34.7400 23.1280 1.4837
34.7600 23.1413 1.4797
34.7800 23.1546 1.4849
34.8000 23.1680 1.4824
34.8200 23.1813 1.4874
34.8400 23.1947 1.4845
34.8600 23.2080 1.4885
34.8800 23.2214 1.4872
34.9000 23.2347 1.4889
34.9200 23.2480 1.4898
34.9400 23.2614 1.4889
34.9600 23.2747 1.4911
34.9800 23.2881 1.4901
35.0000 23.3013 1.4928
35.0200 23.3146 1.4905
35.0400 23.3280 1.4947
35.0600 23.3413 1.4928
35.0800 23.3547 1.4965
35.1000 23.3680 1.4960
35.1200 23.3813 1.4990
35.1400 23.3947 1.4974
35.1600 23.4080 1.5014
35.1800 23.4214 1.5000
35.2000 23.4347 1.5025
35.2200 23.4481 1.5032
35.2400 23.4614 1.5040
35.2600 23.4747 1.5049
35.2800 23.4880 1.5064
35.3000 23.5014 1.5077
35.3200 23.5147 1.5078
35.3400 23.5281 1.5101
35.3600 23.5414 1.5097
35.3800 23.5547 1.5117
35.4000 23.5681 1.5121
35.4200 23.5814 1.5140
35.4400 23.5947 1.5133
35.4600 23.6080 1.5166
35.4800 23.6213 1.5161
35.5000 23.6347 1.5174
35.5200 23.6480 1.5184
35.5400 23.6613 1.5207
35.5600 23.6747 1.5190
35.5800 23.6880 1.5226
35.6000 23.7014 1.5221
35.6200 23.7147 1.5230
35.6400 23.7280 1.5248
35.6600 23.7414 1.5248
35.6800 23.7548 1.5264
35.7000 23.7681 1.5267
35.7200 23.7814 1.5291
35.7400 23.7947 1.5280
35.7600 23.8080 1.5318
35.7800 23.8214 1.5293
35.8000 23.8347 1.5341
35.8200 23.8480 1.5310
35.8400 23.8613 1.5369
35.8600 23.8746 1.5329
35.8800 23.8880 1.5381
35.9000 23.9013 1.5361
35.9200 23.9146 1.5391
35.9400 23.9280 1.5394
35.9600 23.9414 1.5414
35.9800 23.9547 1.5403
36.0000 23.9680 1.5436
36.0200 23.9814 1.5434
36.0400 23.9947 1.5437
36.0600 24.0081 1.5432
36.0800 24.0214 1.5442
36.1000 24.0347 1.5434
36.1200 24.0480 1.5449
36.1400 24.0614 1.5465
36.1600 24.0747 1.5465
36.1800 24.0880 1.5483
36.2000 24.1013 1.5483
36.2200 24.1147 1.5477
36.2400 24.1280 1.5496
36.2600 24.1413 1.5502
36.2800 24.1546 1.5503
36.3000 24.1680 1.5535
36.3200 24.1814 1.5532
36.3400 24.1947 1.5558
36.3600 24.2080 1.5562
36.3800 24.2214 1.5587
36.4000 24.2347 1.5586
36.4200 24.2481 1.5599
36.4400 24.2614 1.5625
36.4600 24.2747 1.5610
36.4800 24.2880 1.5653
36.5000 24.3014 1.5639
36.5200 24.3147 1.5669
36.5400 24.3280 1.5663
36.5600 24.3413 1.5706
36.5800 24.3546 1.5672
36.6000 24.3680 1.5727
36.6200 24.3813 1.5709
36.6400 24.3947 1.5745
36.6600 24.4080 1.5729
36.6800 24.4215 1.5768
36.7000 24.4348 1.5750
36.7200 24.4481 1.5782
36.7400 24.4614 1.5785
36.7600 24.4748 1.5787
36.7800 24.4881 1.5811
36.8000 24.5014 1.5822
36.8200 24.5147 1.5831
36.8400 24.5280 1.5840
36.8600 24.5413 1.5863
36.8800 24.5547 1.5852
36.9000 24.5680 1.5889
36.9200 24.5813 1.5878
36.9400 24.5946 1.5906
36.9600 24.6080 1.5887
36.9800 24.6213 1.5930
37.0000 24.6347 1.5900
37.0200 24.6481 1.5936
37.0400 24.6614 1.5925
37.0600 24.6748 1.5948
37.0800 24.6881 1.5948
37.1000 24.7014 1.5980
37.1200 24.7147 1.5966
37.1400 24.7281 1.5993
37.1600 24.7414 1.6004
37.1800 24.7547 1.6011
37.2000 24.7680 1.6031
37.2200 24.7813 1.6029
37.2400 24.7947 1.6051
37.2600 24.8080 1.6043
37.2800 24.8213 1.6094
37.3000 24.8346 1.6062
37.3200 24.8480 1.6105
37.3400 24.8613 1.6088
37.3600 24.8747 1.6124
37.3800 24.8880 1.6111
37.4000 24.9014 1.6151
37.4200 24.9147 1.6140
37.4400 24.9280 1.6163
37.4600 24.9413 1.6177
37.4800 24.9547 1.6182
37.5000 24.9681 1.6206
37.5200 24.9814 1.6210
37.5400 24.9947 1.6228
37.5600 25.0080 1.6226
37.5800 25.0214 1.6264
37.6000 25.0347 1.6242
37.6200 25.0480 1.6290
37.6400 25.0613 1.6278
37.6600 25.0746 1.6310
37.6800 25.0880 1.6296
37.7000 25.1013 1.6339
37.7200 25.1146 1.6326
37.7400 25.1280 1.6348
37.7600 25.1414 1.6351
37.7800 25.1548 1.6365
37.8000 25.1681 1.6363
37.8200 25.1814 1.6371
37.8400 25.1948 1.6348
37.8600 25.2081 1.6366
37.8800 25.2214 1.6384
37.9000 25.2347 1.6394
37.9200 25.2480 1.6416
37.9400 25.2613 1.6424
37.9600 25.2747 1.6443
37.9800 25.2880 1.6443
38.0000 25.3013 1.6484
38.0200 25.3146 1.6471
38.0400 25.3280 1.6499
38.0600 25.3413 1.6502
38.0800 25.3547 1.6528
38.1000 25.3680 1.6525
38.1200 25.3814 1.6557
38.1400 25.3948 1.6548
38.1600 25.4081 1.6582
38.1800 25.4214 1.6583
38.2000 25.4347 1.6603
38.2200 25.4481 1.6608
38.2400 25.4614 1.6629
38.2600 25.4747 1.6642
38.2800 25.4880 1.6639
38.3000 25.5013 1.6687
38.3200 25.5147 1.6652
38.3400 25.5280 1.6696
38.3600 25.5413 1.6672
38.3800 25.5546 1.6679
38.4000 25.5680 1.6651
38.4200 25.5813 1.6699
38.4400 25.5947 1.6684
38.4600 25.6080 1.6731
38.4800 25.6214 1.6727
38.5000 25.6348 1.6755
38.5200 25.6481 1.6752
38.5400 25.6614 1.6777
38.5600 25.6748 1.6782
38.5800 25.6881 1.6767
38.6000 25.7014 1.6803
38.6200 25.7147 1.6781
38.6400 25.7280 1.6818
38.6600 25.7413 1.6819
38.6800 25.7547 1.6850
38.7000 25.7679 1.6846
38.7200 25.7812 1.6893
38.7400 25.7946 1.6868
38.7600 25.8080 1.6913
38.7800 25.8214 1.6907
38.8000 25.8347 1.6945
38.8200 25.8480 1.6932
38.8400 25.8614 1.6975
38.8600 25.8748 1.6964
38.8800 25.8881 1.6989
38.9000 25.9014 1.7010
38.9200 25.9147 1.7018
38.9400 25.9281 1.7031
38.9600 25.9414 1.7047
38.9800 25.9547 1.7066
39.0000 25.9680 1.7063
39.0200 25.9814 1.7106
39.0400 25.9947 1.7081
39.0600 26.0080 1.7132
39.0800 26.0213 1.7111
39.1000 26.0347 1.7163
39.1200 26.0480 1.7131
39.1400 26.0613 1.7190
39.1600 26.0746 1.7162
39.1800 26.0880 1.7205
39.2000 26.1014 1.7192
39.2200 26.1148 1.7228
39.2400 26.1280 1.7222
39.2600 26.1413 1.7252
39.2800 26.1547 1.7265
39.3000 26.1681 1.7265
39.3200 26.1814 1.7299
39.3400 26.1947 1.7295
39.3600 26.2080 1.7325
39.3800 26.2214 1.7323
39.4000 26.2347 1.7355
39.4200 26.2480 1.7340
39.4400 26.2613 1.7378
39.4600 26.2746 1.7352
39.4800 26.2880 1.7389
39.5000 26.3013 1.7397
39.5200 26.3147 1.7402
39.5400 26.3280 1.7386
39.5600 26.3414 1.7391
39.5800 26.3547 1.7389
39.6000 26.3680 1.7402
39.6200 26.3813 1.7438
39.6400 26.3947 1.7450
39.6600 26.4081 1.7464
39.6800 26.4214 1.7483
39.7000 26.4347 1.7503
39.7200 26.4480 1.7505
39.7400 26.4614 1.7548
39.7600 26.4747 1.7530
39.7800 26.4880 1.7577
39.8000 26.5013 1.7561
39.8200 26.5146 1.7616
39.8400 26.5280 1.7588
39.8600 26.5413 1.7653
39.8800 26.5546 1.7628
39.9000 26.5680 1.7671
39.9200 26.5814 1.7657
39.9400 26.5948 1.7704
39.9600 26.6081 1.7689
39.9800 26.6214 1.7728
40.0000 26.6348 1.7730
40.0200 26.6481 1.7750
40.0400 26.6614 1.7770
40.0600 26.6747 1.7773
40.0800 26.6880 1.7801
40.1000 26.7013 1.7801
40.1200 26.7147 1.7828
40.1400 26.7280 1.7821
40.1600 26.7413 1.7863
40.1800 26.7546 1.7858
40.2000 26.7680 1.7882
40.2200 26.7814 1.7898
40.2400 26.7947 1.7911
40.2600 26.8080 1.7926
40.2800 26.8214 1.7941
40.3000 26.8348 1.7952
40.3200 26.8481 1.7954
40.3400 26.8614 1.7968
40.3600 26.8747 1.7965
40.3800 26.8881 1.7981
40.4000 26.9014 1.7997
40.4200 26.9147 1.8027
40.4400 26.9280 1.8022
40.4600 26.9413 1.8054
40.4800 26.9547 1.8039
40.5000 26.9680 1.8041
40.5200 26.9813 1.8054
40.5400 26.9946 1.8078
40.5600 27.0080 1.8093
40.5800 27.0213 1.8125
40.6000 27.0347 1.8123
40.6200 27.0480 1.8162
40.6400 27.0614 1.8160
40.6600 27.0747 1.8204
40.6800 27.0881 1.8193
40.7000 27.1014 1.8233
40.7200 27.1147 1.8238
40.7400 27.1281 1.8257
40.7600 27.1414 1.8284
40.7800 27.1547 1.8295
40.8000 27.1680 1.8312
40.8200 27.1813 1.8326
40.8400 27.1947 1.8353
40.8600 27.2080 1.8355
40.8800 27.2213 1.8389
40.9000 27.2346 1.8393
40.9200 27.2480 1.8417
40.9400 27.2613 1.8425
40.9600 27.2747 1.8457
40.9800 27.2880 1.8446
41.0000 27.3014 1.8469
41.0200 27.3147 1.8474
41.0400 27.3281 1.8463
41.0600 27.3414 1.8490
41.0800 27.3547 1.8496
41.1000 27.3681 1.8517
41.1200 27.3814 1.8534
41.1400 27.3947 1.8566
41.1600 27.4080 1.8572
41.1800 27.4214 1.8597
41.2000 27.4347 1.8613
41.2200 27.4480 1.8631
41.2400 27.4613 1.8640
41.2600 27.4746 1.8675
41.2800 27.4880 1.8672
41.3000 27.5014 1.8713
41.3200 27.5147 1.8713
41.3400 27.5280 1.8744
41.3600 27.5413 1.8747
41.3800 27.5547 1.8791
41.4000 27.5681 1.8782
41.4200 27.5814 1.8818
41.4400 27.5947 1.8826
41.4600 27.6081 1.8854
41.4800 27.6215 1.8864
41.5000 27.6348 1.8895
41.5200 27.6481 1.8903
41.5400 27.6614 1.8912
41.5600 27.6747 1.8950
41.5800 27.6880 1.8928
41.6000 27.7013 1.8969
41.6200 27.7146 1.8934
41.6400 27.7280 1.8979
41.6600 27.7413 1.8958
41.6800 27.7546 1.9028
41.7000 27.7680 1.9011
41.7200 27.7813 1.9063
41.7400 27.7947 1.9059
41.7600 27.8081 1.9095
41.7800 27.8214 1.9107
41.8000 27.8347 1.9144
41.8200 27.8481 1.9154
41.8400 27.8614 1.9172
41.8600 27.8747 1.9213
41.8800 27.8880 1.9207
41.9000 27.9013 1.9254
41.9200 27.9147 1.9252
41.9400 27.9280 1.9294
41.9600 27.9413 1.9287
41.9800 27.9546 1.9342
42.0000 27.9679 1.9323
42.0200 27.9813 1.9346
42.0400 27.9946 1.9324
42.0600 28.0080 1.9346
42.0800 28.0213 1.9348
42.1000 28.0347 1.9396
42.1200 28.0481 1.9400
42.1400 28.0614 1.9440
42.1600 28.0747 1.9458
42.1800 28.0881 1.9480
42.2000 28.1014 1.9503
42.2200 28.1147 1.9528
42.2400 28.1280 1.9551
42.2600 28.1413 1.9555
42.2800 28.1547 1.9602
42.3000 28.1680 1.9591
42.3200 28.1813 1.9645
42.3400 28.1946 1.9644
42.3600 28.2080 1.9688
42.3800 28.2214 1.9674
42.4000 28.2347 1.9737
42.4200 28.2481 1.9722
42.4400 28.2614 1.9777
42.4600 28.2748 1.9766
42.4800 28.2881 1.9818
42.5000 28.3014 1.9817
42.5200 28.3147 1.9861
42.5400 28.3280 1.9867
42.5600 28.3414 1.9882
42.5800 28.3547 1.9888
42.6000 28.3680 1.9864
42.6200 28.3814 1.9912
42.6400 28.3947 1.9917
42.6600 28.4081 1.9967
42.6800 28.4214 1.9971
42.7000 28.4346 2.0030
42.7200 28.4480 2.0021
42.7400 28.4613 2.0067
42.7600 28.4746 2.0077
42.7800 28.4880 2.0081
42.8000 28.5013 2.0067
42.8200 28.5147 2.0091
42.8400 28.5281 2.0107
42.8600 28.5414 2.0134
42.8800 28.5547 2.0178
42.9000 28.5681 2.0194
42.9200 28.5814 2.0232
42.9400 28.5947 2.0247
42.9600 28.6080 2.0288
42.9800 28.6214 2.0300
43.0000 28.6347 2.0343
43.0200 28.6480 2.0354
43.0400 28.6613 2.0392
43.0600 28.6746 2.0413
43.0800 28.6880 2.0445
43.1000 28.7013 2.0448
43.1200 28.7146 2.0510
43.1400 28.7280 2.0502
43.1600 28.7413 2.0547
43.1800 28.7547 2.0562
43.2000 28.7681 2.0606
43.2200 28.7814 2.0616
43.2400 28.7947 2.0658
43.2600 28.8081 2.0678
43.2800 28.8214 2.0678
43.3000 28.8347 2.0698
43.3200 28.8480 2.0689
43.3400 28.8613 2.0726
43.3600 28.8747 2.0744
43.3800 28.8880 2.0791
43.4000 28.9013 2.0797
43.4200 28.9146 2.0870
43.4400 28.9280 2.0858
43.4600 28.9413 2.0915
43.4800 28.9547 2.0930
43.5000 28.9680 2.0972
43.5200 28.9813 2.0989
43.5400 28.9947 2.1027
43.5600 29.0081 2.1062
43.5800 29.0214 2.1076
43.6000 29.0347 2.1131
43.6200 29.0481 2.1134
43.6400 29.0614 2.1182
43.6600 29.0748 2.1183
43.6800 29.0881 2.1228
43.7000 29.1014 2.1200
43.7200 29.1147 2.1252
43.7400 29.1281 2.1241
43.7600 29.1413 2.1312
43.7800 29.1546 2.1318
43.8000 29.1680 2.1386
43.8200 29.1813 2.1388
43.8400 29.1947 2.1452
43.8600 29.2080 2.1468
43.8800 29.2214 2.1506
43.9000 29.2347 2.1501
43.9200 29.2481 2.1502
43.9400 29.2614 2.1510
43.9600 29.2747 2.1566
43.9800 29.2881 2.1595
44.0000 29.3014 2.1637
44.0200 29.3148 2.1680
44.0400 29.3280 2.1715
44.0600 29.3413 2.1759
44.0800 29.3546 2.1779
44.1000 29.3680 2.1839
44.1200 29.3813 2.1842
44.1400 29.3946 2.1898
44.1600 29.4080 2.1893
44.1800 29.4213 2.1943
44.2000 29.4347 2.1955
44.2200 29.4480 2.2024
44.2400 29.4614 2.2030
44.2600 29.4747 2.2105
44.2800 29.4881 2.2118
44.3000 29.5014 2.2168
44.3200 29.5147 2.2205
44.3400 29.5281 2.2241
44.3600 29.5414 2.2287
44.3800 29.5547 2.2310
44.4000 29.5680 2.2377
44.4200 29.5813 2.2359
44.4400 29.5947 2.2414
44.4600 29.6080 2.2385
44.4800 29.6213 2.2462
44.5000 29.6346 2.2473
44.5200 29.6480 2.2554
44.5400 29.6613 2.2560
44.5600 29.6747 2.2639
44.5800 29.6880 2.2652
44.6000 29.7013 2.2718
44.6200 29.7147 2.2728
44.6400 29.7281 2.2752
44.6600 29.7414 2.2741
44.6800 29.7547 2.2790
44.7000 29.7680 2.2834
44.7200 29.7814 2.2883
44.7400 29.7948 2.2934
44.7600 29.8081 2.2979
44.7800 29.8214 2.3026
44.8000 29.8347 2.3075
44.8200 29.8481 2.3121
44.8400 29.8614 2.3156
44.8600 29.8747 2.3212
44.8800 29.8880 2.3245
44.9000 29.9013 2.3277
44.9200 29.9146 2.3290
44.9400 29.9280 2.3310
44.9600 29.9413 2.3310
44.9800 29.9547 2.3366
45.0000 29.9681 2.3394
45.0200 29.9814 2.3456
45.0400 29.9947 2.3494
45.0490 30.0006 2.3479
45.0500 30.0012 2.3477
45.0510 30.0019 2.3474
45.0710 30.0122 2.3388
45.0910 30.0141 2.3254
45.1110 30.0057 2.3328
45.1310 29.9929 2.3302
45.1510 29.9800 2.3162
45.1710 29.9671 2.3072
45.1910 29.9537 2.2939
45.2110 29.9397 2.2857
45.2310 29.9256 2.2742
45.2510 29.9118 2.2675
45.2710 29.8983 2.2544
45.2910 29.8850 2.2475
45.3110 29.8717 2.2362
45.3310 29.8584 2.2299
45.3510 29.8450 2.2202
45.3710 29.8316 2.2141
45.3910 29.8183 2.2036
45.4110 29.8050 2.1984
45.4310 29.7916 2.1883
45.4510 29.7782 2.1828
45.4710 29.7649 2.1741
45.4910 29.7516 2.1682
45.5110 29.7382 2.1602
45.5310 29.7248 2.1542
45.5510 29.7115 2.1478
45.5710 29.6982 2.1405
45.5910 29.6849 2.1351
45.6110 29.6715 2.1280
45.6310 29.6582 2.1215
45.6510 29.6449 2.1154
45.6710 29.6316 2.1100
45.6910 29.6182 2.1033
45.7110 29.6049 2.0986
45.7310 29.5916 2.0923
45.7510 29.5783 2.0870
45.7710 29.5650 2.0809
45.7910 29.5516 2.0762
45.8110 29.5382 2.0690
45.8310 29.5249 2.0660
45.8510 29.5116 2.0591
45.8710 29.4982 2.0549
45.8910 29.4849 2.0497
45.9110 29.4715 2.0453
45.9310 29.4582 2.0395
45.9510 29.4449 2.0354
45.9710 29.4315 2.0308
45.9910 29.4182 2.0244
46.0110 29.4048 2.0220
46.0310 29.3915 2.0157
46.0510 29.3782 2.0132
46.0710 29.3649 2.0064
46.0910 29.3516 2.0050
46.1110 29.3383 1.9968
46.1310 29.3249 1.9962
46.1510 29.3116 1.9892
46.1710 29.2982 1.9866
46.1910 29.2849 1.9808
46.2110 29.2716 1.9785
46.2310 29.2582 1.9726
46.2510 29.2448 1.9712
46.2710 29.2315 1.9649
46.2910 29.2182 1.9619
46.3110 29.2048 1.9573
46.3310 29.1915 1.9541
46.3510 29.1781 1.9486
46.3710 29.1648 1.9469
46.3910 29.1515 1.9425
46.4110 29.1382 1.9379
46.4310 29.1249 1.9362
46.4510 29.1116 1.9311
46.4710 29.0983 1.9286
46.4910 29.0850 1.9232
46.5110 29.0717 1.9218
46.5310 29.0583 1.9156
46.5510 29.0449 1.9146
46.5710 29.0315 1.9091
46.5910 29.0181 1.9079
46.6110 29.0048 1.9020
46.6310 28.9914 1.9013
46.6510 28.9781 1.8948
46.6710 28.9648 1.8938
46.6910 28.9515 1.8900
46.7110 28.9381 1.8863
46.7310 28.9248 1.8839
46.7510 28.9115 1.8794
46.7710 28.8982 1.8777
46.7910 28.8849 1.8729
46.8110 28.8715 1.8721
46.8310 28.8583 1.8659
46.8510 28.8449 1.8660
46.8710 28.8316 1.8604
46.8910 28.8183 1.8594
46.9110 28.8049 1.8547
46.9310 28.7916 1.8539
46.9510 28.7782 1.8477
46.9710 28.7648 1.8475
46.9910 28.7514 1.8433
47.0110 28.7381 1.8405
47.0310 28.7248 1.8380
47.0510 28.7115 1.8346
47.0710 28.6981 1.8329
47.0910 28.6849 1.8287
47.1110 28.6716 1.8272
47.1310 28.6582 1.8230
47.1510 28.6449 1.8211
47.1710 28.6316 1.8180
47.1910 28.6183 1.8157
47.2110 28.6049 1.8116
47.2310 28.5916 1.8112
47.2510 28.5782 1.8060
47.2710 28.5649 1.8056
47.2910 28.5516 1.8013
47.3110 28.5382 1.7996
47.3310 28.5248 1.7961
47.3510 28.5115 1.7944
47.3710 28.4982 1.7904
47.3910 28.4849 1.7896
47.4110 28.4715 1.7858
47.4310 28.4582 1.7845
47.4510 28.4448 1.7807
47.4710 28.4315 1.7788
47.4910 28.4182 1.7770
47.5110 28.4048 1.7728
47.5310 28.3915 1.7728
47.5510 28.3782 1.7674
47.5710 28.3649 1.7679
47.5910 28.3516 1.7630
47.6110 28.3382 1.7629
47.6310 28.3249 1.7576
47.6510 28.3116 1.7587
47.6710 28.2982 1.7526
47.6910 28.2848 1.7530
47.7110 28.2715 1.7498
47.7310 28.2582 1.7464
47.7510 28.2449 1.7455
47.7710 28.2315 1.7425
47.7910 28.2182 1.7405
47.8110 28.2048 1.7374
47.8310 28.1915 1.7371
47.8510 28.1782 1.7323
47.8710 28.1648 1.7335
47.8910 28.1515 1.7274
47.9110 28.1382 1.7280
47.9310 28.1249 1.7235
47.9510 28.1115 1.7233
47.9710 28.0982 1.7195
47.9910 28.0849 1.7188
48.0110 28.0716 1.7151
48.0310 28.0582 1.7146
48.0510 28.0449 1.7105
48.0710 28.0315 1.7101
48.0910 28.0182 1.7070
48.1110 28.0049 1.7045
48.1310 27.9915 1.7037
48.1510 27.9781 1.7006
48.1710 27.9648 1.6983
48.1910 27.9515 1.6967
48.2110 27.9382 1.6947
48.2310 27.9249 1.6917
48.2510 27.9115 1.6922
48.2710 27.8982 1.6861
48.2910 27.8849 1.6880
48.3110 27.8716 1.6833
48.3310 27.8582 1.6833
48.3510 27.8449 1.6795
48.3710 27.8316 1.6788
48.3910 27.8182 1.6755
48.4110 27.8048 1.6757
48.4310 27.7915 1.6713
48.4510 27.7781 1.6716
48.4710 27.7648 1.6676
48.4910 27.7515 1.6661
48.5110 27.7382 1.6651
48.5310 27.7248 1.6621
48.5510 27.7115 1.6618
48.5710 27.6982 1.6579
48.5910 27.6849 1.6577
48.6110 27.6716 1.6544
48.6310 27.6583 1.6542
48.6510 27.6450 1.6491
48.6710 27.6316 1.6509
48.6910 27.6182 1.6463
48.7110 27.6049 1.6463
48.7310 27.5915 1.6427
48.7510 27.5782 1.6431
48.7710 27.5648 1.6386
48.7910 27.5515 1.6396
48.8110 27.5382 1.6347
48.8310 27.5248 1.6352
48.8510 27.5115 1.6320
48.8710 27.4982 1.6309
48.8910 27.4848 1.6276
48.9110 27.4715 1.6275
48.9310 27.4582 1.6253
48.9510 27.4449 1.6230
48.9710 27.4315 1.6223
48.9910 27.4182 1.6198
49.0110 27.4049 1.6179
49.0310 27.3916 1.6154
49.0510 27.3782 1.6155
49.0710 27.3649 1.6110
49.0910 27.3515 1.6125
49.1110 27.3382 1.6079
49.1310 27.3249 1.6081
49.1510 27.3115 1.6054
49.1710 27.2982 1.6041
49.1910 27.2849 1.6009
49.2110 27.2715 1.6009
49.2310 27.2581 1.5988
49.2510 27.2448 1.5965
49.2710 27.2315 1.5958
49.2910 27.2182 1.5931
49.3110 27.2049 1.5922
49.3310 27.1915 1.5902
49.3510 27.1782 1.5895
49.3710 27.1649 1.5851
49.3910 27.1516 1.5869
49.4110 27.1382 1.5822
49.4310 27.1248 1.5836
49.4510 27.1115 1.5788
49.4710 27.0982 1.5801
49.4910 27.0849 1.5750
49.5110 27.0715 1.5763
49.5310 27.0582 1.5731
49.5510 27.0449 1.5722
49.5710 27.0315 1.5698
49.5910 27.0182 1.5691
49.6110 27.0048 1.5665
49.6310 26.9915 1.5660
49.6510 26.9782 1.5637
49.6710 26.9649 1.5623
49.6910 26.9515 1.5612
49.7110 26.9382 1.5592
49.7310 26.9249 1.5577
49.7510 26.9116 1.5555
49.7710 26.8982 1.5551
49.7910 26.8849 1.5528
49.8110 26.8716 1.5513
49.8310 26.8582 1.5498
49.8510 26.8449 1.5481
49.8710 26.8315 1.5465
49.8910 26.8182 1.5452
49.9110 26.8048 1.5424
49.9310 26.7915 1.5422
49.9510 26.7781 1.5401
49.9710 26.7648 1.5389
49.9910 26.7515 1.5370
50.0110 26.7382 1.5364
50.0310 26.7249 1.5337
50.0510 26.7115 1.5323
50.0710 26.6982 1.5325
50.0910 26.6849 1.5286
50.1110 26.6716 1.5289
50.1310 26.6582 1.5265
50.1510 26.6449 1.5262
50.1710 26.6316 1.5229
50.1910 26.6182 1.5231
50.2110 26.6049 1.5195
50.2310 26.5915 1.5199
50.2510 26.5781 1.5168
50.2710 26.5648 1.5167
50.2910 26.5515 1.5146
50.3110 26.5381 1.5134
50.3310 26.5248 1.5122
50.3510 26.5115 1.5098
50.3710 26.4982 1.5102
50.3910 26.4849 1.5065
50.4110 26.4715 1.5070
50.4310 26.4582 1.5036
50.4510 26.4449 1.5039
50.4710 26.4316 1.5006
50.4910 26.4182 1.5013
50.5110 26.4049 1.4976
50.5310 26.3916 1.4985
50.5510 26.3782 1.4952
50.5710 26.3649 1.4958
50.5910 26.3515 1.4923
50.6110 26.3382 1.4928
50.6310 26.3248 1.4897
50.6510 26.3115 1.4895
50.6710 26.2981 1.4874
50.6910 26.2848 1.4865
50.7110 26.2715 1.4843
50.7310 26.2582 1.4838
50.7510 26.2449 1.4819
50.7710 26.2315 1.4804
50.7910 26.2182 1.4802
50.8110 26.2049 1.4771
50.8310 26.1916 1.4771
50.8510 26.1782 1.4744
50.8710 26.1649 1.4749
50.8910 26.1515 1.4707
50.9110 26.1382 1.4724
50.9310 26.1249 1.4680
50.9510 26.1115 1.4693
50.9710 26.0982 1.4661
50.9910 26.0849 1.4658
51.0110 26.0716 1.4630
51.0310 26.0582 1.4632
51.0510 26.0448 1.4612
51.0710 26.0315 1.4596
51.0910 26.0182 1.4598
51.1110 26.0049 1.4555
51.1310 25.9915 1.4574
51.1510 25.9782 1.4529
51.1710 25.9649 1.4551
51.1910 25.9516 1.4497
51.2110 25.9382 1.4531
51.2310 25.9249 1.4466
51.2510 25.9116 1.4496
51.2710 25.8983 1.4445
51.2910 25.8849 1.4467
51.3110 25.8715 1.4424
51.3310 25.8582 1.4438
51.3510 25.8449 1.4407
51.3710 25.8315 1.4396
51.3910 25.8182 1.4391
51.4110 25.8048 1.4370
51.4310 25.7915 1.4358
51.4510 25.7782 1.4343
51.4710 25.7649 1.4335
51.4910 25.7515 1.4312
51.5110 25.7382 1.4318
51.5310 25.7249 1.4284
51.5510 25.7116 1.4282
51.5710 25.6982 1.4260
51.5910 25.6849 1.4267
51.6110 25.6716 1.4229
51.6310 25.6583 1.4244
51.6510 25.6449 1.4207
51.6710 25.6315 1.4206
51.6910 25.6182 1.4190
51.7110 25.6048 1.4183
51.7310 25.5915 1.4158
51.7510 25.5781 1.4165
51.7710 25.5648 1.4133
51.7910 25.5515 1.4131
51.8110 25.5382 1.4112
51.8310 25.5248 1.4104
51.8510 25.5115 1.4093
51.8710 25.4982 1.4068
51.8910 25.4849 1.4081
51.9110 25.4716 1.4023
51.9310 25.4583 1.4064
51.9510 25.4449 1.4011
51.9710 25.4316 1.4026
51.9910 25.4183 1.3989
52.0110 25.4049 1.4003
52.0310 25.3916 1.3957
52.0510 25.3782 1.3979
52.0710 25.3648 1.3936
52.0910 25.3515 1.3947
52.1110 25.3381 1.3921
52.1310 25.3248 1.3914
52.1510 25.3115 1.3904
52.1710 25.2982 1.3891
52.1910 25.2849 1.3886
52.2110 25.2715 1.3857
52.2310 25.2582 1.3868
52.2510 25.2449 1.3835
52.2710 25.2316 1.3830
52.2910 25.2182 1.3820
52.3110 25.2049 1.3813
52.3310 25.1915 1.3787
52.3510 25.1782 1.3783
52.3710 25.1649 1.3771
52.3910 25.1515 1.3760
52.4110 25.1381 1.3750
52.4310 25.1248 1.3741
52.4510 25.1115 1.3717
52.4710 25.0981 1.3712
52.4910 25.0848 1.3710
52.5110 25.0715 1.3677
52.5310 25.0582 1.3693
52.5510 25.0449 1.3659
52.5710 25.0315 1.3663
52.5910 25.0182 1.3637
52.6110 25.0049 1.3638
52.6310 24.9916 1.3611
52.6510 24.9783 1.3617
52.6710 24.9649 1.3591
52.6910 24.9515 1.3595
52.7110 24.9382 1.3566
52.7310 24.9249 1.3573
52.7510 24.9115 1.3535
52.7710 24.8981 1.3553
52.7910 24.8848 1.3523
52.8110 24.8715 1.3518
52.8310 24.8582 1.3505
52.8510 24.8448 1.3500
52.8710 24.8315 1.3478
52.8910 24.8182 1.3473
52.9110 24.8049 1.3463
52.9310 24.7915 1.3449
52.9510 24.7782 1.3447
52.9710 24.7649 1.3422
52.9910 24.7516 1.3416
53.0110 24.7382 1.3405
53.0310 24.7249 1.3402
53.0510 24.7115 1.3374
53.0710 24.6982 1.3381
53.0910 24.6849 1.3358
53.1110 24.6715 1.3348
53.1310 24.6581 1.3343
53.1510 24.6448 1.3334
53.1710 24.6315 1.3312
53.1910 24.6182 1.3306
53.2110 24.6048 1.3302
53.2310 24.5915 1.3280
53.2510 24.5782 1.3278
53.2710 24.5648 1.3267
53.2910 24.5515 1.3253
53.3110 24.5382 1.3241
53.3310 24.5249 1.3234
53.3510 24.5116 1.3214
53.3710 24.4982 1.3219
53.3910 24.4849 1.3189
53.4110 24.4716 1.3197
53.4310 24.4583 1.3161
53.4510 24.4450 1.3185
53.4710 24.4316 1.3132
53.4910 24.4182 1.3162
53.5110 24.4048 1.3122
53.5310 24.3915 1.3127
53.5510 24.3781 1.3101
53.5710 24.3648 1.3115
53.5910 24.3514 1.3079
53.6110 24.3381 1.3094
53.6310 24.3249 1.3063
53.6510 24.3115 1.3062
53.6710 24.2982 1.3053
53.6910 24.2849 1.3036
53.7110 24.2716 1.3031
53.7310 24.2583 1.3013
53.7510 24.2449 1.3020
53.7710 24.2315 1.2982
53.7910 24.2182 1.2992
53.8110 24.2049 1.2977
53.8310 24.1915 1.2965
53.8510 24.1781 1.2956
53.8710 24.1648 1.2949
53.8910 24.1515 1.2927
53.9110 24.1382 1.2929
53.9310 24.1248 1.2912
53.9510 24.1115 1.2909
53.9710 24.0982 1.2892
53.9910 24.0849 1.2883
54.0110 24.0715 1.2870
54.0310 24.0582 1.2863
54.0510 24.0449 1.2863
54.0710 24.0316 1.2837
54.0910 24.0183 1.2839
54.1110 24.0049 1.2821
54.1310 23.9916 1.2809
54.1510 23.9782 1.2797
54.1710 23.9649 1.2802
54.1910 23.9515 1.2770
54.2110 23.9381 1.2782
54.2310 23.9248 1.2753
54.2510 23.9115 1.2767
54.2710 23.8982 1.2727
54.2910 23.8848 1.2749
54.3110 23.8715 1.2710
54.3310 23.8582 1.2721
54.3510 23.8449 1.2702
54.3710 23.8316 1.2693
54.3910 23.8182 1.2683
54.4110 23.8049 1.2673
54.4310 23.7916 1.2665
54.4510 23.7783 1.2648
54.4710 23.7649 1.2656
54.4910 23.7515 1.2628
54.5110 23.7382 1.2631
54.5310 23.7249 1.2608
54.5510 23.7115 1.2616
54.5710 23.6982 1.2578
54.5910 23.6848 1.2604
54.6110 23.6715 1.2556
54.6310 23.6582 1.2569
54.6510 23.6448 1.2562
54.6710 23.6315 1.2533
54.6910 23.6182 1.2545
54.7110 23.6049 1.2523
54.7310 23.5915 1.2519
54.7510 23.5782 1.2505
54.7710 23.5649 1.2501
54.7910 23.5516 1.2481
54.8110 23.5383 1.2479
54.8310 23.5249 1.2460
54.8510 23.5115 1.2474
54.8710 23.4982 1.2433
54.8910 23.4849 1.2452
54.9110 23.4715 1.2416
54.9310 23.4581 1.2426
54.9510 23.4448 1.2408
54.9710 23.4315 1.2403
54.9910 23.4182 1.2381
55.0110 23.4048 1.2393
55.0310 23.3915 1.2364
55.0510 23.3782 1.2362
55.0710 23.3649 1.2358
55.0910 23.3515 1.2341
55.1110 23.3382 1.2343
55.1310 23.3249 1.2323
55.1510 23.3116 1.2319
55.1710 23.2983 1.2293
55.1910 23.2849 1.2319
55.2110 23.2715 1.2266
55.2310 23.2582 1.2297
55.2510 23.2449 1.2251
55.2710 23.2315 1.2274
55.2910 23.2182 1.2229
55.3110 23.2048 1.2266
55.3310 23.1915 1.2211
55.3510 23.1782 1.2234
55.3710 23.1648 1.2201
55.3910 23.1515 1.2209
55.4110 23.1382 1.2194
55.4310 23.1249 1.2179
55.4510 23.1115 1.2180
55.4710 23.0982 1.2153
55.4910 23.0849 1.2177
55.5110 23.0716 1.2134
55.5310 23.0583 1.2151
55.5510 23.0449 1.2112
55.5710 23.0315 1.2147
55.5910 23.0182 1.2080
55.6110 23.0049 1.2128
55.6310 22.9916 1.2079
55.6510 22.9782 1.2086
55.6710 22.9648 1.2074
55.6910 22.9515 1.2062
55.7110 22.9382 1.2055
55.7310 22.9248 1.2050
55.7510 22.9115 1.2038
55.7710 22.8982 1.2023
55.7910 22.8849 1.2033
55.8110 22.8716 1.2000
55.8310 22.8582 1.2009
55.8510 22.8449 1.1990
55.8710 22.8316 1.1984
55.8910 22.8183 1.1960
55.9110 22.8049 1.1982
55.9310 22.7915 1.1944
55.9510 22.7782 1.1961
55.9710 22.7649 1.1927
55.9910 22.7515 1.1939
56.0110 22.7381 1.1909
56.0310 22.7248 1.1929
56.0510 22.7115 1.1897
56.0710 22.6982 1.1901
56.0910 22.6848 1.1875
56.1110 22.6715 1.1892
56.1310 22.6582 1.1857
56.1510 22.6449 1.1866
56.1710 22.6315 1.1855
56.1910 22.6182 1.1822
56.2110 22.6049 1.1848
56.2310 22.5916 1.1812
56.2510 22.5782 1.1819
56.2710 22.5649 1.1795
56.2910 22.5515 1.1815
56.3110 22.5382 1.1770
56.3310 22.5249 1.1793
56.3510 22.5115 1.1758
56.3710 22.4982 1.1767
56.3910 22.4848 1.1748
56.4110 22.4715 1.1751
56.4310 22.4582 1.1722
56.4510 22.4448 1.1735
56.4710 22.4315 1.1716
56.4910 22.4182 1.1700
56.5110 22.4049 1.1713
56.5310 22.3916 1.1682
56.5510 22.3782 1.1687
56.5710 22.3649 1.1666
56.5910 22.3516 1.1679
56.6110 22.3382 1.1640
56.6310 22.3249 1.1663
56.6510 22.3115 1.1632
56.6710 22.2982 1.1631
56.6910 22.2849 1.1618
56.7110 22.2715 1.1622
56.7310 22.2582 1.1593
56.7510 22.2448 1.1612
56.7710 22.2315 1.1579
56.7910 22.2182 1.1576
56.8110 22.2049 1.1570
56.8310 22.1915 1.1571
56.8510 22.1782 1.1548
56.8710 22.1649 1.1548
56.8910 22.1515 1.1538
56.9110 22.1382 1.1528
56.9310 22.1249 1.1525
56.9510 22.1116 1.1515
56.9710 22.0983 1.1506
56.9910 22.0849 1.1489
57.0110 22.0716 1.1499
57.0310 22.0582 1.1465
57.0510 22.0449 1.1485
57.0710 22.0316 1.1450
57.0910 22.0182 1.1461
57.1110 22.0048 1.1434
57.1310 21.9915 1.1452
57.1510 21.9782 1.1416
57.1710 21.9648 1.1427
57.1910 21.9515 1.1410
57.2110 21.9381 1.1403
57.2310 21.9248 1.1399
57.2510 21.9115 1.1388
57.2710 21.8982 1.1375
57.2910 21.8848 1.1368
57.3110 21.8715 1.1373
57.3310 21.8582 1.1336
57.3510 21.8449 1.1364
57.3710 21.8315 1.1328
57.3910 21.8182 1.1332
57.4110 21.8049 1.1310
57.4310 21.7916 1.1322
57.4510 21.7782 1.1293
57.4710 21.7648 1.1303
57.4910 21.7515 1.1283
57.5110 21.7381 1.1279
57.5310 21.7248 1.1267
57.5510 21.7115 1.1273
57.5710 21.6981 1.1245
57.5910 21.6848 1.1257
57.6110 21.6715 1.1235
57.6310 21.6582 1.1234
57.6510 21.6449 1.1220
57.6710 21.6316 1.1219
57.6910 21.6183 1.1194
57.7110 21.6049 1.1197
57.7310 21.5915 1.1198
57.7510 21.5782 1.1175
57.7710 21.5649 1.1180
57.7910 21.5515 1.1162
57.8110 21.5382 1.1155
57.8310 21.5248 1.1148
57.8510 21.5115 1.1149
57.8710 21.4982 1.1119
57.8910 21.4848 1.1129
57.9110 21.4715 1.1118
57.9310 21.4582 1.1107
57.9510 21.4449 1.1109
57.9710 21.4315 1.1088
57.9910 21.4182 1.1091
58.0110 21.4049 1.1066
58.0310 21.3916 1.1087
58.0510 21.3782 1.1040
58.0710 21.3649 1.1080
58.0910 21.3515 1.1027
58.1110 21.3382 1.1052
58.1310 21.3249 1.1016
58.1510 21.3116 1.1038
58.1710 21.2982 1.1002
58.1910 21.2848 1.1007
58.2110 21.2715 1.1000
58.2310 21.2582 1.0981
58.2510 21.2449 1.0982
58.2710 21.2315 1.0981
58.2910 21.2182 1.0961
58.3110 21.2049 1.0956
58.3310 21.1915 1.0955
58.3510 21.1782 1.0930
58.3710 21.1648 1.0945
58.3910 21.1515 1.0925
58.4110 21.1382 1.0921
58.4310 21.1249 1.0903
58.4510 21.1115 1.0910
58.4710 21.0982 1.0881
58.4910 21.0849 1.0894
58.5110 21.0716 1.0869
58.5310 21.0582 1.0873
58.5510 21.0448 1.0847
58.5710 21.0315 1.0875
58.5910 21.0182 1.0825
58.6110 21.0049 1.0848
58.6310 20.9915 1.0824
58.6510 20.9781 1.0823
58.6710 20.9648 1.0810
58.6910 20.9515 1.0815
58.7110 20.9382 1.0799
58.7310 20.9249 1.0792
58.7510 20.9115 1.0790
58.7710 20.8982 1.0770
58.7910 20.8849 1.0770
58.8110 20.8715 1.0762
58.8310 20.8582 1.0758
58.8510 20.8449 1.0733
58.8710 20.8316 1.0754
58.8910 20.8182 1.0710
58.9110 20.8048 1.0736
58.9310 20.7915 1.0709
58.9510 20.7782 1.0708
58.9710 20.7649 1.0696
58.9910 20.7515 1.0695
59.0110 20.7381 1.0683
59.0310 20.7248 1.0670
59.0510 20.7115 1.0683
59.0710 20.6982 1.0652
59.0910 20.6848 1.0657
59.1110 20.6715 1.0642
59.1310 20.6583 1.0647
59.1510 20.6449 1.0614
59.1710 20.6316 1.0644
59.1910 20.6182 1.0596
59.2110 20.6049 1.0621
59.2310 20.5916 1.0586
59.2510 20.5782 1.0601
59.2710 20.5648 1.0567
59.2910 20.5515 1.0593
59.3110 20.5381 1.0554
59.3310 20.5248 1.0566
59.3510 20.5115 1.0546
59.3710 20.4981 1.0555
59.3910 20.4848 1.0525
59.4110 20.4715 1.0549
59.4310 20.4582 1.0514
59.4510 20.4449 1.0519
59.4710 20.4316 1.0513
59.4910 20.4183 1.0493
59.5110 20.4050 1.0500
59.5310 20.3916 1.0483
59.5510 20.3782 1.0490
59.5710 20.3649 1.0455
59.5910 20.3515 1.0478
59.6110 20.3382 1.0439
59.6310 20.3248 1.0462
59.6510 20.3115 1.0430
59.6710 20.2982 1.0439
59.6910 20.2848 1.0411
59.7110 20.2715 1.0427
59.7310 20.2581 1.0408
59.7510 20.2448 1.0399
59.7710 20.2315 1.0405
59.7910 20.2182 1.0378
59.8110 20.2049 1.0389
59.8310 20.1916 1.0370
59.8510 20.1783 1.0375
59.8710 20.1649 1.0337
59.8910 20.1516 1.0375
59.9110 20.1382 1.0330
59.9310 20.1249 1.0349
59.9510 20.1115 1.0318
59.9710 20.0982 1.0328
59.9910 20.0848 1.0309
60.0110 20.0715 1.0318
60.0310 20.0582 1.0289
60.0510 20.0448 1.0297
60.0710 20.0315 1.0280
60.0910 20.0181 1.0285
60.1110 20.0048 1.0265
60.1310 19.9915 1.0271
60.1510 19.9782 1.0252
60.1710 19.9649 1.0244
60.1910 19.9515 1.0250
60.2110 19.9383 1.0227
60.2310 19.9249 1.0235
60.2510 19.9116 1.0207
60.2710 19.8982 1.0228
60.2910 19.8849 1.0179
60.3110 19.8716 1.0219
60.3310 19.8582 1.0171
60.3510 19.8448 1.0194
60.3710 19.8315 1.0168
60.3910 19.8181 1.0182
60.4110 19.8048 1.0145
60.4310 19.7915 1.0170
60.4510 19.7781 1.0137
60.4710 19.7648 1.0145
60.4910 19.7515 1.0133
60.5110 19.7382 1.0122
60.5310 19.7249 1.0121
60.5510 19.7116 1.0107
60.5710 19.6983 1.0112
60.5910 19.6849 1.0082
60.6110 19.6716 1.0103
60.6310 19.6582 1.0074
60.6510 19.6449 1.0076
60.6710 19.6316 1.0054
60.6910 19.6183 1.0072
60.7110 19.6049 1.0041
60.7310 19.5915 1.0060
60.7510 19.5782 1.0026
60.7710 19.5648 1.0032
60.7910 19.5515 1.0024
60.8110 19.5381 1.0023
60.8310 19.5248 1.0012
60.8510 19.5115 1.0006
60.8710 19.4982 0.9999
60.8910 19.4849 0.9982
60.9110 19.4715 0.9993
60.9310 19.4583 0.9977
60.9510 19.4450 0.9964
60.9710 19.4316 0.9963
60.9910 19.4182 0.9966
61.0110 19.4049 0.9934
61.0310 19.3916 0.9953
61.0510 19.3782 0.9924
61.0710 19.3649 0.9933
61.0910 19.3515 0.9914
61.1110 19.3382 0.9922
61.1310 19.3248 0.9888
61.1510 19.3115 0.9911
61.1710 19.2981 0.9885
61.1910 19.2848 0.9884
61.2110 19.2715 0.9868
61.2310 19.2582 0.9879
61.2510 19.2448 0.9856
61.2710 19.2315 0.9859
61.2910 19.2182 0.9855
61.3110 19.2049 0.9828
61.3310 19.1916 0.9842
61.3510 19.1782 0.9814
61.3710 19.1649 0.9830
61.3910 19.1516 0.9798
61.4110 19.1382 0.9816
61.4310 19.1248 0.9776
61.4510 19.1114 0.9802
61.4710 19.0981 0.9783
61.4910 19.0848 0.9768
61.5110 19.0715 0.9766
61.5310 19.0581 0.9763
61.5510 19.0448 0.9753
61.5710 19.0316 0.9747
61.5910 19.0183 0.9749
61.6110 19.0049 0.9728
61.6310 18.9915 0.9738
61.6510 18.9782 0.9710
61.6710 18.9649 0.9719
61.6910 18.9516 0.9699
61.7110 18.9382 0.9711
61.7310 18.9249 0.9680
61.7510 18.9116 0.9691
61.7710 18.8982 0.9674
61.7910 18.8848 0.9670
61.8110 18.8715 0.9662
61.8310 18.8582 0.9663
61.8510 18.8449 0.9644
61.8710 18.8315 0.9650
61.8910 18.8181 0.9633
61.9110 18.8048 0.9632
61.9310 18.7915 0.9619
61.9510 18.7782 0.9623
61.9710 18.7649 0.9600
61.9910 18.7515 0.9604
62.0110 18.7382 0.9602
62.0310 18.7249 0.9580
62.0510 18.7116 0.9592
62.0710 18.6982 0.9566
62.0910 18.6849 0.9578
62.1110 18.6716 0.9548
62.1310 18.6582 0.9570
62.1510 18.6449 0.9532
62.1710 18.6315 0.9550
62.1910 18.6182 0.9529
62.2110 18.6048 0.9530
62.2310 18.5915 0.9517
62.2510 18.5781 0.9521
62.2710 18.5648 0.9505
62.2910 18.5515 0.9491
62.3110 18.5382 0.9511
62.3310 18.5248 0.9467
62.3510 18.5115 0.9501
62.3710 18.4982 0.9455
62.3910 18.4849 0.9479
62.4110 18.4716 0.9441
62.4310 18.4582 0.9470
62.4510 18.4449 0.9431
62.4710 18.4316 0.9451
62.4910 18.4182 0.9423
62.5110 18.4049 0.9429
62.5310 18.3915 0.9406
62.5510 18.3782 0.9423
62.5710 18.3649 0.9385
62.5910 18.3515 0.9410
62.6110 18.3382 0.9377
62.6310 18.3248 0.9394
62.6510 18.3115 0.9362
62.6710 18.2982 0.9386
62.6910 18.2849 0.9351
62.7110 18.2715 0.9360
62.7310 18.2582 0.9354
62.7510 18.2449 0.9339
62.7710 18.2316 0.9336
62.7910 18.2182 0.9329
62.8110 18.2049 0.9325
62.8310 18.1916 0.9306
62.8510 18.1782 0.9323
62.8710 18.1649 0.9287
62.8910 18.1515 0.9309
62.9110 18.1381 0.9278
62.9310 18.1248 0.9293
62.9510 18.1115 0.9260
62.9710 18.0982 0.9286
62.9910 18.0848 0.9253
63.0110 18.0715 0.9255
63.0310 18.0582 0.9258
63.0510 18.0449 0.9236
63.0710 18.0316 0.9238
63.0910 18.0183 0.9225
63.1110 18.0050 0.9229
63.1310 17.9916 0.9201
63.1510 17.9782 0.9225
63.1710 17.9649 0.9184
63.1910 17.9516 0.9209
63.2110 17.9382 0.9173
63.2310 17.9248 0.9186
63.2510 17.9115 0.9159
63.2710 17.8981 0.9180
63.2910 17.8848 0.9151
63.3110 17.8715 0.9156
63.3310 17.8582 0.9152
63.3510 17.8448 0.9134
63.3710 17.8315 0.9133
63.3910 17.8182 0.9137
63.4110 17.8049 0.9110
63.4310 17.7915 0.9120
63.4510 17.7782 0.9107
63.4710 17.7649 0.9102
63.4910 17.7516 0.9094
63.5110 17.7382 0.9090
63.5310 17.7249 0.9089
63.5510 17.7115 0.9059
63.5710 17.6982 0.9086
63.5910 17.6849 0.9047
63.6110 17.6715 0.9068
63.6310 17.6582 0.9038
63.6510 17.6449 0.9049
63.6710 17.6315 0.9018
63.6910 17.6182 0.9048
63.7110 17.6048 0.9006
63.7310 17.5915 0.9029
63.7510 17.5782 0.8999
63.7710 17.5649 0.9007
63.7910 17.5515 0.8989
63.8110 17.5382 0.8991
63.8310 17.5249 0.8983
63.8510 17.5116 0.8958
63.8710 17.4982 0.8981
63.8910 17.4848 0.8949
63.9110 17.4715 0.8958
63.9310 17.4582 0.8945
63.9510 17.4449 0.8945
63.9710 17.4315 0.8925
63.9910 17.4182 0.8933
64.0110 17.4049 0.8915
64.0310 17.3915 0.8914
64.0510 17.3782 0.8910
64.0710 17.3648 0.8898
64.0910 17.3515 0.8892
64.1110 17.3382 0.8888
64.1310 17.3248 0.8887
64.1510 17.3115 0.8866
64.1710 17.2982 0.8885
64.1910 17.2849 0.8855
64.2110 17.2716 0.8864
64.2310 17.2582 0.8849
64.2510 17.2449 0.8848
64.2710 17.2316 0.8825
64.2910 17.2182 0.8840
64.3110 17.2049 0.8815
64.3310 17.1915 0.8826
64.3510 17.1782 0.8802
64.3710 17.1648 0.8816
64.3910 17.1515 0.8783
64.4110 17.1381 0.8811
64.4310 17.1248 0.8774
64.4510 17.1115 0.8791
64.4710 17.0982 0.8761
64.4910 17.0848 0.8776
64.5110 17.0715 0.8749
64.5310 17.0582 0.8763
64.5510 17.0449 0.8743
64.5710 17.0316 0.8737
64.5910 17.0182 0.8742
64.6110 17.0049 0.8723
64.6310 16.9916 0.8729
64.6510 16.9783 0.8701
64.6710 16.9649 0.8721
64.6910 16.9515 0.8678
64.7110 16.9382 0.8716
64.7310 16.9248 0.8671
64.7510 16.9115 0.8688
64.7710 16.8982 0.8673
64.7910 16.8848 0.8674
64.8110 16.8715 0.8652
64.8310 16.8582 0.8658
64.8510 16.8449 0.8655
64.8710 16.8315 0.8632
64.8910 16.8182 0.8647
64.9110 16.8049 0.8624
64.9310 16.7916 0.8628
64.9510 16.7783 0.8608
64.9710 16.7649 0.8625
64.9910 16.7516 0.8587
65.0110 16.7382 0.8618
65.0310 16.7249 0.8574
65.0510 16.7115 0.8597
65.0710 16.6982 0.8560
65.0910 16.6848 0.8594
65.1110 16.6715 0.8540
65.1310 16.6582 0.8578
65.1510 16.6448 0.8547
65.1710 16.6315 0.8546
65.1910 16.6182 0.8539
65.2110 16.6048 0.8533
65.2310 16.5915 0.8524
65.2510 16.5782 0.8525
65.2710 16.5649 0.8516
65.2910 16.5516 0.8494
65.3110 16.5382 0.8517
65.3310 16.5248 0.8487
65.3510 16.5115 0.8498
65.3710 16.4982 0.8467
65.3910 16.4849 0.8494
65.4110 16.4715 0.8443
65.4310 16.4581 0.8488
65.4510 16.4449 0.8437
65.4710 16.4315 0.8460
65.4910 16.4182 0.8437
65.5110 16.4048 0.8452
65.5310 16.3915 0.8421
65.5510 16.3782 0.8433
65.5710 16.3649 0.8412
65.5910 16.3515 0.8416
65.6110 16.3382 0.8409
65.6310 16.3249 0.8400
65.6510 16.3116 0.8396
65.6710 16.2982 0.8371
65.6910 16.2849 0.8398
65.7110 16.2716 0.8347
65.7310 16.2582 0.8389
65.7510 16.2449 0.8340
65.7710 16.2315 0.8367
65.7910 16.2182 0.8334
65.8110 16.2048 0.8355
65.8310 16.1915 0.8313
65.8510 16.1781 0.8342
65.8710 16.1648 0.8309
65.8910 16.1515 0.8323
65.9110 16.1382 0.8299
65.9310 16.1249 0.8312
65.9510 16.1115 0.8291
65.9710 16.0982 0.8295
65.9910 16.0849 0.8286
66.0110 16.0716 0.8262
66.0310 16.0582 0.8283
66.0510 16.0449 0.8253
66.0710 16.0316 0.8265
66.0910 16.0182 0.8243
66.1110 16.0049 0.8256
66.1310 15.9915 0.8224
66.1510 15.9782 0.8245
66.1710 15.9649 0.8214
66.1910 15.9516 0.8228
66.2110 15.9382 0.8196
66.2310 15.9248 0.8225
66.2510 15.9114 0.8187
66.2710 15.8981 0.8204
66.2910 15.8848 0.8184
66.3110 15.8715 0.8179
66.3310 15.8582 0.8185
66.3510 15.8449 0.8169
66.3710 15.8316 0.8167
66.3910 15.8183 0.8153
66.4110 15.8049 0.8165
66.4310 15.7916 0.8133
66.4510 15.7783 0.8152
66.4710 15.7649 0.8123
66.4910 15.7515 0.8135
66.5110 15.7382 0.8108
66.5310 15.7248 0.8127
66.5510 15.7115 0.8095
66.5710 15.6982 0.8108
66.5910 15.6848 0.8094
66.6110 15.6715 0.8088
66.6310 15.6582 0.8081
66.6510 15.6449 0.8075
66.6710 15.6315 0.8071
66.6910 15.6182 0.8056
66.7110 15.6049 0.8068
66.7310 15.5916 0.8040
66.7510 15.5783 0.8053
66.7710 15.5649 0.8027
66.7910 15.5515 0.8038
66.8110 15.5382 0.8014
66.8310 15.5249 0.8029
66.8510 15.5115 0.7995
66.8710 15.4981 0.8017
66.8910 15.4848 0.7992
66.9110 15.4715 0.7999
66.9310 15.4581 0.7976
66.9510 15.4448 0.7993
66.9710 15.4315 0.7961
66.9910 15.4182 0.7972
67.0110 15.4049 0.7960
67.0310 15.3915 0.7955
67.0510 15.3782 0.7947
67.0710 15.3649 0.7946
67.0910 15.3516 0.7931
67.1110 15.3383 0.7923
67.1310 15.3249 0.7932
67.1510 15.3115 0.7907
67.1710 15.2982 0.7918
67.1910 15.2849 0.7889
67.2110 15.2715 0.7911
67.2310 15.2581 0.7875
67.2510 15.2448 0.7906
67.2710 15.2315 0.7860
67.2910 15.2182 0.7881
67.3110 15.2048 0.7865
67.3310 15.1915 0.7859
67.3510 15.1782 0.7853
67.3710 15.1649 0.7844
67.3910 15.1516 0.7843
67.4110 15.1382 0.7826
67.4310 15.1249 0.7842
67.4510 15.1116 0.7811
67.4710 15.0983 0.7826
67.4910 15.0849 0.7793
67.5110 15.0715 0.7820
67.5310 15.0582 0.7774
67.5510 15.0449 0.7804
67.5710 15.0315 0.7763
67.5910 15.0182 0.7789
67.6110 15.0048 0.7765
67.6310 14.9915 0.7768
67.6510 14.9782 0.7746
67.6710 14.9648 0.7761
67.6910 14.9515 0.7740
67.7110 14.9382 0.7740
67.7310 14.9249 0.7731
67.7510 14.9115 0.7736
67.7710 14.8982 0.7710
67.7910 14.8849 0.7723
67.8110 14.8716 0.7706
67.8310 14.8583 0.7701
67.8510 14.8449 0.7708
67.8710 14.8316 0.7684
67.8910 14.8183 0.7686
67.9110 14.8049 0.7668
67.9310 14.7916 0.7678
67.9510 14.7782 0.7656
67.9710 14.7648 0.7670
67.9910 14.7515 0.7639
68.0110 14.7381 0.7653
68.0310 14.7248 0.7630
68.0510 14.7114 0.7652
68.0710 14.6982 0.7607
68.0910 14.6849 0.7632
68.1110 14.6715 0.7607
68.1310 14.6582 0.7605
68.1510 14.6449 0.7609
68.1710 14.6316 0.7590
68.1910 14.6183 0.7593
68.2110 14.6049 0.7572
68.2310 14.5915 0.7590
68.2510 14.5782 0.7554
68.2710 14.5649 0.7574
68.2910 14.5515 0.7544
68.3110 14.5381 0.7558
68.3310 14.5248 0.7539
68.3510 14.5115 0.7550
68.3710 14.4982 0.7522
68.3910 14.4848 0.7533
68.4110 14.4715 0.7518
68.4310 14.4582 0.7514
68.4510 14.4449 0.7502
68.4710 14.4315 0.7496
68.4910 14.4182 0.7497
68.5110 14.4049 0.7487
68.5310 14.3916 0.7482
68.5510 14.3783 0.7465
68.5710 14.3649 0.7478
68.5910 14.3516 0.7461
68.6110 14.3382 0.7459
68.6310 14.3249 0.7437
68.6510 14.3115 0.7459
68.6710 14.2981 0.7422
68.6910 14.2848 0.7450
68.7110 14.2715 0.7407
68.7310 14.2582 0.7432
68.7510 14.2448 0.7405
68.7710 14.2315 0.7417
68.7910 14.2182 0.7387
68.8110 14.2049 0.7407
68.8310 14.1916 0.7385
68.8510 14.1782 0.7381
68.8710 14.1649 0.7378
68.8910 14.1516 0.7373
68.9110 14.1383 0.7359
68.9310 14.1249 0.7355
68.9510 14.1115 0.7361
68.9710 14.0982 0.7337
68.9910 14.0849 0.7344
69.0110 14.0715 0.7326
69.0310 14.0582 0.7331
69.0510 14.0448 0.7319
69.0710 14.0315 0.7323
69.0910 14.0182 0.7296
69.1110 14.0048 0.7306
69.1310 13.9915 0.7297
69.1510 13.9782 0.7282
69.1710 13.9649 0.7287
69.1910 13.9515 0.7273
69.2110 13.9382 0.7276
69.2310 13.9249 0.7265
69.2510 13.9116 0.7271
69.2710 13.8983 0.7237
69.2910 13.8849 0.7262
69.3110 13.8715 0.7232
69.3310 13.8582 0.7241
69.3510 13.8449 0.7219
69.3710 13.8315 0.7237
69.3910 13.8182 0.7197
69.4110 13.8048 0.7229
69.4310 13.7915 0.7196
69.4510 13.7782 0.7202
69.4710 13.7648 0.7182
69.4910 13.7515 0.7193
69.5110 13.7381 0.7163
69.5310 13.7248 0.7181
69.5510 13.7115 0.7159
69.5710 13.6982 0.7161
69.5910 13.6848 0.7142
69.6110 13.6715 0.7151
69.6310 13.6582 0.7128
69.6510 13.6449 0.7134
69.6710 13.6315 0.7136
69.6910 13.6182 0.7100
69.7110 13.6049 0.7122
69.7310 13.5916 0.7089
69.7510 13.5782 0.7111
69.7710 13.5648 0.7077
69.7910 13.5515 0.7107
69.8110 13.5382 0.7060
69.8310 13.5248 0.7082
69.8510 13.5115 0.7063
69.8710 13.4982 0.7064
69.8910 13.4849 0.7053
69.9110 13.4715 0.7054
69.9310 13.4582 0.7036
69.9510 13.4449 0.7035
69.9710 13.4316 0.7037
69.9910 13.4183 0.7010
70.0110 13.4049 0.7032
70.0310 13.3915 0.6994
70.0510 13.3782 0.7022
70.0710 13.3649 0.6977
70.0910 13.3516 0.7011
70.1110 13.3382 0.6961
70.1310 13.3248 0.7003
70.1510 13.3115 0.6947
70.1710 13.2982 0.6983
70.1910 13.2848 0.6935
70.2110 13.2715 0.6975
70.2310 13.2582 0.6927
70.2510 13.2449 0.6949
70.2710 13.2316 0.6927
70.2910 13.2182 0.6927
70.3110 13.2049 0.6928
70.3310 13.1916 0.6904
70.3510 13.1783 0.6920
70.3710 13.1649 0.6881
70.3910 13.1515 0.6914
70.4110 13.1382 0.6870
70.4310 13.1249 0.6895
70.4510 13.1115 0.6861
70.4710 13.0981 0.6891
70.4910 13.0848 0.6847
70.5110 13.0715 0.6877
70.5310 13.0582 0.6835
70.5510 13.0449 0.6862
70.5710 13.0315 0.6832
70.5910 13.0182 0.6844
70.6110 13.0049 0.6825
70.6310 12.9916 0.6824
70.6510 12.9782 0.6820
70.6710 12.9649 0.6802
70.6910 12.9516 0.6819
70.7110 12.9383 0.6784
70.7310 12.9249 0.6807
70.7510 12.9115 0.6772
70.7710 12.8982 0.6797
70.7910 12.8849 0.6748
70.8110 12.8715 0.6792
70.8310 12.8582 0.6731
70.8510 12.8448 0.6778
70.8710 12.8315 0.6726
70.8910 12.8182 0.6753
70.9110 12.8048 0.6721
70.9310 12.7915 0.6737
70.9510 12.7781 0.6722
70.9710 12.7648 0.6708
70.9910 12.7515 0.6717
71.0110 12.7382 0.6686
71.0310 12.7249 0.6710
71.0510 12.7116 0.6675
71.0710 12.6983 0.6695
71.0910 12.6849 0.6659
71.1110 12.6715 0.6687
71.1310 12.6582 0.6650
71.1510 12.6448 0.6671
71.1710 12.6315 0.6637
71.1910 12.6182 0.6658
71.2110 12.6048 0.6624
71.2310 12.5915 0.6646
71.2510 12.5782 0.6616
71.2710 12.5649 0.6630
71.2910 12.5515 0.6604
71.3110 12.5382 0.6619
71.3310 12.5249 0.6587
71.3510 12.5115 0.6607
71.3710 12.4982 0.6579
71.3910 12.4848 0.6582
71.4110 12.4716 0.6580
71.4310 12.4583 0.6562
71.4510 12.4449 0.6570
71.4710 12.4316 0.6547
71.4910 12.4182 0.6558
71.5110 12.4049 0.6528
71.5310 12.3916 0.6552
71.5510 12.3782 0.6513
71.5710 12.3648 0.6534
71.5910 12.3515 0.6505
71.6110 12.3382 0.6517
71.6310 12.3248 0.6498
71.6510 12.3115 0.6503
71.6710 12.2981 0.6496
71.6910 12.2848 0.6478
71.7110 12.2715 0.6490
71.7310 12.2582 0.6463
71.7510 12.2448 0.6478
71.7710 12.2315 0.6444
71.7910 12.2183 0.6471
71.8110 12.2049 0.6425
71.8310 12.1916 0.6461
71.8510 12.1782 0.6414
71.8710 12.1649 0.6436
71.8910 12.1516 0.6411
71.9110 12.1382 0.6423
71.9310 12.1248 0.6401
71.9510 12.1115 0.6403
71.9710 12.0981 0.6394
71.9910 12.0848 0.6384
72.0110 12.0714 0.6382
72.0310 12.0581 0.6376
72.0510 12.0448 0.6363
72.0710 12.0315 0.6368
72.0910 12.0182 0.6349
72.1110 12.0049 0.6357
72.1310 11.9916 0.6343
72.1510 11.9783 0.6344
72.1710 11.9649 0.6324
72.1910 11.9516 0.6326
72.2110 11.9382 0.6326
72.2310 11.9249 0.6302
72.2510 11.9116 0.6316
72.2710 11.8982 0.6290
72.2910 11.8848 0.6292
72.3110 11.8715 0.6281
72.3310 11.8582 0.6293
72.3510 11.8448 0.6259
72.3710 11.8315 0.6283
72.3910 11.8181 0.6255
72.4110 11.8048 0.6252
72.4310 11.7915 0.6251
72.4510 11.7782 0.6238
72.4710 11.7649 0.6244
72.4910 11.7515 0.6216
72.5110 11.7382 0.6238
72.5310 11.7249 0.6201
72.5510 11.7115 0.6222
72.5710 11.6982 0.6203
72.5910 11.6849 0.6197
72.6110 11.6716 0.6180
72.6310 11.6582 0.6194
72.6510 11.6448 0.6167
72.6710 11.6315 0.6179
72.6910 11.6182 0.6160
72.7110 11.6049 0.6158
72.7310 11.5915 0.6148
72.7510 11.5782 0.6155
72.7710 11.5648 0.6136
72.7910 11.5515 0.6132
72.8110 11.5382 0.6127
72.8310 11.5249 0.6122
72.8510 11.5115 0.6108
72.8710 11.4982 0.6116
72.8910 11.4849 0.6087
72.9110 11.4715 0.6100
72.9310 11.4582 0.6086
72.9510 11.4449 0.6077
72.9710 11.4316 0.6075
72.9910 11.4182 0.6069
73.0110 11.4049 0.6058
73.0310 11.3915 0.6043
73.0510 11.3782 0.6065
73.0710 11.3649 0.6022
73.0910 11.3515 0.6049
73.1110 11.3381 0.6011
73.1310 11.3248 0.6041
73.1510 11.3115 0.5993
73.1710 11.2982 0.6036
73.1910 11.2848 0.5976
73.2110 11.2715 0.6020
73.2310 11.2582 0.5972
73.2510 11.2449 0.5993
73.2710 11.2316 0.5973
73.2910 11.2182 0.5973
73.3110 11.2049 0.5971
73.3310 11.1916 0.5940
73.3510 11.1782 0.5967
73.3710 11.1648 0.5926
73.3910 11.1515 0.5951
73.4110 11.1382 0.5918
73.4310 11.1248 0.5932
73.4510 11.1115 0.5906
73.4710 11.0981 0.5925
73.4910 11.0848 0.5898
73.5110 11.0715 0.5906
73.5310 11.0582 0.5888
73.5510 11.0448 0.5894
73.5710 11.0315 0.5872
73.5910 11.0182 0.5885
73.6110 11.0049 0.5861
73.6310 10.9916 0.5861
73.6510 10.9782 0.5857
73.6710 10.9649 0.5844
73.6910 10.9516 0.5845
73.7110 10.9383 0.5833
73.7310 10.9249 0.5826
73.7510 10.9115 0.5813
73.7710 10.8981 0.5835
73.7910 10.8848 0.5793
73.8110 10.8715 0.5823
73.8310 10.8581 0.5783
73.8510 10.8448 0.5805
73.8710 10.8315 0.5762
73.8910 10.8182 0.5798
73.9110 10.8049 0.5758
73.9310 10.7916 0.5770
73.9510 10.7783 0.5753
73.9710 10.7649 0.5742
73.9910 10.7516 0.5751
74.0110 10.7382 0.5726
74.0310 10.7249 0.5748
74.0510 10.7116 0.5699
74.0710 10.6982 0.5740
74.0910 10.6848 0.5686
74.1110 10.6715 0.5723
74.1310 10.6582 0.5684
74.1510 10.6448 0.5699
74.1710 10.6315 0.5670
74.1910 10.6181 0.5690
74.2110 10.6048 0.5668
74.2310 10.5915 0.5661
74.2510 10.5782 0.5667
74.2710 10.5649 0.5644
74.2910 10.5515 0.5661
74.3110 10.5382 0.5630
74.3310 10.5249 0.5649
74.3510 10.5116 0.5602
74.3710 10.4982 0.5652
74.3910 10.4848 0.5590
74.4110 10.4715 0.5623
74.4310 10.4582 0.5585
74.4510 10.4448 0.5611
74.4710 10.4315 0.5567
74.4910 10.4182 0.5598
74.5110 10.4049 0.5555
74.5310 10.3915 0.5580
74.5510 10.3782 0.5546
74.5710 10.3648 0.5569
74.5910 10.3515 0.5525
74.6110 10.3382 0.5560
74.6310 10.3249 0.5519
74.6510 10.3115 0.5527
74.6710 10.2982 0.5519
74.6910 10.2849 0.5512
74.7110 10.2716 0.5503
74.7310 10.2582 0.5498
74.7510 10.2449 0.5495
74.7710 10.2315 0.5478
74.7910 10.2182 0.5492
74.8110 10.2048 0.5455
74.8310 10.1915 0.5481
74.8510 10.1782 0.5444
74.8710 10.1648 0.5462
74.8910 10.1515 0.5434
74.9110 10.1381 0.5449
74.9310 10.1248 0.5432
74.9510 10.1115 0.5419
74.9710 10.0982 0.5432
74.9910 10.0848 0.5402
75.0110 10.0715 0.5418
75.0310 10.0582 0.5389
75.0510 10.0449 0.5407
75.0710 10.0316 0.5368
75.0910 10.0182 0.5390
75.1110 10.0049 0.5361
75.1310 9.9916 0.5379
75.1510 9.9782 0.5344
75.1710 9.9648 0.5369
75.1910 9.9515 0.5330
75.2110 9.9382 0.5356
75.2310 9.9248 0.5322
75.2510 9.9115 0.5329
75.2710 9.8981 0.5317
75.2910 9.8848 0.5317
75.3110 9.8715 0.5302
75.3310 9.8582 0.5304
75.3510 9.8449 0.5293
75.3710 9.8315 0.5284
75.3910 9.8182 0.5279
75.4110 9.8049 0.5275
75.4310 9.7916 0.5266
75.4510 9.7782 0.5256
75.4710 9.7649 0.5259
75.4910 9.7516 0.5239
75.5110 9.7382 0.5249
75.5310 9.7248 0.5219
75.5510 9.7115 0.5236
75.5710 9.6982 0.5207
75.5910 9.6848 0.5226
75.6110 9.6715 0.5195
75.6310 9.6581 0.5212
75.6510 9.6448 0.5184
75.6710 9.6315 0.5187
75.6910 9.6182 0.5177
75.7110 9.6049 0.5175
75.7310 9.5915 0.5166
75.7510 9.5782 0.5155
75.7710 9.5649 0.5158
75.7910 9.5516 0.5134
75.8110 9.5383 0.5153
75.8310 9.5249 0.5127
75.8510 9.5116 0.5130
75.8710 9.4982 0.5109
75.8910 9.4848 0.5114
75.9110 9.4715 0.5100
75.9310 9.4581 0.5099
75.9510 9.4448 0.5092
75.9710 9.4315 0.5075
75.9910 9.4181 0.5083
76.0110 9.4048 0.5065
76.0310 9.3915 0.5070
76.0510 9.3782 0.5053
76.0710 9.3649 0.5059
76.0910 9.3515 0.5030
76.1110 9.3382 0.5046
76.1310 9.3249 0.5020
76.1510 9.3116 0.5029
76.1710 9.2982 0.5005
76.1910 9.2849 0.5019
76.2110 9.2715 0.4981
76.2310 9.2582 0.5007
76.2510 9.2449 0.4974
76.2710 9.2315 0.4986
76.2910 9.2182 0.4964
76.3110 9.2048 0.4981
76.3310 9.1915 0.4940
76.3510 9.1781 0.4967
76.3710 9.1648 0.4935
76.3910 9.1515 0.4950
76.4110 9.1382 0.4923
76.4310 9.1248 0.4930
76.4510 9.1115 0.4911
76.4710 9.0982 0.4919
76.4910 9.0849 0.4904
76.5110 9.0716 0.4891
76.5310 9.0582 0.4902
76.5510 9.0449 0.4877
76.5710 9.0316 0.4876
76.5910 9.0182 0.4864
76.6110 9.0049 0.4875
76.6310 8.9915 0.4844
76.6510 8.9782 0.4856
76.6710 8.9649 0.4835
76.6910 8.9516 0.4840
76.7110 8.9382 0.4817
76.7310 8.9248 0.4830
76.7510 8.9115 0.4805
76.7710 8.8982 0.4811
76.7910 8.8848 0.4808
76.8110 8.8715 0.4785
76.8310 8.8582 0.4794
76.8510 8.8449 0.4779
76.8710 8.8316 0.4782
76.8910 8.8182 0.4760
76.9110 8.8049 0.4774
76.9310 8.7916 0.4746
76.9510 8.7782 0.4749
76.9710 8.7649 0.4737
76.9910 8.7515 0.4744
77.0110 8.7382 0.4706
77.0310 8.7249 0.4739
77.0510 8.7115 0.4694
77.0710 8.6982 0.4715
77.0910 8.6848 0.4693
77.1110 8.6715 0.4693
77.1310 8.6582 0.4675
77.1510 8.6449 0.4686
77.1710 8.6315 0.4662
77.1910 8.6182 0.4667
77.2110 8.6049 0.4657
77.2310 8.5916 0.4646
77.2510 8.5782 0.4643
77.2710 8.5649 0.4641
77.2910 8.5516 0.4628
77.3110 8.5382 0.4610
77.3310 8.5249 0.4627
77.3510 8.5115 0.4590
77.3710 8.4981 0.4619
77.3910 8.4848 0.4580
77.4110 8.4715 0.4597
77.4310 8.4582 0.4560
77.4510 8.4448 0.4588
77.4710 8.4315 0.4554
77.4910 8.4182 0.4569
77.5110 8.4049 0.4539
77.5310 8.3916 0.4558
77.5510 8.3783 0.4524
77.5710 8.3650 0.4537
77.5910 8.3516 0.4521
77.6110 8.3382 0.4505
77.6310 8.3249 0.4520
77.6510 8.3115 0.4492
77.6710 8.2982 0.4501
77.6910 8.2849 0.4478
77.7110 8.2715 0.4491
77.7310 8.2581 0.4466
77.7510 8.2448 0.4484
77.7710 8.2315 0.4448
77.7910 8.2182 0.4459
77.8110 8.2048 0.4441
77.8310 8.1915 0.4451
77.8510 8.1782 0.4420
77.8710 8.1649 0.4435
77.8910 8.1515 0.4408
77.9110 8.1382 0.4411
77.9310 8.1249 0.4412
77.9510 8.1116 0.4395
77.9710 8.0982 0.4390
77.9910 8.0849 0.4383
78.0110 8.0715 0.4381
78.0310 8.0582 0.4357
78.0510 8.0449 0.4379
78.0710 8.0315 0.4345
78.0910 8.0182 0.4359
78.1110 8.0049 0.4339
78.1310 7.9915 0.4344
78.1510 7.9782 0.4309
78.1710 7.9648 0.4340
78.1910 7.9515 0.4305
78.2110 7.9382 0.4308
78.2310 7.9249 0.4301
78.2510 7.9116 0.4288
78.2710 7.8982 0.4284
78.2910 7.8849 0.4277
78.3110 7.8716 0.4282
78.3310 7.8582 0.4252
78.3510 7.8448 0.4273
78.3710 7.8315 0.4235
78.3910 7.8182 0.4254
78.4110 7.8049 0.4227
78.4310 7.7915 0.4240
78.4510 7.7782 0.4204
78.4710 7.7649 0.4230
78.4910 7.7515 0.4200
78.5110 7.7382 0.4203
78.5310 7.7248 0.4188
78.5510 7.7115 0.4190
78.5710 7.6982 0.4169
78.5910 7.6849 0.4176
78.6110 7.6715 0.4164
78.6310 7.6582 0.4147
78.6510 7.6449 0.4164
78.6710 7.6316 0.4126
78.6910 7.6182 0.4147
78.7110 7.6049 0.4120
78.7310 7.5915 0.4133
78.7510 7.5782 0.4097
78.7710 7.5649 0.4121
78.7910 7.5515 0.4088
78.8110 7.5381 0.4101
78.8310 7.5248 0.4080
78.8510 7.5115 0.4089
78.8710 7.4981 0.4056
78.8910 7.4848 0.4075
78.9110 7.4715 0.4051
78.9310 7.4582 0.4046
78.9510 7.4449 0.4046
78.9710 7.4315 0.4032
78.9910 7.4182 0.4033
79.0110 7.4049 0.4015
79.0310 7.3916 0.4027
79.0510 7.3783 0.3990
79.0710 7.3649 0.4014
79.0910 7.3515 0.3981
79.1110 7.3382 0.3989
79.1310 7.3249 0.3966
79.1510 7.3115 0.3988
79.1710 7.2981 0.3935
79.1910 7.2848 0.3981
79.2110 7.2715 0.3936
79.2310 7.2581 0.3948
79.2510 7.2448 0.3930
79.2710 7.2315 0.3930
79.2910 7.2182 0.3916
79.3110 7.2049 0.3912
79.3310 7.1915 0.3916
79.3510 7.1782 0.3883
79.3710 7.1649 0.3902
79.3910 7.1516 0.3870
79.4110 7.1383 0.3886
79.4310 7.1249 0.3855
79.4510 7.1115 0.3886
79.4710 7.0982 0.3825
79.4910 7.0849 0.3872
79.5110 7.0715 0.3817
79.5310 7.0582 0.3850
79.5510 7.0448 0.3807
79.5710 7.0315 0.3838
79.5910 7.0182 0.3791
79.6110 7.0048 0.3815
79.6310 6.9915 0.3792
79.6510 6.9782 0.3787
79.6710 6.9649 0.3784
79.6910 6.9515 0.3780
79.7110 6.9382 0.3763
79.7310 6.9249 0.3756
79.7510 6.9116 0.3765
79.7710 6.8983 0.3732
79.7910 6.8849 0.3752
79.8110 6.8716 0.3716
79.8310 6.8583 0.3733
79.8510 6.8449 0.3701
79.8710 6.8315 0.3725
79.8910 6.8181 0.3686
79.9110 6.8048 0.3704
79.9310 6.7915 0.3678
79.9510 6.7782 0.3681
79.9710 6.7648 0.3671
79.9910 6.7515 0.3676
80.0110 6.7382 0.3647
80.0310 6.7249 0.3660
80.0510 6.7115 0.3646
80.0710 6.6982 0.3632
80.0910 6.6849 0.3637
80.1110 6.6716 0.3618
80.1310 6.6582 0.3627
80.1510 6.6449 0.3601
80.1710 6.6315 0.3625
80.1910 6.6182 0.3578
80.2110 6.6049 0.3603
80.2310 6.5915 0.3570
80.2510 6.5782 0.3579
80.2710 6.5649 0.3561
80.2910 6.5516 0.3566
80.3110 6.5382 0.3539
80.3310 6.5248 0.3548
80.3510 6.5114 0.3539
80.3710 6.4981 0.3518
80.3910 6.4848 0.3525
80.4110 6.4715 0.3504
80.4310 6.4582 0.3509
80.4510 6.4449 0.3486
80.4710 6.4316 0.3503
80.4910 6.4183 0.3470
80.5110 6.4049 0.3481
80.5310 6.3915 0.3464
80.5510 6.3782 0.3462
80.5710 6.3649 0.3448
80.5910 6.3515 0.3452
80.6110 6.3382 0.3439
80.6310 6.3249 0.3431
80.6510 6.3116 0.3421
80.6710 6.2982 0.3412
80.6910 6.2848 0.3396
80.7110 6.2715 0.3417
80.7310 6.2582 0.3374
80.7510 6.2449 0.3395
80.7710 6.2315 0.3368
80.7910 6.2182 0.3377
80.8110 6.2049 0.3359
80.8310 6.1916 0.3361
80.8510 6.1783 0.3341
80.8710 6.1649 0.3345
80.8910 6.1516 0.3333
80.9110 6.1383 0.3320
80.9310 6.1249 0.3325
80.9510 6.1116 0.3314
80.9710 6.0982 0.3307
80.9910 6.0848 0.3291
81.0110 6.0715 0.3299
81.0310 6.0582 0.3276
81.0510 6.0448 0.3278
81.0710 6.0315 0.3274
81.0910 6.0182 0.3252
81.1110 6.0049 0.3265
81.1310 5.9915 0.3234
81.1510 5.9782 0.3245
81.1710 5.9649 0.3216
81.1910 5.9516 0.3239
81.2110 5.9383 0.3191
81.2310 5.9249 0.3214
81.2510 5.9115 0.3197
81.2710 5.8982 0.3193
81.2910 5.8849 0.3169
81.3110 5.8715 0.3186
81.3310 5.8581 0.3155
81.3510 5.8448 0.3171
81.3710 5.8315 0.3146
81.3910 5.8182 0.3151
81.4110 5.8048 0.3135
81.4310 5.7915 0.3142
81.4510 5.7782 0.3116
81.4710 5.7649 0.3122
81.4910 5.7515 0.3107
81.5110 5.7382 0.3112
81.5310 5.7249 0.3083
81.5510 5.7116 0.3102
81.5710 5.6983 0.3073
81.5910 5.6849 0.3079
81.6110 5.6715 0.3067
81.6310 5.6582 0.3051
81.6510 5.6449 0.3056
81.6710 5.6315 0.3037
81.6910 5.6181 0.3043
81.7110 5.6048 0.3010
81.7310 5.5915 0.3037
81.7510 5.5782 0.2993
81.7710 5.5648 0.3010
81.7910 5.5515 0.2993
81.8110 5.5382 0.3003
81.8310 5.5249 0.2963
81.8510 5.5115 0.2983
81.8710 5.4982 0.2962
81.8910 5.4849 0.2963
81.9110 5.4716 0.2955
81.9310 5.4583 0.2937
81.9510 5.4449 0.2941
81.9710 5.4315 0.2924
81.9910 5.4182 0.2933
82.0110 5.4049 0.2897
82.0310 5.3915 0.2923
82.0510 5.3782 0.2887
82.0710 5.3648 0.2893
82.0910 5.3515 0.2878
82.1110 5.3382 0.2882
82.1310 5.3248 0.2849
82.1510 5.3115 0.2878
82.1710 5.2982 0.2833
82.1910 5.2849 0.2858
82.2110 5.2715 0.2829
82.2310 5.2582 0.2840
82.2510 5.2449 0.2818
82.2710 5.2316 0.2821
82.2910 5.2182 0.2807
82.3110 5.2049 0.2794
82.3310 5.1916 0.2801
82.3510 5.1782 0.2771
82.3710 5.1649 0.2782
82.3910 5.1516 0.2756
82.4110 5.1382 0.2776
82.4310 5.1248 0.2734
82.4510 5.1115 0.2769
82.4710 5.0982 0.2715
82.4910 5.0848 0.2738
82.5110 5.0714 0.2709
82.5310 5.0581 0.2726
82.5510 5.0449 0.2686
82.5710 5.0315 0.2708
82.5910 5.0182 0.2684
82.6110 5.0049 0.2684
82.6310 4.9916 0.2680
82.6510 4.9783 0.2663
82.6710 4.9649 0.2657
82.6910 4.9516 0.2654
82.7110 4.9382 0.2643
82.7310 4.9249 0.2629
82.7510 4.9115 0.2640
82.7710 4.8981 0.2611
82.7910 4.8848 0.2618
82.8110 4.8715 0.2607
82.8310 4.8582 0.2609
82.8510 4.8448 0.2578
82.8710 4.8314 0.2598
82.8910 4.8181 0.2574
82.9110 4.8049 0.2568
82.9310 4.7915 0.2564
82.9510 4.7782 0.2558
82.9710 4.7649 0.2544
82.9910 4.7516 0.2543
83.0110 4.7383 0.2533
83.0310 4.7249 0.2523
83.0510 4.7116 0.2521
83.0710 4.6982 0.2504
83.0910 4.6849 0.2501
83.1110 4.6715 0.2485
83.1310 4.6581 0.2493
83.1510 4.6448 0.2458
83.1710 4.6315 0.2482
83.1910 4.6181 0.2440
83.2110 4.6048 0.2456
83.2310 4.5915 0.2430
83.2510 4.5782 0.2448
83.2710 4.5649 0.2407
83.2910 4.5516 0.2434
83.3110 4.5382 0.2398
83.3310 4.5249 0.2412
83.3510 4.5116 0.2394
83.3710 4.4983 0.2396
83.3910 4.4849 0.2373
83.4110 4.4716 0.2379
83.4310 4.4582 0.2376
83.4510 4.4449 0.2340
83.4710 4.4315 0.2366
83.4910 4.4182 0.2330
83.5110 4.4048 0.2354
83.5310 4.3915 0.2308
83.5510 4.3782 0.2342
83.5710 4.3649 0.2289
83.5910 4.3515 0.2323
83.6110 4.3382 0.2288
83.6310 4.3249 0.2292
83.6510 4.3115 0.2277
83.6710 4.2982 0.2276
83.6910 4.2848 0.2253
83.7110 4.2716 0.2264
83.7310 4.2582 0.2255
83.7510 4.2449 0.2227
83.7710 4.2316 0.2240
83.7910 4.2182 0.2213
83.8110 4.2049 0.2226
83.8310 4.1915 0.2192
83.8510 4.1782 0.2225
83.8710 4.1648 0.2176
83.8910 4.1515 0.2212
83.9110 4.1382 0.2167
83.9310 4.1249 0.2184
83.9510 4.1115 0.2153
83.9710 4.0982 0.2179
83.9910 4.0848 0.2128
84.0110 4.0715 0.2164
84.0310 4.0582 0.2125
84.0510 4.0448 0.2128
84.0710 4.0316 0.2115
84.0910 4.0182 0.2119
84.1110 4.0049 0.2099
84.1310 3.9915 0.2094
84.1510 3.9782 0.2093
84.1710 3.9649 0.2061
84.1910 3.9516 0.2085
84.2110 3.9382 0.2053
84.2310 3.9248 0.2065
84.2510 3.9115 0.2041
84.2710 3.8982 0.2058
84.2910 3.8848 0.2010
84.3110 3.8715 0.2042
84.3310 3.8582 0.2002
84.3510 3.8449 0.2017
84.3710 3.8316 0.1987
84.3910 3.8182 0.2013
84.4110 3.8049 0.1972
84.4310 3.7916 0.1990
84.4510 3.7782 0.1973
84.4710 3.7649 0.1957
84.4910 3.7515 0.1958
84.5110 3.7382 0.1945
84.5310 3.7249 0.1936
84.5510 3.7116 0.1921
84.5710 3.6982 0.1932
84.5910 3.6848 0.1908
84.6110 3.6715 0.1924
84.6310 3.6582 0.1897
84.6510 3.6448 0.1900
84.6710 3.6315 0.1880
84.6910 3.6181 0.1898
84.7110 3.6048 0.1854
84.7310 3.5915 0.1867
84.7510 3.5782 0.1856
84.7710 3.5649 0.1833
84.7910 3.5516 0.1838
84.8110 3.5383 0.1822
84.8310 3.5249 0.1813
84.8510 3.5116 0.1803
84.8710 3.4982 0.1802
84.8910 3.4849 0.1792
84.9110 3.4715 0.1796
84.9310 3.4581 0.1777
84.9510 3.4448 0.1787
84.9710 3.4315 0.1751
84.9910 3.4182 0.1771
85.0110 3.4049 0.1728
85.0310 3.3915 0.1752
85.0510 3.3782 0.1728
85.0710 3.3649 0.1731
85.0910 3.3516 0.1699
85.1110 3.3382 0.1728
85.1310 3.3249 0.1692
85.1510 3.3115 0.1707
85.1710 3.2982 0.1691
85.1910 3.2849 0.1688
85.2110 3.2715 0.1675
85.2310 3.2582 0.1667
85.2510 3.2449 0.1652
85.2710 3.2316 0.1634
85.2910 3.2182 0.1647
85.3110 3.2048 0.1609
85.3310 3.1915 0.1621
85.3510 3.1782 0.1598
85.3710 3.1648 0.1601
85.3910 3.1515 0.1577
85.4110 3.1382 0.1596
85.4310 3.1249 0.1569
85.4510 3.1116 0.1574
85.4710 3.0982 0.1564
85.4910 3.0849 0.1556
85.5110 3.0716 0.1549
85.5310 3.0583 0.1544
85.5510 3.0449 0.1528
85.5710 3.0315 0.1518
85.5910 3.0182 0.1519
85.6110 3.0049 0.1501
85.6310 2.9915 0.1499
85.6510 2.9782 0.1499
85.6710 2.9648 0.1498
85.6910 2.9515 0.1484
85.7110 2.9382 0.1489
85.7310 2.9249 0.1456
85.7510 2.9115 0.1465
85.7710 2.8982 0.1436
85.7910 2.8849 0.1441
85.8110 2.8715 0.1406
85.8310 2.8582 0.1435
85.8510 2.8448 0.1387
85.8710 2.8315 0.1417
85.8910 2.8183 0.1375
85.9110 2.8050 0.1390
85.9310 2.7916 0.1365
85.9510 2.7782 0.1383
85.9710 2.7649 0.1357
85.9910 2.7516 0.1355
86.0110 2.7382 0.1371
86.0310 2.7248 0.1335
86.0510 2.7115 0.1354
86.0710 2.6982 0.1331
86.0910 2.6848 0.1331
86.1110 2.6715 0.1299
86.1310 2.6581 0.1329
86.1510 2.6448 0.1276
86.1710 2.6315 0.1298
86.1910 2.6182 0.1266
86.2110 2.6048 0.1278
86.2310 2.5915 0.1251
86.2510 2.5783 0.1257
86.2710 2.5649 0.1244
86.2910 2.5516 0.1228
86.3110 2.5382 0.1247
86.3310 2.5249 0.1204
86.3510 2.5116 0.1213
86.3710 2.4982 0.1194
86.3910 2.4848 0.1198
86.4110 2.4715 0.1178
86.4310 2.4581 0.1192
86.4510 2.4448 0.1174
86.4710 2.4315 0.1184
86.4910 2.4181 0.1161
86.5110 2.4048 0.1179
86.5310 2.3915 0.1128
86.5510 2.3782 0.1156
86.5710 2.3649 0.1112
86.5910 2.3516 0.1119
86.6110 2.3383 0.1103
86.6310 2.3250 0.1096
86.6510 2.3116 0.1075
86.6710 2.2982 0.1089
86.6910 2.2849 0.1059
86.7110 2.2716 0.1077
86.7310 2.2582 0.1068
86.7510 2.2449 0.1059
86.7710 2.2315 0.1061
86.7910 2.2182 0.1037
86.8110 2.2048 0.1045
86.8310 2.1915 0.1007
86.8510 2.1781 0.1044
86.8710 2.1648 0.0995
86.8910 2.1515 0.1012
86.9110 2.1382 0.0988
86.9310 2.1249 0.0998
86.9510 2.1115 0.0970
86.9710 2.0982 0.0972
86.9910 2.0849 0.0951
87.0110 2.0715 0.0953
87.0310 2.0582 0.0948
87.0510 2.0449 0.0930
87.0710 2.0316 0.0927
87.0910 2.0182 0.0902
87.1110 2.0048 0.0928
87.1310 1.9915 0.0879
87.1510 1.9782 0.0913
87.1710 1.9649 0.0877
87.1910 1.9515 0.0878
87.2110 1.9381 0.0876
87.2310 1.9248 0.0868
87.2510 1.9115 0.0862
87.2710 1.8982 0.0861
87.2910 1.8848 0.0849
87.3110 1.8715 0.0837
87.3310 1.8582 0.0830
87.3510 1.8449 0.0815
87.3710 1.8316 0.0804
87.3910 1.8182 0.0803
87.4110 1.8049 0.0785
87.4310 1.7916 0.0781
87.4510 1.7782 0.0786
87.4710 1.7649 0.0773
87.4910 1.7515 0.0774
87.5110 1.7382 0.0756
87.5310 1.7249 0.0760
87.5510 1.7115 0.0723
87.5710 1.6981 0.0763
87.5910 1.6848 0.0711
87.6110 1.6715 0.0729
87.6310 1.6582 0.0699
87.6510 1.6448 0.0722
87.6710 1.6315 0.0682
87.6910 1.6182 0.0710
87.7110 1.6049 0.0674
87.7310 1.5916 0.0683
87.7510 1.5782 0.0674
87.7710 1.5649 0.0661
87.7910 1.5516 0.0654
87.8110 1.5382 0.0634
87.8310 1.5249 0.0636
87.8510 1.5115 0.0614
87.8710 1.4982 0.0626
87.8910 1.4849 0.0594
87.9110 1.4715 0.0599
87.9310 1.4581 0.0587
87.9510 1.4448 0.0577
87.9710 1.4315 0.0567
87.9910 1.4182 0.0567
88.0110 1.4048 0.0559
88.0310 1.3915 0.0551
88.0510 1.3782 0.0549
88.0710 1.3650 0.0542
88.0910 1.3516 0.0521
88.1110 1.3382 0.0519
88.1310 1.3249 0.0515
88.1510 1.3116 0.0489
88.1710 1.2982 0.0504
88.1910 1.2849 0.0480
88.2110 1.2715 0.0488
88.2310 1.2582 0.0473
88.2510 1.2448 0.0470
88.2710 1.2315 0.0450
88.2910 1.2181 0.0466
88.3110 1.2048 0.0430
88.3310 1.1915 0.0445
88.3510 1.1782 0.0407
88.3710 1.1649 0.0435
88.3910 1.1515 0.0391
88.4110 1.1382 0.0419
88.4310 1.1249 0.0381
88.4510 1.1116 0.0390
88.4710 1.0982 0.0380
88.4910 1.0849 0.0366
88.5110 1.0716 0.0370
88.5310 1.0582 0.0348
88.5510 1.0448 0.0365
88.5710 1.0315 0.0320
88.5910 1.0181 0.0352
88.6110 1.0048 0.0303
88.6310 0.9915 0.0331
88.6510 0.9782 0.0299
88.6710 0.9648 0.0340
88.6910 0.9515 0.0289
88.7110 0.9382 0.0316
88.7310 0.9249 0.0286
88.7510 0.9115 0.0283
88.7710 0.8983 0.0280
88.7910 0.8849 0.0258
88.8110 0.8716 0.0260
88.8310 0.8582 0.0238
88.8510 0.8449 0.0251
88.8710 0.8315 0.0222
88.8910 0.8182 0.0226
88.9110 0.8048 0.0206
88.9310 0.7915 0.0203
88.9510 0.7782 0.0186
88.9710 0.7649 0.0189
88.9910 0.7515 0.0163
89.0110 0.7382 0.0166
89.0310 0.7248 0.0153
89.0510 0.7115 0.0139
89.0710 0.6982 0.0133
89.0910 0.6849 0.0129
89.1110 0.6715 0.0110
89.1310 0.6582 0.0100
89.1510 0.6449 0.0091
89.1710 0.6316 0.0086
89.1910 0.6182 0.0069
89.2110 0.6049 0.0073
89.2310 0.5915 0.0053
89.2510 0.5782 0.0036
89.2710 0.5648 0.0043
89.2910 0.5515 0.0013
89.3110 0.5382 0.0027
89.3310 0.5248 -0.0007
89.3510 0.5115 0.0004
89.3710 0.4981 -0.0026
89.3910 0.4848 -0.0004
89.4110 0.4715 -0.0048
89.4310 0.4582 -0.0029
89.4510 0.4449 -0.0067
89.4710 0.4315 -0.0042
89.4910 0.4182 -0.0080
89.5110 0.4049 -0.0052
89.5310 0.3916 -0.0086
89.5510 0.3782 -0.0080
89.5710 0.3649 -0.0098
89.5910 0.3516 -0.0116
89.6110 0.3382 -0.0126
89.6310 0.3249 -0.0128
89.6510 0.3115 -0.0149
89.6710 0.2981 -0.0154
89.6910 0.2848 -0.0161
89.7110 0.2715 -0.0175
89.7310 0.2581 -0.0189
89.7510 0.2448 -0.0184
89.7710 0.2315 -0.0210
89.7910 0.2182 -0.0210
89.8110 0.2048 -0.0210
89.8310 0.1915 -0.0231
89.8510 0.1782 -0.0236
89.8710 0.1649 -0.0241
89.8910 0.1516 -0.0252
89.9110 0.1382 -0.0264
89.9310 0.1249 -0.0259
89.9510 0.1115 -0.0275
89.9710 0.0982 -0.0286
89.9910 0.0848 -0.0283
90.0110 0.0715 -0.0297
90.0310 0.0581 -0.0288
90.0510 0.0448 -0.0322
90.0710 0.0315 -0.0300
90.0910 0.0181 -0.0336
90.1110 0.0048 -0.0287
90.1190 -0.0004 -0.0276
