Raw Data
Time Displacement Force
(s) (mm) (N)
0.0000 0.0000 -0.0226
0.0200 0.0001 -0.0202
0.0400 0.0018 -0.0091
0.0600 0.0089 -0.0135
0.0800 0.0205 -0.0215
0.1000 0.0329 -0.0226
0.1200 0.0454 -0.0208
0.1400 0.0588 -0.0217
0.1600 0.0729 -0.0211
0.1800 0.0872 -0.0244
0.2000 0.1012 -0.0215
0.2200 0.1148 -0.0241
0.2400 0.1282 -0.0212
0.2600 0.1415 -0.0229
0.2800 0.1548 -0.0220
0.3000 0.1681 -0.0219
0.3200 0.1815 -0.0211
0.3400 0.1948 -0.0203
0.3600 0.2082 -0.0193
0.3800 0.2215 -0.0177
0.4000 0.2348 -0.0170
0.4200 0.2481 -0.0161
0.4400 0.2615 -0.0156
0.4600 0.2748 -0.0138
0.4800 0.2881 -0.0139
0.5000 0.3015 -0.0106
0.5200 0.3149 -0.0106
0.5400 0.3283 -0.0088
0.5600 0.3416 -0.0067
0.5800 0.3549 -0.0055
0.6000 0.3682 -0.0029
0.6200 0.3816 -0.0016
0.6400 0.3949 0.0004
0.6600 0.4082 0.0024
0.6800 0.4214 0.0042
0.7000 0.4348 0.0065
0.7200 0.4481 0.0084
0.7400 0.4615 0.0103
0.7600 0.4748 0.0138
0.7800 0.4881 0.0134
0.8000 0.5015 0.0178
0.8200 0.5149 0.0179
0.8400 0.5282 0.0217
0.8600 0.5416 0.0226
0.8800 0.5549 0.0258
0.9000 0.5682 0.0267
0.9200 0.5815 0.0302
0.9400 0.5949 0.0315
0.9600 0.6082 0.0337
0.9800 0.6216 0.0361
1.0000 0.6349 0.0386
1.0200 0.6482 0.0398
1.0400 0.6615 0.0421
1.0600 0.6748 0.0450
1.0800 0.6881 0.0454
1.1000 0.7014 0.0498
1.1200 0.7148 0.0496
1.1400 0.7281 0.0538
1.1600 0.7415 0.0540
1.1800 0.7548 0.0577
1.2000 0.7682 0.0587
1.2200 0.7815 0.0612
1.2400 0.7949 0.0632
1.2600 0.8082 0.0654
1.2800 0.8215 0.0678
1.3000 0.8348 0.0703
1.3200 0.8482 0.0721
1.3400 0.8616 0.0732
1.3600 0.8749 0.0772
1.3800 0.8882 0.0768
1.4000 0.9016 0.0812
1.4200 0.9149 0.0808
1.4400 0.9282 0.0852
1.4600 0.9415 0.0853
1.4800 0.9548 0.0897
1.5000 0.9681 0.0895
1.5200 0.9815 0.0929
1.5400 0.9948 0.0934
1.5600 1.0081 0.0961
1.5800 1.0215 0.0980
1.6000 1.0349 0.0995
1.6200 1.0482 0.1016
1.6400 1.0616 0.1034
1.6600 1.0749 0.1065
1.6800 1.0883 0.1069
1.7000 1.1016 0.1101
1.7200 1.1149 0.1118
1.7400 1.1282 0.1137
1.7600 1.1415 0.1151
1.7800 1.1548 0.1183
1.8000 1.1681 0.1181
1.8200 1.1814 0.1226
1.8400 1.1948 0.1218
1.8600 1.2081 0.1259
1.8800 1.2215 0.1253
1.9000 1.2348 0.1299
1.9200 1.2482 0.1293
1.9400 1.2615 0.1336
1.9600 1.2749 0.1335
1.9800 1.2883 0.1362
2.0000 1.3016 0.1374
2.0200 1.3149 0.1402
2.0400 1.3283 0.1410
2.0600 1.3416 0.1430
2.0800 1.3549 0.1461
2.1000 1.3682 0.1456
2.1200 1.3815 0.1503
2.1400 1.3949 0.1498
2.1600 1.4082 0.1531
2.1800 1.4215 0.1532
2.2000 1.4348 0.1566
2.2200 1.4481 0.1572
2.2400 1.4615 0.1595
2.2600 1.4748 0.1610
2.2800 1.4882 0.1621
2.3000 1.5015 0.1646
2.3200 1.5149 0.1662
2.3400 1.5283 0.1676
2.3600 1.5416 0.1698
2.3800 1.5549 0.1719
2.4000 1.5683 0.1723
2.4200 1.5816 0.1742
2.4400 1.5949 0.1765
2.4600 1.6082 0.1775
2.4800 1.6215 0.1794
2.5000 1.6348 0.1818
2.5200 1.6481 0.1810
2.5400 1.6614 0.1857
2.5600 1.6747 0.1850
2.5800 1.6881 0.1898
2.6000 1.7015 0.1861
2.6200 1.7148 0.1933
2.6400 1.7282 0.1888
2.6600 1.7415 0.1967
2.6800 1.7549 0.1935
2.7000 1.7683 0.1989
2.7200 1.7816 0.1976
2.7400 1.7949 0.2013
2.7600 1.8082 0.2023
2.7800 1.8216 0.2028
2.8000 1.8349 0.2074
2.8200 1.8482 0.2056
2.8400 1.8615 0.2105
2.8600 1.8748 0.2086
2.8800 1.8882 0.2142
2.9000 1.9015 0.2116
2.9200 1.9148 0.2185
2.9400 1.9282 0.2148
2.9600 1.9415 0.2204
2.9800 1.9549 0.2191
3.0000 1.9682 0.2224
3.0200 1.9815 0.2239
3.0400 1.9949 0.2244
3.0600 2.0082 0.2274
3.0800 2.0215 0.2270
3.1000 2.0348 0.2316
3.1200 2.0482 0.2306
3.1400 2.0616 0.2342
3.1600 2.0749 0.2346
3.1800 2.0882 0.2372
3.2000 2.1015 0.2373
3.2200 2.1149 0.2407
3.2400 2.1282 0.2402
3.2600 2.1415 0.2434
3.2800 2.1548 0.2441
3.3000 2.1682 0.2464
3.3200 2.1815 0.2476
3.3400 2.1948 0.2499
3.3600 2.2082 0.2507
3.3800 2.2215 0.2518
3.4000 2.2349 0.2540
3.4200 2.2482 0.2548
3.4400 2.2615 0.2563
3.4600 2.2748 0.2588
3.4800 2.2882 0.2594
3.5000 2.3016 0.2609
3.5200 2.3149 0.2634
3.5400 2.3282 0.2633
3.5600 2.3415 0.2659
3.5800 2.3549 0.2656
3.6000 2.3682 0.2694
3.6200 2.3815 0.2682
3.6400 2.3948 0.2728
3.6600 2.4081 0.2720
3.6800 2.4215 0.2748
3.7000 2.4348 0.2759
3.7200 2.4481 0.2773
3.7400 2.4615 0.2791
3.7600 2.4749 0.2796
3.7800 2.4883 0.2826
3.8000 2.5016 0.2819
3.8200 2.5150 0.2864
3.8400 2.5283 0.2847
3.8600 2.5416 0.2884
3.8800 2.5549 0.2884
3.9000 2.5682 0.2915
3.9200 2.5815 0.2904
3.9400 2.5948 0.2942
3.9600 2.6082 0.2936
3.9800 2.6215 0.2962
4.0000 2.6348 0.2975
4.0200 2.6481 0.2988
4.0400 2.6615 0.3003
4.0600 2.6749 0.3010
4.0800 2.6882 0.3040
4.1000 2.7015 0.3030
4.1200 2.7149 0.3074
4.1400 2.7283 0.3062
4.1600 2.7416 0.3087
4.1800 2.7549 0.3094
4.2000 2.7682 0.3122
4.2200 2.7816 0.3115
4.2400 2.7949 0.3157
4.2600 2.8082 0.3144
4.2800 2.8215 0.3173
4.3000 2.8348 0.3174
4.3200 2.8482 0.3202
4.3400 2.8615 0.3200
4.3600 2.8748 0.3234
4.3800 2.8881 0.3235
4.4000 2.9015 0.3244
4.4200 2.9149 0.3267
4.4400 2.9282 0.3279
4.4600 2.9415 0.3290
4.4800 2.9549 0.3309
4.5000 2.9682 0.3321
4.5200 2.9815 0.3321
4.5400 2.9949 0.3353
4.5600 3.0082 0.3346
4.5800 3.0216 0.3384
4.6000 3.0349 0.3374
4.6200 3.0482 0.3414
4.6400 3.0615 0.3401
4.6600 3.0749 0.3439
4.6800 3.0882 0.3438
4.7000 3.1015 0.3450
4.7200 3.1148 0.3475
4.7400 3.1281 0.3477
4.7600 3.1415 0.3503
4.7800 3.1549 0.3491
4.8000 3.1682 0.3543
4.8200 3.1815 0.3515
4.8400 3.1949 0.3570
4.8600 3.2083 0.3536
4.8800 3.2216 0.3591
4.9000 3.2349 0.3569
4.9200 3.2482 0.3624
4.9400 3.2615 0.3591
4.9600 3.2749 0.3638
4.9800 3.2882 0.3634
5.0000 3.3015 0.3647
5.0200 3.3148 0.3670
5.0400 3.3282 0.3675
5.0600 3.3415 0.3689
5.0800 3.3548 0.3698
5.1000 3.3681 0.3722
5.1200 3.3815 0.3716
5.1400 3.3948 0.3746
5.1600 3.4082 0.3734
5.1800 3.4215 0.3758
5.2000 3.4349 0.3747
5.2200 3.4482 0.3798
5.2400 3.4616 0.3772
5.2600 3.4749 0.3826
5.2800 3.4882 0.3809
5.3000 3.5016 0.3843
5.3200 3.5149 0.3838
5.3400 3.5283 0.3878
5.3600 3.5416 0.3860
5.3800 3.5549 0.3904
5.4000 3.5682 0.3890
5.4200 3.5815 0.3925
5.4400 3.5948 0.3919
5.4600 3.6081 0.3948
5.4800 3.6215 0.3950
5.5000 3.6348 0.3958
5.5200 3.6481 0.3994
5.5400 3.6615 0.3967
5.5600 3.6749 0.4018
5.5800 3.6883 0.3991
5.6000 3.7016 0.4041
5.6200 3.7149 0.4022
5.6400 3.7282 0.4070
5.6600 3.7416 0.4039
5.6800 3.7550 0.4078
5.7000 3.7682 0.4077
5.7200 3.7815 0.4096
5.7400 3.7948 0.4111
5.7600 3.8082 0.4112
5.7800 3.8215 0.4138
5.8000 3.8348 0.4127
5.8200 3.8481 0.4178
5.8400 3.8615 0.4144
5.8600 3.8748 0.4165
5.8800 3.8881 0.4063
5.9000 3.9015 0.4089
5.9200 3.9148 0.4069
5.9400 3.9282 0.4130
5.9600 3.9416 0.4115
5.9800 3.9549 0.4160
6.0000 3.9682 0.4159
6.0200 3.9816 0.4183
6.0400 3.9949 0.4189
6.0600 4.0082 0.4213
6.0800 4.0215 0.4226
6.1000 4.0348 0.4233
6.1200 4.0482 0.4261
6.1400 4.0615 0.4263
6.1600 4.0748 0.4288
6.1800 4.0881 0.4296
6.2000 4.1015 0.4319
6.2200 4.1149 0.4314
6.2400 4.1282 0.4354
6.2600 4.1415 0.4330
6.2800 4.1549 0.4381
6.3000 4.1683 0.4359
6.3200 4.1816 0.4402
6.3400 4.1949 0.4384
6.3600 4.2082 0.4431
6.3800 4.2215 0.4409
6.4000 4.2349 0.4447
6.4200 4.2482 0.4452
6.4400 4.2615 0.4468
6.4600 4.2749 0.4480
6.4800 4.2882 0.4490
6.5000 4.3015 0.4502
6.5200 4.3148 0.4504
6.5400 4.3281 0.4548
6.5600 4.3415 0.4517
6.5800 4.3548 0.4566
6.6000 4.3682 0.4545
6.6200 4.3815 0.4586
6.6400 4.3948 0.4565
6.6600 4.4082 0.4607
6.6800 4.4216 0.4583
6.7000 4.4349 0.4619
6.7200 4.4482 0.4626
6.7400 4.4615 0.4638
6.7600 4.4749 0.4645
6.7800 4.4882 0.4665
6.8000 4.5015 0.4674
6.8200 4.5149 0.4677
6.8400 4.5282 0.4708
6.8600 4.5415 0.4689
6.8800 4.5548 0.4725
6.9000 4.5681 0.4719
6.9200 4.5814 0.4748
6.9400 4.5948 0.4738
6.9600 4.6081 0.4774
6.9800 4.6215 0.4764
7.0000 4.6348 0.4800
7.0200 4.6482 0.4791
7.0400 4.6616 0.4817
7.0600 4.6749 0.4805
7.0800 4.6882 0.4849
7.1000 4.7016 0.4828
7.1200 4.7149 0.4855
7.1400 4.7282 0.4867
7.1600 4.7415 0.4873
7.1800 4.7549 0.4893
7.2000 4.7682 0.4893
7.2200 4.7815 0.4923
7.2400 4.7948 0.4904
7.2600 4.8081 0.4954
7.2800 4.8215 0.4924
7.3000 4.8348 0.4964
7.3200 4.8482 0.4951
7.3400 4.8615 0.4988
7.3600 4.8748 0.4961
7.3800 4.8882 0.5012
7.4000 4.9016 0.4993
7.4200 4.9149 0.5019
7.4400 4.9282 0.5030
7.4600 4.9416 0.5038
7.4800 4.9549 0.5053
7.5000 4.9683 0.5054
7.5200 4.9816 0.5086
7.5400 4.9949 0.5070
7.5600 5.0082 0.5108
7.5800 5.0215 0.5099
7.6000 5.0348 0.5121
7.6200 5.0481 0.5126
7.6400 5.0615 0.5142
7.6600 5.0748 0.5122
7.6800 5.0882 0.5163
7.7000 5.1015 0.5151
7.7200 5.1149 0.5176
7.7400 5.1283 0.5186
7.7600 5.1416 0.5196
7.7800 5.1549 0.5204
7.8000 5.1682 0.5223
7.8200 5.1816 0.5234
7.8400 5.1949 0.5229
7.8600 5.2082 0.5265
7.8800 5.2215 0.5255
7.9000 5.2348 0.5279
7.9200 5.2481 0.5270
7.9400 5.2615 0.5303
7.9600 5.2748 0.5286
7.9800 5.2881 0.5331
8.0000 5.3015 0.5309
8.0200 5.3148 0.5344
8.0400 5.3282 0.5330
8.0600 5.3415 0.5371
8.0800 5.3549 0.5350
8.1000 5.3682 0.5392
8.1200 5.3816 0.5378
8.1400 5.3949 0.5399
8.1600 5.4082 0.5405
8.1800 5.4216 0.5421
8.2000 5.4349 0.5421
8.2200 5.4482 0.5438
8.2400 5.4615 0.5453
8.2600 5.4748 0.5443
8.2800 5.4882 0.5482
8.3000 5.5015 0.5458
8.3200 5.5148 0.5503
8.3400 5.5281 0.5487
8.3600 5.5415 0.5526
8.3800 5.5548 0.5497
8.4000 5.5682 0.5545
8.4200 5.5815 0.5528
8.4400 5.5948 0.5556
8.4600 5.6082 0.5557
8.4800 5.6216 0.5582
8.5000 5.6349 0.5571
8.5200 5.6482 0.5603
8.5400 5.6615 0.5597
8.5600 5.6749 0.5600
8.5800 5.6883 0.5622
8.6000 5.7016 0.5613
8.6200 5.7149 0.5647
8.6400 5.7283 0.5643
8.6600 5.7416 0.5675
8.6800 5.7549 0.5649
8.7000 5.7682 0.5696
8.7200 5.7815 0.5682
8.7400 5.7948 0.5694
8.7600 5.8081 0.5696
8.7800 5.8215 0.5706
8.8000 5.8348 0.5706
8.8200 5.8482 0.5735
8.8400 5.8616 0.5727
8.8600 5.8749 0.5745
8.8800 5.8883 0.5758
8.9000 5.9016 0.5772
8.9200 5.9150 0.5775
8.9400 5.9283 0.5785
8.9600 5.9416 0.5810
8.9800 5.9549 0.5796
9.0000 5.9682 0.5833
9.0200 5.9815 0.5821
9.0400 5.9948 0.5844
9.0600 6.0081 0.5840
9.0800 6.0214 0.5875
9.1000 6.0348 0.5849
9.1200 6.0482 0.5890
9.1400 6.0615 0.5883
9.1600 6.0748 0.5894
9.1800 6.0882 0.5912
9.2000 6.1016 0.5913
9.2200 6.1149 0.5925
9.2400 6.1282 0.5923
9.2600 6.1416 0.5957
9.2800 6.1549 0.5933
9.3000 6.1683 0.5981
9.3200 6.1815 0.5959
9.3400 6.1948 0.5998
9.3600 6.2082 0.5981
9.3800 6.2215 0.6012
9.4000 6.2348 0.6003
9.4200 6.2481 0.6018
9.4400 6.2614 0.6040
9.4600 6.2748 0.6022
9.4800 6.2882 0.6060
9.5000 6.3015 0.6055
9.5200 6.3148 0.6069
9.5400 6.3282 0.6073
9.5600 6.3416 0.6097
9.5800 6.3549 0.6083
9.6000 6.3682 0.6110
9.6200 6.3816 0.6112
9.6400 6.3949 0.6118
9.6600 6.4083 0.6120
9.6800 6.4216 0.6138
9.7000 6.4349 0.6131
9.7200 6.4482 0.6155
9.7400 6.4615 0.6161
9.7600 6.4748 0.6170
9.7800 6.4881 0.6183
9.8000 6.5014 0.6196
9.8200 6.5148 0.6193
9.8400 6.5282 0.6213
9.8600 6.5415 0.6216
9.8800 6.5548 0.6228
9.9000 6.5682 0.6235
9.9200 6.5816 0.6240
9.9400 6.5949 0.6247
9.9600 6.6083 0.6244
9.9800 6.6216 0.6280
10.0000 6.6349 0.6259
10.0200 6.6483 0.6292
10.0400 6.6615 0.6286
10.0600 6.6748 0.6307
10.0800 6.6882 0.6305
10.1000 6.7015 0.6331
10.1200 6.7149 0.6319
10.1400 6.7282 0.6347
10.1600 6.7415 0.6338
10.1800 6.7548 0.6354
10.2000 6.7682 0.6361
10.2200 6.7815 0.6379
10.2400 6.7948 0.6379
10.2600 6.8082 0.6384
10.2800 6.8216 0.6404
10.3000 6.8349 0.6397
10.3200 6.8482 0.6423
10.3400 6.8615 0.6434
10.3600 6.8749 0.6435
10.3800 6.8883 0.6439
10.4000 6.9016 0.6464
10.4200 6.9148 0.6455
10.4400 6.9281 0.6482
10.4600 6.9415 0.6472
10.4800 6.9548 0.6483
10.5000 6.9682 0.6485
10.5200 6.9815 0.6511
10.5400 6.9948 0.6512
10.5600 7.0081 0.6521
10.5800 7.0215 0.6541
10.6000 7.0348 0.6527
10.6200 7.0482 0.6554
10.6400 7.0616 0.6558
10.6600 7.0749 0.6571
10.6800 7.0882 0.6569
10.7000 7.1015 0.6596
10.7200 7.1149 0.6581
10.7400 7.1282 0.6614
10.7600 7.1415 0.6610
10.7800 7.1549 0.6629
10.8000 7.1682 0.6621
10.8200 7.1815 0.6653
10.8400 7.1949 0.6635
10.8600 7.2081 0.6664
10.8800 7.2214 0.6659
10.9000 7.2348 0.6666
10.9200 7.2481 0.6670
10.9400 7.2614 0.6690
10.9600 7.2748 0.6693
10.9800 7.2882 0.6701
11.0000 7.3016 0.6722
11.0200 7.3150 0.6709
11.0400 7.3283 0.6734
11.0600 7.3416 0.6736
11.0800 7.3550 0.6750
11.1000 7.3683 0.6738
11.1200 7.3816 0.6781
11.1400 7.3948 0.6753
11.1600 7.4081 0.6785
11.1800 7.4215 0.6771
11.2000 7.4348 0.6796
11.2200 7.4481 0.6784
11.2400 7.4614 0.6812
11.2600 7.4748 0.6808
11.2800 7.4882 0.6813
11.3000 7.5015 0.6838
11.3200 7.5149 0.6831
11.3400 7.5282 0.6855
11.3600 7.5416 0.6853
11.3800 7.5549 0.6862
11.4000 7.5682 0.6866
11.4200 7.5816 0.6890
11.4400 7.5949 0.6873
11.4600 7.6082 0.6900
11.4800 7.6215 0.6901
11.5000 7.6348 0.6919
11.5200 7.6482 0.6906
11.5400 7.6615 0.6938
11.5600 7.6749 0.6926
11.5800 7.6882 0.6939
11.6000 7.7015 0.6954
11.6200 7.7148 0.6956
11.6400 7.7282 0.6961
11.6600 7.7415 0.6978
11.6800 7.7548 0.6982
11.7000 7.7682 0.6990
11.7200 7.7816 0.7006
11.7400 7.7949 0.7006
11.7600 7.8082 0.7023
11.7800 7.8215 0.7023
11.8000 7.8349 0.7044
11.8200 7.8483 0.7025
11.8400 7.8616 0.7065
11.8600 7.8748 0.7051
11.8800 7.8882 0.7072
11.9000 7.9015 0.7075
11.9200 7.9148 0.7084
11.9400 7.9281 0.7092
11.9600 7.9414 0.7102
11.9800 7.9548 0.7113
12.0000 7.9682 0.7102
12.0200 7.9815 0.7140
12.0400 7.9948 0.7112
12.0600 8.0082 0.7153
12.0800 8.0216 0.7129
12.1000 8.0349 0.7173
12.1200 8.0482 0.7125
12.1400 8.0615 0.7195
12.1600 8.0749 0.7158
12.1800 8.0882 0.7196
12.2000 8.1016 0.7188
12.2200 8.1149 0.7209
12.2400 8.1282 0.7205
12.2600 8.1415 0.7225
12.2800 8.1549 0.7231
12.3000 8.1682 0.7228
12.3200 8.1815 0.7258
12.3400 8.1948 0.7245
12.3600 8.2082 0.7265
12.3800 8.2215 0.7255
12.4000 8.2348 0.7292
12.4200 8.2482 0.7262
12.4400 8.2615 0.7312
12.4600 8.2749 0.7279
12.4800 8.2882 0.7317
12.5000 8.3015 0.7299
12.5200 8.3149 0.7324
12.5400 8.3283 0.7316
12.5600 8.3416 0.7342
12.5800 8.3549 0.7334
12.6000 8.3682 0.7346
12.6200 8.3816 0.7358
12.6400 8.3949 0.7366
12.6600 8.4082 0.7371
12.6800 8.4215 0.7376
12.7000 8.4348 0.7399
12.7200 8.4481 0.7385
12.7400 8.4614 0.7418
12.7600 8.4748 0.7396
12.7800 8.4881 0.7426
12.8000 8.5016 0.7406
12.8200 8.5149 0.7445
12.8400 8.5282 0.7420
12.8600 8.5415 0.7465
12.8800 8.5549 0.7447
12.9000 8.5683 0.7468
12.9200 8.5816 0.7464
12.9400 8.5949 0.7490
12.9600 8.6082 0.7480
12.9800 8.6215 0.7499
13.0000 8.6349 0.7505
13.0200 8.6482 0.7499
13.0400 8.6615 0.7541
13.0600 8.6748 0.7512
13.0800 8.6881 0.7550
13.1000 8.7015 0.7529
13.1200 8.7148 0.7572
13.1400 8.7282 0.7530
13.1600 8.7415 0.7588
13.1800 8.7549 0.7561
13.2000 8.7682 0.7586
13.2200 8.7815 0.7586
13.2400 8.7949 0.7608
13.2600 8.8082 0.7595
13.2800 8.8216 0.7615
13.3000 8.8348 0.7623
13.3200 8.8481 0.7623
13.3400 8.8615 0.7639
13.3600 8.8748 0.7634
13.3800 8.8881 0.7648
13.4000 8.9015 0.7643
13.4200 8.9148 0.7682
13.4400 8.9282 0.7649
13.4600 8.9415 0.7694
13.4800 8.9549 0.7664
13.5000 8.9682 0.7695
13.5200 8.9816 0.7681
13.5400 8.9949 0.7716
13.5600 9.0082 0.7695
13.5800 9.0215 0.7727
13.6000 9.0349 0.7723
13.6200 9.0482 0.7737
13.6400 9.0616 0.7740
13.6600 9.0749 0.7756
13.6800 9.0882 0.7754
13.7000 9.1015 0.7764
13.7200 9.1149 0.7778
13.7400 9.1282 0.7766
13.7600 9.1415 0.7801
13.7800 9.1548 0.7787
13.8000 9.1682 0.7810
13.8200 9.1815 0.7797
13.8400 9.1948 0.7830
13.8600 9.2081 0.7803
13.8800 9.2215 0.7836
13.9000 9.2349 0.7821
13.9200 9.2482 0.7843
13.9400 9.2615 0.7839
13.9600 9.2749 0.7865
13.9800 9.2883 0.7855
14.0000 9.3016 0.7868
14.0200 9.3149 0.7885
14.0400 9.3282 0.7881
14.0600 9.3415 0.7906
14.0800 9.3549 0.7887
14.1000 9.3682 0.7921
14.1200 9.3815 0.7897
14.1400 9.3948 0.7944
14.1600 9.4081 0.7909
14.1800 9.4215 0.7949
14.2000 9.4348 0.7929
14.2200 9.4482 0.7957
14.2400 9.4615 0.7949
14.2600 9.4749 0.7979
14.2800 9.4882 0.7959
14.3000 9.5015 0.7980
14.3200 9.5149 0.7997
14.3400 9.5282 0.7979
14.3600 9.5416 0.8016
14.3800 9.5549 0.7996
14.4000 9.5682 0.8034
14.4200 9.5815 0.8004
14.4400 9.5949 0.8048
14.4600 9.6082 0.8028
14.4800 9.6215 0.8050
14.5000 9.6348 0.8051
14.5200 9.6482 0.8063
14.5400 9.6615 0.8059
14.5600 9.6748 0.8086
14.5800 9.6881 0.8074
14.6000 9.7015 0.8096
14.6200 9.7149 0.8093
14.6400 9.7282 0.8103
14.6600 9.7415 0.8109
14.6800 9.7549 0.8126
14.7000 9.7683 0.8123
14.7200 9.7816 0.8123
14.7400 9.7949 0.8152
14.7600 9.8082 0.8139
14.7800 9.8215 0.8162
14.8000 9.8349 0.8152
14.8200 9.8482 0.8175
14.8400 9.8615 0.8156
14.8600 9.8748 0.8200
14.8800 9.8881 0.8158
14.9000 9.9015 0.8202
14.9200 9.9148 0.8185
14.9400 9.9281 0.8217
14.9600 9.9415 0.8199
14.9800 9.9549 0.8232
15.0000 9.9683 0.8222
15.0200 9.9816 0.8227
15.0400 9.9949 0.8265
15.0600 10.0083 0.8233
15.0800 10.0216 0.8274
15.1000 10.0349 0.8255
15.1200 10.0482 0.8292
15.1400 10.0615 0.8263
15.1600 10.0748 0.8315
15.1800 10.0881 0.8277
15.2000 10.1015 0.8315
15.2200 10.1148 0.8307
15.2400 10.1281 0.8323
15.2600 10.1415 0.8313
15.2800 10.1548 0.8343
15.3000 10.1682 0.8330
15.3200 10.1816 0.8329
15.3400 10.1949 0.8346
15.3600 10.2083 0.8336
15.3800 10.2216 0.8366
15.4000 10.2349 0.8363
15.4200 10.2482 0.8380
15.4400 10.2616 0.8365
15.4600 10.2749 0.8405
15.4800 10.2882 0.8375
15.5000 10.3015 0.8422
15.5200 10.3148 0.8392
15.5400 10.3282 0.8430
15.5600 10.3415 0.8392
15.5800 10.3548 0.8450
15.6000 10.3681 0.8408
15.6200 10.3815 0.8449
15.6400 10.3948 0.8439
15.6600 10.4082 0.8456
15.6800 10.4215 0.8457
15.7000 10.4349 0.8466
15.7200 10.4483 0.8479
15.7400 10.4615 0.8465
15.7600 10.4748 0.8513
15.7800 10.4882 0.8474
15.8000 10.5016 0.8521
15.8200 10.5149 0.8492
15.8400 10.5282 0.8534
15.8600 10.5416 0.8505
15.8800 10.5549 0.8550
15.9000 10.5682 0.8523
15.9200 10.5815 0.8550
15.9400 10.5948 0.8552
15.9600 10.6081 0.8560
15.9800 10.6215 0.8563
16.0000 10.6348 0.8569
16.0200 10.6481 0.8589
16.0400 10.6615 0.8567
16.0600 10.6749 0.8609
16.0800 10.6883 0.8586
16.1000 10.7016 0.8615
16.1200 10.7149 0.8596
16.1400 10.7283 0.8624
16.1600 10.7416 0.8601
16.1800 10.7549 0.8634
16.2000 10.7682 0.8615
16.2200 10.7815 0.8645
16.2400 10.7948 0.8636
16.2600 10.8082 0.8658
16.2800 10.8215 0.8647
16.3000 10.8348 0.8677
16.3200 10.8481 0.8670
16.3400 10.8615 0.8674
16.3600 10.8748 0.8694
16.3800 10.8881 0.8689
16.4000 10.9015 0.8703
16.4200 10.9149 0.8703
16.4400 10.9283 0.8723
16.4600 10.9416 0.8706
16.4800 10.9549 0.8745
16.5000 10.9683 0.8717
16.5200 10.9816 0.8756
16.5400 10.9949 0.8732
16.5600 11.0082 0.8776
16.5800 11.0215 0.8741
16.6000 11.0348 0.8788
16.6200 11.0482 0.8760
16.6400 11.0615 0.8783
16.6600 11.0748 0.8792
16.6800 11.0881 0.8795
16.7000 11.1015 0.8799
16.7200 11.1149 0.8809
16.7400 11.1282 0.8825
16.7600 11.1415 0.8815
16.7800 11.1549 0.8837
16.8000 11.1682 0.8823
16.8200 11.1816 0.8847
16.8400 11.1949 0.8828
16.8600 11.2082 0.8870
16.8800 11.2216 0.8837
16.9000 11.2349 0.8886
16.9200 11.2482 0.8867
16.9400 11.2615 0.8884
16.9600 11.2749 0.8892
16.9800 11.2882 0.8898
17.0000 11.3015 0.8905
17.0200 11.3148 0.8911
17.0400 11.3281 0.8930
17.0600 11.3415 0.8912
17.0800 11.3548 0.8943
17.1000 11.3682 0.8927
17.1200 11.3815 0.8958
17.1400 11.3949 0.8941
17.1600 11.4083 0.8972
17.1800 11.4216 0.8947
17.2000 11.4349 0.8984
17.2200 11.4482 0.8969
17.2400 11.4616 0.8981
17.2600 11.4749 0.8988
17.2800 11.4882 0.9003
17.3000 11.5015 0.8994
17.3200 11.5148 0.9010
17.3400 11.5282 0.9001
17.3600 11.5415 0.9012
17.3800 11.5548 0.9021
17.4000 11.5682 0.9025
17.4200 11.5815 0.9032
17.4400 11.5948 0.9037
17.4600 11.6082 0.9056
17.4800 11.6215 0.9036
17.5000 11.6349 0.9076
17.5200 11.6482 0.9056
17.5400 11.6615 0.9084
17.5600 11.6748 0.9068
17.5800 11.6881 0.9100
17.6000 11.7015 0.9081
17.6200 11.7149 0.9105
17.6400 11.7282 0.9096
17.6600 11.7415 0.9104
17.6800 11.7548 0.9109
17.7000 11.7682 0.9112
17.7200 11.7815 0.9125
17.7400 11.7948 0.9123
17.7600 11.8081 0.9149
17.7800 11.8215 0.9128
17.8000 11.8348 0.9164
17.8200 11.8482 0.9142
17.8400 11.8615 0.9173
17.8600 11.8749 0.9168
17.8800 11.8882 0.9181
17.9000 11.9015 0.9179
17.9200 11.9149 0.9195
17.9400 11.9282 0.9205
17.9600 11.9416 0.9197
17.9800 11.9549 0.9221
18.0000 11.9682 0.9218
18.0200 11.9815 0.9227
18.0400 11.9948 0.9232
18.0600 12.0082 0.9241
18.0800 12.0215 0.9246
18.1000 12.0348 0.9246
18.1200 12.0481 0.9261
18.1400 12.0615 0.9260
18.1600 12.0748 0.9268
18.1800 12.0881 0.9279
18.2000 12.1015 0.9277
18.2200 12.1149 0.9294
18.2400 12.1283 0.9288
18.2600 12.1416 0.9303
18.2800 12.1550 0.9296
18.3000 12.1683 0.9321
18.3200 12.1816 0.9305
18.3400 12.1949 0.9332
18.3600 12.2082 0.9332
18.3800 12.2215 0.9345
18.4000 12.2348 0.9339
18.4200 12.2482 0.9358
18.4400 12.2615 0.9353
18.4600 12.2748 0.9364
18.4800 12.2881 0.9382
18.5000 12.3015 0.9362
18.5200 12.3149 0.9399
18.5400 12.3282 0.9378
18.5600 12.3415 0.9407
18.5800 12.3549 0.9389
18.6000 12.3683 0.9418
18.6200 12.3816 0.9400
18.6400 12.3949 0.9426
18.6600 12.4082 0.9422
18.6800 12.4215 0.9434
18.7000 12.4349 0.9428
18.7200 12.4482 0.9440
18.7400 12.4615 0.9443
18.7600 12.4748 0.9444
18.7800 12.4882 0.9469
18.8000 12.5015 0.9447
18.8200 12.5148 0.9480
18.8400 12.5281 0.9470
18.8600 12.5415 0.9488
18.8800 12.5548 0.9486
18.9000 12.5682 0.9506
18.9200 12.5815 0.9497
18.9400 12.5949 0.9504
18.9600 12.6082 0.9507
18.9800 12.6216 0.9513
19.0000 12.6349 0.9514
19.0200 12.6482 0.9536
19.0400 12.6616 0.9520
19.0600 12.6749 0.9543
19.0800 12.6882 0.9550
19.1000 12.7015 0.9559
19.1200 12.7148 0.9561
19.1400 12.7282 0.9572
19.1600 12.7415 0.9573
19.1800 12.7548 0.9582
19.2000 12.7681 0.9600
19.2200 12.7815 0.9586
19.2400 12.7948 0.9611
19.2600 12.8082 0.9602
19.2800 12.8215 0.9633
19.3000 12.8349 0.9607
19.3200 12.8483 0.9649
19.3400 12.8616 0.9614
19.3600 12.8749 0.9661
19.3800 12.8882 0.9642
19.4000 12.9016 0.9666
19.4200 12.9149 0.9653
19.4400 12.9282 0.9674
19.4600 12.9415 0.9681
19.4800 12.9548 0.9682
19.5000 12.9682 0.9699
19.5200 12.9815 0.9689
19.5400 12.9948 0.9702
19.5600 13.0081 0.9710
19.5800 13.0215 0.9720
19.6000 13.0348 0.9712
19.6200 13.0482 0.9732
19.6400 13.0615 0.9724
19.6600 13.0749 0.9736
19.6800 13.0882 0.9739
19.7000 13.1016 0.9746
19.7200 13.1149 0.9744
19.7400 13.1282 0.9768
19.7600 13.1416 0.9758
19.7800 13.1549 0.9774
19.8000 13.1683 0.9779
19.8200 13.1816 0.9789
19.8400 13.1949 0.9783
19.8600 13.2082 0.9813
19.8800 13.2215 0.9796
19.9000 13.2348 0.9813
19.9200 13.2481 0.9820
19.9400 13.2615 0.9822
19.9600 13.2748 0.9830
19.9800 13.2881 0.9835
20.0000 13.3014 0.9851
20.0200 13.3148 0.9840
20.0400 13.3282 0.9867
20.0600 13.3416 0.9849
20.0800 13.3549 0.9881
20.1000 13.3682 0.9868
20.1200 13.3816 0.9888
20.1400 13.3950 0.9877
20.1600 13.4082 0.9900
20.1800 13.4215 0.9898
20.2000 13.4348 0.9900
20.2200 13.4482 0.9923
20.2400 13.4615 0.9909
20.2600 13.4748 0.9929
20.2800 13.4881 0.9926
20.3000 13.5014 0.9940
20.3200 13.5148 0.9923
20.3400 13.5281 0.9953
20.3600 13.5415 0.9937
20.3800 13.5548 0.9958
20.4000 13.5682 0.9959
20.4200 13.5816 0.9969
20.4400 13.5949 0.9969
20.4600 13.6082 0.9989
20.4800 13.6216 0.9981
20.5000 13.6349 0.9987
20.5200 13.6482 1.0008
20.5400 13.6615 1.0002
20.5600 13.6748 1.0017
20.5800 13.6882 1.0007
20.6000 13.7015 1.0036
20.6200 13.7148 1.0011
20.6400 13.7281 1.0058
20.6600 13.7415 1.0024
20.6800 13.7549 1.0061
20.7000 13.7682 1.0042
20.7200 13.7816 1.0074
20.7400 13.7949 1.0057
20.7600 13.8082 1.0088
20.7800 13.8216 1.0080
20.8000 13.8349 1.0082
20.8200 13.8482 1.0097
20.8400 13.8615 1.0102
20.8600 13.8749 1.0097
20.8800 13.8882 1.0112
20.9000 13.9015 1.0127
20.9200 13.9149 1.0111
20.9400 13.9282 1.0143
20.9600 13.9416 1.0109
20.9800 13.9548 1.0149
21.0000 13.9681 1.0121
21.0200 13.9815 1.0168
21.0400 13.9948 1.0128
21.0600 14.0082 1.0180
21.0800 14.0215 1.0152
21.1000 14.0348 1.0187
21.1200 14.0482 1.0169
21.1400 14.0616 1.0202
21.1600 14.0749 1.0180
21.1800 14.0882 1.0209
21.2000 14.1016 1.0210
21.2200 14.1149 1.0210
21.2400 14.1282 1.0231
21.2600 14.1415 1.0217
21.2800 14.1548 1.0253
21.3000 14.1682 1.0220
21.3200 14.1815 1.0270
21.3400 14.1948 1.0231
21.3600 14.2081 1.0281
21.3800 14.2215 1.0256
21.4000 14.2348 1.0288
21.4200 14.2482 1.0272
21.4400 14.2615 1.0303
21.4600 14.2748 1.0282
21.4800 14.2882 1.0313
21.5000 14.3016 1.0297
21.5200 14.3149 1.0314
21.5400 14.3282 1.0316
21.5600 14.3416 1.0325
21.5800 14.3549 1.0337
21.6000 14.3682 1.0332
21.6200 14.3815 1.0362
21.6400 14.3949 1.0340
21.6600 14.4082 1.0362
21.6800 14.4215 1.0345
21.7000 14.4348 1.0374
21.7200 14.4481 1.0358
21.7400 14.4615 1.0390
21.7600 14.4748 1.0359
21.7800 14.4882 1.0407
21.8000 14.5015 1.0378
21.8200 14.5148 1.0420
21.8400 14.5282 1.0392
21.8600 14.5416 1.0412
21.8800 14.5549 1.0398
21.9000 14.5682 1.0418
21.9200 14.5816 1.0427
21.9400 14.5949 1.0423
21.9600 14.6083 1.0448
21.9800 14.6216 1.0432
22.0000 14.6349 1.0456
22.0200 14.6482 1.0445
22.0400 14.6615 1.0474
22.0600 14.6748 1.0447
22.0800 14.6881 1.0489
22.1000 14.7015 1.0454
22.1200 14.7148 1.0496
22.1400 14.7282 1.0467
22.1600 14.7415 1.0508
22.1800 14.7549 1.0489
22.2000 14.7682 1.0508
22.2200 14.7816 1.0512
22.2400 14.7949 1.0513
22.2600 14.8082 1.0527
22.2800 14.8216 1.0528
22.3000 14.8349 1.0533
22.3200 14.8483 1.0536
22.3400 14.8616 1.0559
22.3600 14.8748 1.0543
22.3800 14.8881 1.0574
22.4000 14.9015 1.0563
22.4200 14.9148 1.0582
22.4400 14.9281 1.0570
22.4600 14.9415 1.0596
22.4800 14.9548 1.0583
22.5000 14.9681 1.0604
22.5200 14.9815 1.0599
22.5400 14.9949 1.0608
22.5600 15.0083 1.0613
22.5800 15.0216 1.0616
22.6000 15.0349 1.0632
22.6200 15.0482 1.0625
22.6400 15.0615 1.0649
22.6600 15.0749 1.0630
22.6800 15.0882 1.0665
22.7000 15.1015 1.0651
22.7200 15.1148 1.0679
22.7400 15.1282 1.0660
22.7600 15.1415 1.0704
22.7800 15.1548 1.0667
22.8000 15.1681 1.0707
22.8200 15.1815 1.0683
22.8400 15.1948 1.0723
22.8600 15.2082 1.0693
22.8800 15.2215 1.0734
22.9000 15.2348 1.0719
22.9200 15.2482 1.0733
22.9400 15.2616 1.0743
22.9600 15.2749 1.0735
22.9800 15.2882 1.0754
23.0000 15.3015 1.0750
23.0200 15.3149 1.0765
23.0400 15.3283 1.0755
23.0600 15.3416 1.0790
23.0800 15.3549 1.0769
23.1000 15.3682 1.0793
23.1200 15.3816 1.0771
23.1400 15.3949 1.0793
23.1600 15.4081 1.0772
23.1800 15.4214 1.0795
23.2000 15.4347 1.0787
23.2200 15.4481 1.0796
23.2400 15.4614 1.0811
23.2600 15.4748 1.0811
23.2800 15.4882 1.0830
23.3000 15.5016 1.0831
23.3200 15.5149 1.0844
23.3400 15.5282 1.0837
23.3600 15.5416 1.0863
23.3800 15.5550 1.0852
23.4000 15.5683 1.0869
23.4200 15.5816 1.0869
23.4400 15.5949 1.0895
23.4600 15.6082 1.0871
23.4800 15.6215 1.0906
23.5000 15.6348 1.0889
23.5200 15.6481 1.0913
23.5400 15.6614 1.0905
23.5600 15.6748 1.0923
23.5800 15.6882 1.0911
23.6000 15.7015 1.0931
23.6200 15.7148 1.0934
23.6400 15.7282 1.0935
23.6600 15.7416 1.0945
23.6800 15.7549 1.0944
23.7000 15.7683 1.0966
23.7200 15.7816 1.0949
23.7400 15.7949 1.0987
23.7600 15.8083 1.0947
23.7800 15.8216 1.1010
23.8000 15.8349 1.0965
23.8200 15.8482 1.1005
23.8400 15.8615 1.0988
23.8600 15.8748 1.1015
23.8800 15.8881 1.1000
23.9000 15.9014 1.1028
23.9200 15.9148 1.1027
23.9400 15.9282 1.1030
23.9600 15.9415 1.1037
23.9800 15.9548 1.1041
24.0000 15.9682 1.1055
24.0200 15.9816 1.1044
24.0400 15.9949 1.1075
24.0600 16.0082 1.1054
24.0800 16.0216 1.1094
24.1000 16.0349 1.1065
24.1200 16.0483 1.1102
24.1400 16.0616 1.1087
24.1600 16.0749 1.1111
24.1800 16.0882 1.1101
24.2000 16.1015 1.1117
24.2200 16.1148 1.1121
24.2400 16.1281 1.1127
24.2600 16.1414 1.1143
24.2800 16.1548 1.1138
24.3000 16.1682 1.1138
24.3200 16.1815 1.1145
24.3400 16.1948 1.1152
24.3600 16.2082 1.1139
24.3800 16.2216 1.1164
24.4000 16.2349 1.1156
24.4200 16.2482 1.1177
24.4400 16.2616 1.1166
24.4600 16.2749 1.1191
24.4800 16.2883 1.1179
24.5000 16.3016 1.1206
24.5200 16.3149 1.1199
24.5400 16.3282 1.1211
24.5600 16.3415 1.1209
24.5800 16.3549 1.1230
24.6000 16.3682 1.1224
24.6200 16.3815 1.1236
24.6400 16.3948 1.1243
24.6600 16.4082 1.1235
24.6800 16.4215 1.1267
24.7000 16.4348 1.1250
24.7200 16.4482 1.1280
24.7400 16.4616 1.1256
24.7600 16.4749 1.1292
24.7800 16.4882 1.1268
24.8000 16.5015 1.1308
24.8200 16.5148 1.1290
24.8400 16.5282 1.1303
24.8600 16.5416 1.1304
24.8800 16.5549 1.1321
24.9000 16.5682 1.1316
24.9200 16.5815 1.1334
24.9400 16.5949 1.1336
24.9600 16.6082 1.1335
24.9800 16.6215 1.1352
25.0000 16.6348 1.1352
25.0200 16.6482 1.1359
25.0400 16.6615 1.1357
25.0600 16.6748 1.1383
25.0800 16.6882 1.1364
25.1000 16.7015 1.1392
25.1200 16.7148 1.1386
25.1400 16.7281 1.1398
25.1600 16.7415 1.1397
25.1800 16.7549 1.1414
25.2000 16.7683 1.1404
25.2200 16.7816 1.1421
25.2400 16.7949 1.1430
25.2600 16.8082 1.1427
25.2800 16.8215 1.1436
25.3000 16.8348 1.1436
25.3200 16.8481 1.1440
25.3400 16.8614 1.1443
25.3600 16.8748 1.1460
25.3800 16.8881 1.1449
25.4000 16.9015 1.1474
25.4200 16.9148 1.1468
25.4400 16.9282 1.1481
25.4600 16.9416 1.1477
25.4800 16.9549 1.1500
25.5000 16.9683 1.1487
25.5200 16.9816 1.1510
25.5400 16.9949 1.1502
25.5600 17.0083 1.1526
25.5800 17.0216 1.1507
25.6000 17.0348 1.1554
25.6200 17.0481 1.1521
25.6400 17.0615 1.1554
25.6600 17.0748 1.1545
25.6800 17.0881 1.1552
25.7000 17.1015 1.1563
25.7200 17.1148 1.1560
25.7400 17.1282 1.1585
25.7600 17.1415 1.1561
25.7800 17.1549 1.1603
25.8000 17.1682 1.1570
25.8200 17.1816 1.1617
25.8400 17.1949 1.1587
25.8600 17.2082 1.1621
25.8800 17.2216 1.1596
25.9000 17.2349 1.1636
25.9200 17.2483 1.1613
25.9400 17.2616 1.1644
25.9600 17.2748 1.1638
25.9800 17.2882 1.1648
26.0000 17.3015 1.1650
26.0200 17.3149 1.1651
26.0400 17.3282 1.1668
26.0600 17.3415 1.1651
26.0800 17.3548 1.1675
26.1000 17.3682 1.1662
26.1200 17.3815 1.1677
26.1400 17.3948 1.1683
26.1600 17.4082 1.1695
26.1800 17.4215 1.1688
26.2000 17.4349 1.1715
26.2200 17.4482 1.1710
26.2400 17.4615 1.1723
26.2600 17.4749 1.1722
26.2800 17.4883 1.1740
26.3000 17.5016 1.1737
26.3200 17.5149 1.1749
26.3400 17.5282 1.1754
26.3600 17.5415 1.1753
26.3800 17.5549 1.1775
26.4000 17.5682 1.1770
26.4200 17.5815 1.1787
26.4400 17.5948 1.1778
26.4600 17.6082 1.1794
26.4800 17.6215 1.1787
26.5000 17.6348 1.1817
26.5200 17.6482 1.1794
26.5400 17.6616 1.1826
26.5600 17.6749 1.1802
26.5800 17.6882 1.1841
26.6000 17.7016 1.1822
26.6200 17.7149 1.1852
26.6400 17.7282 1.1835
26.6600 17.7416 1.1852
26.6800 17.7548 1.1864
26.7000 17.7682 1.1863
26.7200 17.7815 1.1873
26.7400 17.7949 1.1867
26.7600 17.8082 1.1890
26.7800 17.8215 1.1875
26.8000 17.8348 1.1902
26.8200 17.8482 1.1883
26.8400 17.8615 1.1909
26.8600 17.8748 1.1895
26.8800 17.8882 1.1927
26.9000 17.9015 1.1909
26.9200 17.9149 1.1938
26.9400 17.9282 1.1924
26.9600 17.9415 1.1945
26.9800 17.9549 1.1949
27.0000 17.9683 1.1955
27.0200 17.9816 1.1958
27.0400 17.9949 1.1971
27.0600 18.0082 1.1965
27.0800 18.0215 1.1971
27.1000 18.0349 1.1986
27.1200 18.0482 1.1985
27.1400 18.0615 1.1994
27.1600 18.0748 1.1997
27.1800 18.0881 1.2013
27.2000 18.1014 1.1999
27.2200 18.1148 1.2041
27.2400 18.1281 1.2013
27.2600 18.1416 1.2046
27.2800 18.1549 1.2028
27.3000 18.1683 1.2057
27.3200 18.1816 1.2040
27.3400 18.1949 1.2074
27.3600 18.2083 1.2054
27.3800 18.2216 1.2064
27.4000 18.2349 1.2073
27.4200 18.2482 1.2075
27.4400 18.2615 1.2083
27.4600 18.2749 1.2083
27.4800 18.2882 1.2105
27.5000 18.3014 1.2090
27.5200 18.3148 1.2122
27.5400 18.3281 1.2107
27.5600 18.3415 1.2140
27.5800 18.3548 1.2116
27.6000 18.3682 1.2161
27.6200 18.3815 1.2131
27.6400 18.3949 1.2169
27.6600 18.4083 1.2147
27.6800 18.4216 1.2174
27.7000 18.4349 1.2163
27.7200 18.4482 1.2187
27.7400 18.4616 1.2173
27.7600 18.4749 1.2201
27.7800 18.4882 1.2203
27.8000 18.5015 1.2202
27.8200 18.5148 1.2223
27.8400 18.5282 1.2212
27.8600 18.5415 1.2234
27.8800 18.5548 1.2217
27.9000 18.5682 1.2256
27.9200 18.5815 1.2222
27.9400 18.5949 1.2269
27.9600 18.6082 1.2251
27.9800 18.6216 1.2273
28.0000 18.6349 1.2261
28.0200 18.6482 1.2284
28.0400 18.6615 1.2279
28.0600 18.6749 1.2295
28.0800 18.6882 1.2290
28.1000 18.7016 1.2298
28.1200 18.7149 1.2316
28.1400 18.7282 1.2312
28.1600 18.7415 1.2324
28.1800 18.7549 1.2316
28.2000 18.7682 1.2347
28.2200 18.7815 1.2324
28.2400 18.7948 1.2365
28.2600 18.8082 1.2344
28.2800 18.8215 1.2369
28.3000 18.8348 1.2353
28.3200 18.8481 1.2386
28.3400 18.8615 1.2367
28.3600 18.8749 1.2395
28.3800 18.8882 1.2384
28.4000 18.9015 1.2407
28.4200 18.9149 1.2406
28.4400 18.9283 1.2417
28.4600 18.9416 1.2415
28.4800 18.9549 1.2418
28.5000 18.9682 1.2449
28.5200 18.9815 1.2411
28.5400 18.9949 1.2450
28.5600 19.0082 1.2415
28.5800 19.0215 1.2456
28.6000 19.0348 1.2430
28.6200 19.0481 1.2475
28.6400 19.0615 1.2437
28.6600 19.0748 1.2486
28.6800 19.0882 1.2460
28.7000 19.1015 1.2497
28.7200 19.1149 1.2479
28.7400 19.1282 1.2510
28.7600 19.1415 1.2495
28.7800 19.1549 1.2512
28.8000 19.1683 1.2522
28.8200 19.1816 1.2520
28.8400 19.1949 1.2541
28.8600 19.2082 1.2538
28.8800 19.2215 1.2551
28.9000 19.2349 1.2552
28.9200 19.2482 1.2568
28.9400 19.2615 1.2563
28.9600 19.2748 1.2588
28.9800 19.2882 1.2580
29.0000 19.3015 1.2592
29.0200 19.3148 1.2586
29.0400 19.3282 1.2616
29.0600 19.3415 1.2590
29.0800 19.3549 1.2625
29.1000 19.3682 1.2609
29.1200 19.3815 1.2638
29.1400 19.3949 1.2621
29.1600 19.4082 1.2654
29.1800 19.4216 1.2630
29.2000 19.4349 1.2659
29.2200 19.4482 1.2649
29.2400 19.4615 1.2656
29.2600 19.4749 1.2662
29.2800 19.4882 1.2663
29.3000 19.5015 1.2683
29.3200 19.5148 1.2667
29.3400 19.5281 1.2710
29.3600 19.5415 1.2672
29.3800 19.5548 1.2718
29.4000 19.5682 1.2701
29.4200 19.5815 1.2728
29.4400 19.5949 1.2723
29.4600 19.6083 1.2734
29.4800 19.6216 1.2742
29.5000 19.6349 1.2744
29.5200 19.6482 1.2766
29.5400 19.6616 1.2748
29.5600 19.6749 1.2774
29.5800 19.6882 1.2769
29.6000 19.7015 1.2794
29.6200 19.7148 1.2776
29.6400 19.7281 1.2805
29.6600 19.7415 1.2781
29.6800 19.7548 1.2800
29.7000 19.7681 1.2794
29.7200 19.7815 1.2807
29.7400 19.7948 1.2813
29.7600 19.8082 1.2837
29.7800 19.8215 1.2827
29.8000 19.8349 1.2845
29.8200 19.8483 1.2848
29.8400 19.8616 1.2860
29.8600 19.8749 1.2862
29.8800 19.8883 1.2876
29.9000 19.9016 1.2878
29.9200 19.9149 1.2885
29.9400 19.9282 1.2907
29.9600 19.9415 1.2895
29.9800 19.9548 1.2920
30.0000 19.9682 1.2900
30.0200 19.9815 1.2937
30.0400 19.9948 1.2912
30.0600 20.0081 1.2963
30.0800 20.0215 1.2924
30.1000 20.0348 1.2964
30.1200 20.0482 1.2943
30.1400 20.0615 1.2977
30.1600 20.0749 1.2959
30.1800 20.0882 1.2985
30.2000 20.1015 1.2984
30.2200 20.1149 1.2979
30.2400 20.1282 1.3006
30.2600 20.1416 1.2984
30.2800 20.1549 1.3016
30.3000 20.1682 1.2987
30.3200 20.1815 1.3026
30.3400 20.1949 1.2991
30.3600 20.2083 1.3050
30.3800 20.2215 1.3008
30.4000 20.2348 1.3051
30.4200 20.2481 1.3035
30.4400 20.2614 1.3054
30.4600 20.2748 1.3049
30.4800 20.2881 1.3068
30.5000 20.3015 1.3065
30.5200 20.3149 1.3068
30.5400 20.3283 1.3085
30.5600 20.3416 1.3083
30.5800 20.3549 1.3096
30.6000 20.3683 1.3097
30.6200 20.3816 1.3116
30.6400 20.3949 1.3099
30.6600 20.4082 1.3142
30.6800 20.4215 1.3121
30.7000 20.4348 1.3147
30.7200 20.4482 1.3137
30.7400 20.4615 1.3160
30.7600 20.4748 1.3148
30.7800 20.4881 1.3179
30.8000 20.5015 1.3162
30.8200 20.5148 1.3186
30.8400 20.5282 1.3173
30.8600 20.5415 1.3207
30.8800 20.5549 1.3177
30.9000 20.5683 1.3220
30.9200 20.5816 1.3203
30.9400 20.5949 1.3213
30.9600 20.6083 1.3222
30.9800 20.6216 1.3221
31.0000 20.6349 1.3240
31.0200 20.6482 1.3231
31.0400 20.6615 1.3270
31.0600 20.6748 1.3235
31.0800 20.6882 1.3282
31.1000 20.7015 1.3254
31.1200 20.7148 1.3291
31.1400 20.7281 1.3274
31.1600 20.7415 1.3305
31.1800 20.7548 1.3278
31.2000 20.7682 1.3320
31.2200 20.7815 1.3312
31.2400 20.7949 1.3313
31.2600 20.8083 1.3337
31.2800 20.8216 1.3321
31.3000 20.8349 1.3351
31.3200 20.8483 1.3336
31.3400 20.8616 1.3371
31.3600 20.8749 1.3337
31.3800 20.8882 1.3385
31.4000 20.9015 1.3354
31.4200 20.9148 1.3383
31.4400 20.9282 1.3372
31.4600 20.9415 1.3394
31.4800 20.9548 1.3384
31.5000 20.9681 1.3415
31.5200 20.9815 1.3406
31.5400 20.9948 1.3420
31.5600 21.0082 1.3431
31.5800 21.0215 1.3433
31.6000 21.0349 1.3444
31.6200 21.0483 1.3444
31.6400 21.0616 1.3469
31.6600 21.0749 1.3455
31.6800 21.0882 1.3485
31.7000 21.1016 1.3474
31.7200 21.1149 1.3493
31.7400 21.1282 1.3494
31.7600 21.1415 1.3516
31.7800 21.1549 1.3497
31.8000 21.1682 1.3534
31.8200 21.1815 1.3515
31.8400 21.1948 1.3536
31.8600 21.2082 1.3538
31.8800 21.2215 1.3552
31.9000 21.2349 1.3545
31.9200 21.2482 1.3563
31.9400 21.2615 1.3573
31.9600 21.2749 1.3563
31.9800 21.2882 1.3593
32.0000 21.3015 1.3577
32.0200 21.3148 1.3606
32.0400 21.3281 1.3592
32.0600 21.3415 1.3627
32.0800 21.3549 1.3591
32.1000 21.3682 1.3643
32.1200 21.3815 1.3615
32.1400 21.3948 1.3653
32.1600 21.4082 1.3628
32.1800 21.4215 1.3661
32.2000 21.4348 1.3624
32.2200 21.4482 1.3655
32.2400 21.4615 1.3648
32.2600 21.4749 1.3651
32.2800 21.4882 1.3677
32.3000 21.5015 1.3668
32.3200 21.5148 1.3683
32.3400 21.5282 1.3680
32.3600 21.5415 1.3717
32.3800 21.5548 1.3689
32.4000 21.5682 1.3723
32.4200 21.5816 1.3720
32.4400 21.5949 1.3724
32.4600 21.6082 1.3737
32.4800 21.6215 1.3760
32.5000 21.6349 1.3740
32.5200 21.6482 1.3769
32.5400 21.6615 1.3764
32.5600 21.6748 1.3775
32.5800 21.6881 1.3785
32.6000 21.7015 1.3798
32.6200 21.7148 1.3788
32.6400 21.7281 1.3809
32.6600 21.7415 1.3815
32.6800 21.7549 1.3817
32.7000 21.7683 1.3827
32.7200 21.7816 1.3835
32.7400 21.7949 1.3842
32.7600 21.8083 1.3848
32.7800 21.8216 1.3872
32.8000 21.8350 1.3847
32.8200 21.8482 1.3895
32.8400 21.8615 1.3872
32.8600 21.8748 1.3909
32.8800 21.8882 1.3886
32.9000 21.9015 1.3929
32.9200 21.9148 1.3895
32.9400 21.9281 1.3930
32.9600 21.9415 1.3928
32.9800 21.9549 1.3932
33.0000 21.9682 1.3952
33.0200 21.9815 1.3948
33.0400 21.9949 1.3969
33.0600 22.0083 1.3955
33.0800 22.0216 1.3999
33.1000 22.0349 1.3955
33.1200 22.0482 1.4010
33.1400 22.0616 1.3982
33.1600 22.0749 1.4016
33.1800 22.0882 1.3987
33.2000 22.1015 1.4034
33.2200 22.1148 1.4017
33.2400 22.1282 1.4028
33.2600 22.1415 1.4041
33.2800 22.1548 1.4039
33.3000 22.1681 1.4053
33.3200 22.1815 1.4064
33.3400 22.1948 1.4061
33.3600 22.2082 1.4080
33.3800 22.2215 1.4082
33.4000 22.2349 1.4081
33.4200 22.2482 1.4102
33.4400 22.2616 1.4102
33.4600 22.2749 1.4116
33.4800 22.2882 1.4115
33.5000 22.3016 1.4140
33.5200 22.3149 1.4126
33.5400 22.3282 1.4154
33.5600 22.3415 1.4151
33.5800 22.3548 1.4171
33.6000 22.3682 1.4163
33.6200 22.3815 1.4194
33.6400 22.3948 1.4177
33.6600 22.4081 1.4201
33.6800 22.4215 1.4208
33.7000 22.4348 1.4200
33.7200 22.4482 1.4222
33.7400 22.4615 1.4214
33.7600 22.4749 1.4249
33.7800 22.4882 1.4216
33.8000 22.5016 1.4272
33.8200 22.5149 1.4232
33.8400 22.5282 1.4282
33.8600 22.5416 1.4253
33.8800 22.5549 1.4274
33.9000 22.5682 1.4268
33.9200 22.5815 1.4288
33.9400 22.5948 1.4273
33.9600 22.6082 1.4275
33.9800 22.6215 1.4291
34.0000 22.6348 1.4280
34.0200 22.6481 1.4310
34.0400 22.6615 1.4300
34.0600 22.6748 1.4325
34.0800 22.6882 1.4315
34.1000 22.7015 1.4360
34.1200 22.7149 1.4337
34.1400 22.7282 1.4370
34.1600 22.7416 1.4362
34.1800 22.7549 1.4386
34.2000 22.7682 1.4380
34.2200 22.7815 1.4415
34.2400 22.7949 1.4390
34.2600 22.8083 1.4419
34.2800 22.8216 1.4418
34.3000 22.8349 1.4432
34.3200 22.8482 1.4422
34.3400 22.8615 1.4453
34.3600 22.8748 1.4442
34.3800 22.8882 1.4457
34.4000 22.9015 1.4475
34.4200 22.9148 1.4466
34.4400 22.9281 1.4496
34.4600 22.9414 1.4491
34.4800 22.9548 1.4518
34.5000 22.9682 1.4499
34.5200 22.9816 1.4540
34.5400 22.9949 1.4511
34.5600 23.0082 1.4545
34.5800 23.0216 1.4538
34.6000 23.0349 1.4568
34.6200 23.0483 1.4545
34.6400 23.0615 1.4589
34.6600 23.0748 1.4569
34.6800 23.0882 1.4586
34.7000 23.1015 1.4601
34.7200 23.1148 1.4594
34.7400 23.1281 1.4619
34.7600 23.1415 1.4598
34.7800 23.1548 1.4646
34.8000 23.1681 1.4608
34.8200 23.1815 1.4674
34.8400 23.1948 1.4627
34.8600 23.2082 1.4676
34.8800 23.2216 1.4652
34.9000 23.2349 1.4692
34.9200 23.2482 1.4662
34.9400 23.2616 1.4703
34.9600 23.2749 1.4685
34.9800 23.2882 1.4700
35.0000 23.3015 1.4712
35.0200 23.3148 1.4712
35.0400 23.3282 1.4723
35.0600 23.3415 1.4731
35.0800 23.3548 1.4760
35.1000 23.3681 1.4732
35.1200 23.3815 1.4782
35.1400 23.3949 1.4757
35.1600 23.4082 1.4791
35.1800 23.4215 1.4777
35.2000 23.4349 1.4813
35.2200 23.4482 1.4782
35.2400 23.4616 1.4828
35.2600 23.4749 1.4804
35.2800 23.4882 1.4842
35.3000 23.5015 1.4813
35.3200 23.5149 1.4855
35.3400 23.5282 1.4823
35.3600 23.5416 1.4869
35.3800 23.5549 1.4857
35.4000 23.5682 1.4865
35.4200 23.5816 1.4875
35.4400 23.5949 1.4881
35.4600 23.6082 1.4891
35.4800 23.6215 1.4896
35.5000 23.6348 1.4921
35.5200 23.6482 1.4901
35.5400 23.6615 1.4940
35.5600 23.6748 1.4920
35.5800 23.6882 1.4956
35.6000 23.7015 1.4937
35.6200 23.7149 1.4975
35.6400 23.7282 1.4953
35.6600 23.7416 1.4984
35.6800 23.7549 1.4980
35.7000 23.7683 1.4980
35.7200 23.7815 1.5003
35.7400 23.7949 1.4981
35.7600 23.8082 1.5001
35.7800 23.8216 1.5000
35.8000 23.8349 1.5034
35.8200 23.8481 1.5014
35.8400 23.8614 1.5057
35.8600 23.8748 1.5043
35.8800 23.8881 1.5062
35.9000 23.9015 1.5058
35.9200 23.9148 1.5097
35.9400 23.9282 1.5073
35.9600 23.9415 1.5107
35.9800 23.9549 1.5102
36.0000 23.9682 1.5109
36.0200 23.9815 1.5137
36.0400 23.9949 1.5132
36.0600 24.0082 1.5147
36.0800 24.0215 1.5150
36.1000 24.0349 1.5170
36.1200 24.0482 1.5156
36.1400 24.0615 1.5184
36.1600 24.0749 1.5184
36.1800 24.0881 1.5195
36.2000 24.1015 1.5198
36.2200 24.1148 1.5227
36.2400 24.1282 1.5207
36.2600 24.1415 1.5246
36.2800 24.1548 1.5226
36.3000 24.1682 1.5258
36.3200 24.1815 1.5255
36.3400 24.1949 1.5280
36.3600 24.2082 1.5268
36.3800 24.2216 1.5297
36.4000 24.2349 1.5297
36.4200 24.2483 1.5301
36.4400 24.2616 1.5326
36.4600 24.2749 1.5329
36.4800 24.2882 1.5339
36.5000 24.3016 1.5333
36.5200 24.3148 1.5375
36.5400 24.3281 1.5338
36.5600 24.3415 1.5390
36.5800 24.3548 1.5362
36.6000 24.3682 1.5398
36.6200 24.3815 1.5383
36.6400 24.3948 1.5416
36.6600 24.4082 1.5392
36.6800 24.4216 1.5413
36.7000 24.4349 1.5423
36.7200 24.4483 1.5412
36.7400 24.4616 1.5447
36.7600 24.4749 1.5421
36.7800 24.4883 1.5457
36.8000 24.5016 1.5433
36.8200 24.5148 1.5488
36.8400 24.5281 1.5448
36.8600 24.5415 1.5500
36.8800 24.5548 1.5478
36.9000 24.5681 1.5505
36.9200 24.5815 1.5493
36.9400 24.5948 1.5529
36.9600 24.6082 1.5501
36.9800 24.6215 1.5537
37.0000 24.6349 1.5538
37.0200 24.6482 1.5539
37.0400 24.6616 1.5561
37.0600 24.6749 1.5570
37.0800 24.6882 1.5583
37.1000 24.7016 1.5586
37.1200 24.7149 1.5616
37.1400 24.7283 1.5600
37.1600 24.7415 1.5636
37.1800 24.7548 1.5632
37.2000 24.7682 1.5658
37.2200 24.7815 1.5636
37.2400 24.7948 1.5692
37.2600 24.8081 1.5657
37.2800 24.8215 1.5712
37.3000 24.8348 1.5684
37.3200 24.8482 1.5716
37.3400 24.8615 1.5711
37.3600 24.8748 1.5746
37.3800 24.8882 1.5727
37.4000 24.9016 1.5747
37.4200 24.9149 1.5761
37.4400 24.9282 1.5767
37.4600 24.9415 1.5776
37.4800 24.9549 1.5791
37.5000 24.9683 1.5796
37.5200 24.9816 1.5793
37.5400 24.9949 1.5826
37.5600 25.0082 1.5807
37.5800 25.0216 1.5841
37.6000 25.0349 1.5827
37.6200 25.0482 1.5855
37.6400 25.0615 1.5850
37.6600 25.0748 1.5870
37.6800 25.0881 1.5869
37.7000 25.1015 1.5881
37.7200 25.1148 1.5904
37.7400 25.1282 1.5894
37.7600 25.1416 1.5915
37.7800 25.1549 1.5923
37.8000 25.1682 1.5935
37.8200 25.1816 1.5930
37.8400 25.1949 1.5958
37.8600 25.2083 1.5943
37.8800 25.2216 1.5973
37.9000 25.2349 1.5957
37.9200 25.2482 1.5983
37.9400 25.2615 1.5974
37.9600 25.2748 1.6000
37.9800 25.2881 1.5997
38.0000 25.3014 1.6012
38.0200 25.3148 1.6020
38.0400 25.3281 1.6024
38.0600 25.3415 1.6026
38.0800 25.3548 1.6053
38.1000 25.3682 1.6043
38.1200 25.3816 1.6055
38.1400 25.3949 1.6068
38.1600 25.4082 1.6062
38.1800 25.4216 1.6098
38.2000 25.4349 1.6093
38.2200 25.4483 1.6119
38.2400 25.4616 1.6109
38.2600 25.4749 1.6152
38.2800 25.4882 1.6140
38.3000 25.5015 1.6165
38.3200 25.5148 1.6167
38.3400 25.5281 1.6183
38.3600 25.5414 1.6183
38.3800 25.5548 1.6215
38.4000 25.5682 1.6210
38.4200 25.5815 1.6227
38.4400 25.5948 1.6248
38.4600 25.6082 1.6242
38.4800 25.6216 1.6265
38.5000 25.6349 1.6265
38.5200 25.6482 1.6290
38.5400 25.6616 1.6280
38.5600 25.6749 1.6324
38.5800 25.6883 1.6303
38.6000 25.7016 1.6334
38.6200 25.7149 1.6334
38.6400 25.7282 1.6356
38.6600 25.7415 1.6351
38.6800 25.7548 1.6385
38.7000 25.7681 1.6376
38.7200 25.7814 1.6396
38.7400 25.7948 1.6407
38.7600 25.8082 1.6411
38.7800 25.8215 1.6427
38.8000 25.8349 1.6436
38.8200 25.8482 1.6451
38.8400 25.8616 1.6445
38.8600 25.8749 1.6483
38.8800 25.8882 1.6466
38.9000 25.9016 1.6494
38.9200 25.9149 1.6487
38.9400 25.9283 1.6511
38.9600 25.9416 1.6482
38.9800 25.9549 1.6536
39.0000 25.9682 1.6510
39.0200 25.9815 1.6546
39.0400 25.9949 1.6543
39.0600 26.0082 1.6569
39.0800 26.0215 1.6557
39.1000 26.0348 1.6587
39.1200 26.0482 1.6576
39.1400 26.0615 1.6594
39.1600 26.0748 1.6604
39.1800 26.0882 1.6605
39.2000 26.1016 1.6624
39.2200 26.1149 1.6616
39.2400 26.1282 1.6650
39.2600 26.1415 1.6626
39.2800 26.1548 1.6669
39.3000 26.1682 1.6644
39.3200 26.1816 1.6679
39.3400 26.1949 1.6669
39.3600 26.2082 1.6699
39.3800 26.2215 1.6679
39.4000 26.2349 1.6722
39.4200 26.2482 1.6714
39.4400 26.2615 1.6739
39.4600 26.2748 1.6756
39.4800 26.2882 1.6765
39.5000 26.3015 1.6789
39.5200 26.3148 1.6784
39.5400 26.3282 1.6823
39.5600 26.3415 1.6806
39.5800 26.3549 1.6848
39.6000 26.3682 1.6838
39.6200 26.3815 1.6865
39.6400 26.3949 1.6872
39.6600 26.4082 1.6894
39.6800 26.4215 1.6886
39.7000 26.4349 1.6925
39.7200 26.4482 1.6913
39.7400 26.4615 1.6937
39.7600 26.4749 1.6938
39.7800 26.4882 1.6966
39.8000 26.5015 1.6963
39.8200 26.5148 1.6986
39.8400 26.5281 1.6999
39.8600 26.5415 1.6997
39.8800 26.5548 1.7023
39.9000 26.5682 1.7034
39.9200 26.5816 1.7038
39.9400 26.5949 1.7051
39.9600 26.6083 1.7068
39.9800 26.6216 1.7063
40.0000 26.6349 1.7095
40.0200 26.6483 1.7088
40.0400 26.6616 1.7113
40.0600 26.6748 1.7118
40.0800 26.6881 1.7142
40.1000 26.7015 1.7128
40.1200 26.7148 1.7167
40.1400 26.7281 1.7168
40.1600 26.7415 1.7182
40.1800 26.7548 1.7192
40.2000 26.7682 1.7208
40.2200 26.7815 1.7208
40.2400 26.7949 1.7230
40.2600 26.8082 1.7245
40.2800 26.8216 1.7240
40.3000 26.8349 1.7271
40.3200 26.8482 1.7261
40.3400 26.8615 1.7290
40.3600 26.8748 1.7276
40.3800 26.8882 1.7298
40.4000 26.9015 1.7271
40.4200 26.9148 1.7303
40.4400 26.9281 1.7296
40.4600 26.9415 1.7305
40.4800 26.9549 1.7324
40.5000 26.9682 1.7340
40.5200 26.9815 1.7355
40.5400 26.9948 1.7368
40.5600 27.0082 1.7396
40.5800 27.0215 1.7387
40.6000 27.0348 1.7426
40.6200 27.0482 1.7424
40.6400 27.0616 1.7450
40.6600 27.0749 1.7454
40.6800 27.0882 1.7487
40.7000 27.1016 1.7473
40.7200 27.1149 1.7519
40.7400 27.1283 1.7515
40.7600 27.1416 1.7536
40.7800 27.1549 1.7547
40.8000 27.1682 1.7577
40.8200 27.1815 1.7569
40.8400 27.1949 1.7601
40.8600 27.2082 1.7605
40.8800 27.2215 1.7624
40.9000 27.2348 1.7637
40.9200 27.2482 1.7649
40.9400 27.2615 1.7665
40.9600 27.2748 1.7675
40.9800 27.2882 1.7711
41.0000 27.3015 1.7685
41.0200 27.3149 1.7737
41.0400 27.3283 1.7721
41.0600 27.3416 1.7754
41.0800 27.3549 1.7745
41.1000 27.3683 1.7784
41.1200 27.3816 1.7760
41.1400 27.3949 1.7798
41.1600 27.4082 1.7795
41.1800 27.4215 1.7801
41.2000 27.4349 1.7817
41.2200 27.4482 1.7825
41.2400 27.4615 1.7839
41.2600 27.4748 1.7844
41.2800 27.4882 1.7874
41.3000 27.5015 1.7844
41.3200 27.5148 1.7893
41.3400 27.5282 1.7874
41.3600 27.5415 1.7910
41.3800 27.5549 1.7891
41.4000 27.5682 1.7942
41.4200 27.5815 1.7916
41.4400 27.5949 1.7968
41.4600 27.6083 1.7964
41.4800 27.6216 1.7991
41.5000 27.6349 1.8000
41.5200 27.6482 1.8028
41.5400 27.6615 1.8029
41.5600 27.6749 1.8061
41.5800 27.6882 1.8076
41.6000 27.7015 1.8085
41.6200 27.7148 1.8107
41.6400 27.7281 1.8119
41.6600 27.7414 1.8146
41.6800 27.7547 1.8146
41.7000 27.7681 1.8187
41.7200 27.7815 1.8169
41.7400 27.7949 1.8217
41.7600 27.8082 1.8207
41.7800 27.8215 1.8256
41.8000 27.8349 1.8236
41.8200 27.8483 1.8291
41.8400 27.8616 1.8257
41.8600 27.8749 1.8315
41.8800 27.8882 1.8304
41.9000 27.9015 1.8343
41.9200 27.9149 1.8330
41.9400 27.9282 1.8361
41.9600 27.9415 1.8370
41.9800 27.9548 1.8380
42.0000 27.9681 1.8408
42.0200 27.9815 1.8387
42.0400 27.9948 1.8438
42.0600 28.0081 1.8416
42.0800 28.0215 1.8455
42.1000 28.0349 1.8435
42.1200 28.0483 1.8495
42.1400 28.0616 1.8469
42.1600 28.0749 1.8515
42.1800 28.0883 1.8512
42.2000 28.1016 1.8535
42.2200 28.1149 1.8537
42.2400 28.1282 1.8558
42.2600 28.1415 1.8568
42.2800 28.1548 1.8567
42.3000 28.1682 1.8605
42.3200 28.1815 1.8599
42.3400 28.1948 1.8636
42.3600 28.2081 1.8641
42.3800 28.2215 1.8676
42.4000 28.2349 1.8675
42.4200 28.2482 1.8719
42.4400 28.2616 1.8709
42.4600 28.2749 1.8746
42.4800 28.2882 1.8745
42.5000 28.3015 1.8781
42.5200 28.3148 1.8781
42.5400 28.3282 1.8818
42.5600 28.3416 1.8819
42.5800 28.3549 1.8846
42.6000 28.3682 1.8873
42.6200 28.3816 1.8881
42.6400 28.3949 1.8916
42.6600 28.4082 1.8914
42.6800 28.4215 1.8963
42.7000 28.4348 1.8944
42.7200 28.4481 1.8995
42.7400 28.4615 1.8972
42.7600 28.4748 1.9019
42.7800 28.4881 1.9016
42.8000 28.5015 1.9057
42.8200 28.5149 1.9054
42.8400 28.5282 1.9095
42.8600 28.5416 1.9098
42.8800 28.5549 1.9128
42.9000 28.5682 1.9156
42.9200 28.5816 1.9156
42.9400 28.5949 1.9189
42.9600 28.6082 1.9199
42.9800 28.6215 1.9237
43.0000 28.6349 1.9225
43.0200 28.6482 1.9271
43.0400 28.6615 1.9252
43.0600 28.6748 1.9292
43.0800 28.6881 1.9284
43.1000 28.7015 1.9334
43.1200 28.7148 1.9313
43.1400 28.7281 1.9376
43.1600 28.7415 1.9363
43.1800 28.7549 1.9414
43.2000 28.7682 1.9417
43.2200 28.7815 1.9438
43.2400 28.7949 1.9447
43.2600 28.8082 1.9467
43.2800 28.8216 1.9494
43.3000 28.8349 1.9492
43.3200 28.8482 1.9548
43.3400 28.8615 1.9544
43.3600 28.8749 1.9588
43.3800 28.8882 1.9586
43.4000 28.9015 1.9637
43.4200 28.9148 1.9623
43.4400 28.9281 1.9681
43.4600 28.9415 1.9662
43.4800 28.9548 1.9714
43.5000 28.9682 1.9718
43.5200 28.9815 1.9761
43.5400 28.9949 1.9764
43.5600 29.0082 1.9804
43.5800 29.0215 1.9811
43.6000 29.0349 1.9836
43.6200 29.0482 1.9855
43.6400 29.0616 1.9870
43.6600 29.0749 1.9887
43.6800 29.0882 1.9911
43.7000 29.1015 1.9938
43.7200 29.1149 1.9947
43.7400 29.1282 2.0004
43.7600 29.1415 2.0010
43.7800 29.1548 2.0052
43.8000 29.1681 2.0063
43.8200 29.1815 2.0118
43.8400 29.1948 2.0101
43.8600 29.2082 2.0167
43.8800 29.2215 2.0153
43.9000 29.2349 2.0193
43.9200 29.2483 2.0200
43.9400 29.2616 2.0238
43.9600 29.2749 2.0246
43.9800 29.2882 2.0280
44.0000 29.3016 2.0294
44.0200 29.3149 2.0301
44.0400 29.3282 2.0348
44.0600 29.3415 2.0348
44.0800 29.3548 2.0393
44.1000 29.3681 2.0397
44.1200 29.3815 2.0451
44.1400 29.3948 2.0448
44.1600 29.4081 2.0503
44.1800 29.4215 2.0494
44.2000 29.4348 2.0525
44.2200 29.4482 2.0545
44.2400 29.4615 2.0562
44.2600 29.4749 2.0589
44.2800 29.4883 2.0612
44.3000 29.5016 2.0657
44.3200 29.5149 2.0670
44.3400 29.5282 2.0724
44.3600 29.5416 2.0746
44.3800 29.5549 2.0782
44.4000 29.5682 2.0803
44.4200 29.5815 2.0854
44.4400 29.5948 2.0860
44.4600 29.6082 2.0912
44.4800 29.6215 2.0925
44.5000 29.6348 2.0967
44.5200 29.6481 2.0982
44.5400 29.6615 2.1024
44.5600 29.6748 2.1020
44.5800 29.6881 2.1072
44.6000 29.7015 2.1082
44.6200 29.7149 2.1117
44.6400 29.7283 2.1127
44.6600 29.7416 2.1173
44.6800 29.7549 2.1172
44.7000 29.7682 2.1214
44.7200 29.7816 2.1237
44.7400 29.7949 2.1241
44.7600 29.8082 2.1282
44.7800 29.8216 2.1264
44.8000 29.8349 2.1316
44.8200 29.8483 2.1315
44.8400 29.8616 2.1381
44.8600 29.8748 2.1375
44.8800 29.8881 2.1432
44.9000 29.9015 2.1451
44.9200 29.9148 2.1482
44.9400 29.9281 2.1520
44.9600 29.9415 2.1548
44.9800 29.9549 2.1580
45.0000 29.9683 2.1603
45.0200 29.9816 2.1652
45.0400 29.9949 2.1651
45.0480 30.0001 2.1647
45.0490 30.0008 2.1646
45.0500 30.0014 2.1644
45.0700 30.0119 2.1513
45.0900 30.0141 2.1401
45.1100 30.0058 2.1446
45.1300 29.9930 2.1455
45.1500 29.9801 2.1325
45.1700 29.9672 2.1238
45.1900 29.9538 2.1137
45.2100 29.9398 2.1058
45.2300 29.9257 2.0971
45.2500 29.9119 2.0906
45.2700 29.8984 2.0807
45.2900 29.8851 2.0723
45.3100 29.8718 2.0664
45.3300 29.8585 2.0586
45.3500 29.8451 2.0529
45.3700 29.8318 2.0452
45.3900 29.8184 2.0399
45.4100 29.8051 2.0316
45.4300 29.7917 2.0281
45.4500 29.7783 2.0192
45.4700 29.7650 2.0158
45.4900 29.7517 2.0062
45.5100 29.7383 2.0045
45.5300 29.7249 1.9953
45.5500 29.7116 1.9941
45.5700 29.6983 1.9853
45.5900 29.6850 1.9816
45.6100 29.6716 1.9761
45.6300 29.6583 1.9701
45.6500 29.6450 1.9667
45.6700 29.6317 1.9605
45.6900 29.6183 1.9567
45.7100 29.6050 1.9500
45.7300 29.5917 1.9485
45.7500 29.5784 1.9414
45.7700 29.5651 1.9385
45.7900 29.5517 1.9325
45.8100 29.5384 1.9299
45.8300 29.5250 1.9233
45.8500 29.5117 1.9205
45.8700 29.4983 1.9171
45.8900 29.4850 1.9110
45.9100 29.4716 1.9089
45.9300 29.4583 1.9030
45.9500 29.4450 1.9007
45.9700 29.4316 1.8955
45.9900 29.4183 1.8931
46.0100 29.4050 1.8871
46.0300 29.3917 1.8857
46.0500 29.3783 1.8806
46.0700 29.3650 1.8782
46.0900 29.3517 1.8736
46.1100 29.3384 1.8708
46.1300 29.3251 1.8657
46.1500 29.3117 1.8637
46.1700 29.2984 1.8591
46.1900 29.2851 1.8562
46.2100 29.2717 1.8527
46.2300 29.2584 1.8490
46.2500 29.2450 1.8460
46.2700 29.2316 1.8427
46.2900 29.2183 1.8407
46.3100 29.2050 1.8352
46.3300 29.1916 1.8333
46.3500 29.1782 1.8294
46.3700 29.1649 1.8273
46.3900 29.1516 1.8229
46.4100 29.1383 1.8225
46.4300 29.1250 1.8152
46.4500 29.1117 1.8176
46.4700 29.0984 1.8099
46.4900 29.0851 1.8104
46.5100 29.0717 1.8053
46.5300 29.0583 1.8039
46.5500 29.0450 1.7994
46.5700 29.0317 1.7970
46.5900 29.0183 1.7952
46.6100 29.0049 1.7905
46.6300 28.9916 1.7907
46.6500 28.9783 1.7842
46.6700 28.9649 1.7850
46.6900 28.9516 1.7792
46.7100 28.9382 1.7804
46.7300 28.9249 1.7732
46.7500 28.9116 1.7750
46.7700 28.8983 1.7687
46.7900 28.8849 1.7686
46.8100 28.8716 1.7645
46.8300 28.8584 1.7635
46.8500 28.8450 1.7592
46.8700 28.8317 1.7577
46.8900 28.8183 1.7553
46.9100 28.8050 1.7518
46.9300 28.7917 1.7501
46.9500 28.7783 1.7473
46.9700 28.7649 1.7452
46.9900 28.7516 1.7422
47.0100 28.7383 1.7413
47.0300 28.7249 1.7368
47.0500 28.7116 1.7364
47.0700 28.6983 1.7333
47.0900 28.6850 1.7314
47.1100 28.6717 1.7276
47.1300 28.6584 1.7280
47.1500 28.6450 1.7227
47.1700 28.6317 1.7234
47.1900 28.6184 1.7193
47.2100 28.6051 1.7168
47.2300 28.5917 1.7160
47.2500 28.5783 1.7129
47.2700 28.5650 1.7114
47.2900 28.5517 1.7086
47.3100 28.5383 1.7070
47.3300 28.5250 1.7038
47.3500 28.5116 1.7026
47.3700 28.4983 1.6991
47.3900 28.4850 1.6999
47.4100 28.4716 1.6929
47.4300 28.4583 1.6965
47.4500 28.4450 1.6888
47.4700 28.4316 1.6907
47.4900 28.4183 1.6874
47.5100 28.4049 1.6853
47.5300 28.3916 1.6829
47.5500 28.3783 1.6825
47.5700 28.3650 1.6775
47.5900 28.3517 1.6783
47.6100 28.3383 1.6754
47.6300 28.3250 1.6719
47.6500 28.3117 1.6729
47.6700 28.2983 1.6674
47.6900 28.2850 1.6694
47.7100 28.2716 1.6643
47.7300 28.2583 1.6647
47.7500 28.2450 1.6598
47.7700 28.2316 1.6612
47.7900 28.2183 1.6562
47.8100 28.2050 1.6580
47.8300 28.1916 1.6516
47.8500 28.1783 1.6543
47.8700 28.1649 1.6493
47.8900 28.1516 1.6489
47.9100 28.1383 1.6467
47.9300 28.1250 1.6451
47.9500 28.1117 1.6420
47.9700 28.0983 1.6427
47.9900 28.0850 1.6383
48.0100 28.0717 1.6370
48.0300 28.0584 1.6371
48.0500 28.0450 1.6325
48.0700 28.0316 1.6332
48.0900 28.0183 1.6295
48.1100 28.0050 1.6291
48.1300 27.9916 1.6259
48.1500 27.9783 1.6264
48.1700 27.9649 1.6216
48.1900 27.9517 1.6236
48.2100 27.9383 1.6178
48.2300 27.9250 1.6193
48.2500 27.9116 1.6157
48.2700 27.8983 1.6150
48.2900 27.8850 1.6126
48.3100 27.8717 1.6109
48.3300 27.8583 1.6104
48.3500 27.8450 1.6077
48.3700 27.8317 1.6066
48.3900 27.8183 1.6033
48.4100 27.8050 1.6052
48.4300 27.7916 1.5989
48.4500 27.7783 1.6029
48.4700 27.7650 1.5957
48.4900 27.7516 1.5976
48.5100 27.7383 1.5936
48.5300 27.7249 1.5946
48.5500 27.7116 1.5909
48.5700 27.6984 1.5912
48.5900 27.6850 1.5872
48.6100 27.6717 1.5876
48.6300 27.6584 1.5850
48.6500 27.6451 1.5828
48.6700 27.6317 1.5826
48.6900 27.6183 1.5794
48.7100 27.6050 1.5797
48.7300 27.5917 1.5757
48.7500 27.5783 1.5772
48.7700 27.5649 1.5733
48.7900 27.5516 1.5732
48.8100 27.5383 1.5702
48.8300 27.5250 1.5698
48.8500 27.5116 1.5669
48.8700 27.4983 1.5669
48.8900 27.4850 1.5643
48.9100 27.4717 1.5635
48.9300 27.4583 1.5616
48.9500 27.4450 1.5609
48.9700 27.4316 1.5586
48.9900 27.4183 1.5579
49.0100 27.4050 1.5561
49.0300 27.3917 1.5532
49.0500 27.3783 1.5538
49.0700 27.3650 1.5509
49.0900 27.3517 1.5503
49.1100 27.3383 1.5476
49.1300 27.3250 1.5480
49.1500 27.3116 1.5443
49.1700 27.2983 1.5456
49.1900 27.2850 1.5408
49.2100 27.2716 1.5423
49.2300 27.2583 1.5385
49.2500 27.2449 1.5396
49.2700 27.2317 1.5356
49.2900 27.2184 1.5358
49.3100 27.2050 1.5336
49.3300 27.1916 1.5323
49.3500 27.1783 1.5320
49.3700 27.1650 1.5291
49.3900 27.1517 1.5288
49.4100 27.1383 1.5254
49.4300 27.1250 1.5267
49.4500 27.1117 1.5221
49.4700 27.0983 1.5242
49.4900 27.0850 1.5196
49.5100 27.0716 1.5210
49.5300 27.0583 1.5172
49.5500 27.0450 1.5188
49.5700 27.0317 1.5143
49.5900 27.0183 1.5159
49.6100 27.0050 1.5131
49.6300 26.9917 1.5126
49.6500 26.9783 1.5103
49.6700 26.9650 1.5096
49.6900 26.9516 1.5078
49.7100 26.9383 1.5065
49.7300 26.9250 1.5056
49.7500 26.9117 1.5026
49.7700 26.8983 1.5032
49.7900 26.8850 1.5002
49.8100 26.8717 1.4998
49.8300 26.8584 1.4973
49.8500 26.8450 1.4981
49.8700 26.8316 1.4943
49.8900 26.8183 1.4955
49.9100 26.8050 1.4911
49.9300 26.7916 1.4920
49.9500 26.7783 1.4894
49.9700 26.7649 1.4907
49.9900 26.7516 1.4862
50.0100 26.7383 1.4873
50.0300 26.7250 1.4854
50.0500 26.7116 1.4831
50.0700 26.6983 1.4837
50.0900 26.6850 1.4808
50.1100 26.6717 1.4804
50.1300 26.6583 1.4769
50.1500 26.6450 1.4794
50.1700 26.6317 1.4745
50.1900 26.6184 1.4759
50.2100 26.6050 1.4714
50.2300 26.5916 1.4725
50.2500 26.5783 1.4707
50.2700 26.5649 1.4702
50.2900 26.5516 1.4688
50.3100 26.5383 1.4659
50.3300 26.5249 1.4677
50.3500 26.5116 1.4618
50.3700 26.4983 1.4657
50.3900 26.4850 1.4597
50.4100 26.4716 1.4629
50.4300 26.4583 1.4566
50.4500 26.4450 1.4603
50.4700 26.4317 1.4549
50.4900 26.4184 1.4572
50.5100 26.4050 1.4534
50.5300 26.3917 1.4534
50.5500 26.3783 1.4512
50.5700 26.3650 1.4511
50.5900 26.3516 1.4492
50.6100 26.3383 1.4479
50.6300 26.3250 1.4477
50.6500 26.3116 1.4446
50.6700 26.2983 1.4456
50.6900 26.2849 1.4429
50.7100 26.2716 1.4429
50.7300 26.2583 1.4403
50.7500 26.2450 1.4407
50.7700 26.2316 1.4376
50.7900 26.2183 1.4390
50.8100 26.2050 1.4350
50.8300 26.1917 1.4361
50.8500 26.1783 1.4319
50.8700 26.1650 1.4345
50.8900 26.1517 1.4296
50.9100 26.1384 1.4308
50.9300 26.1250 1.4281
50.9500 26.1116 1.4275
50.9700 26.0983 1.4265
50.9900 26.0850 1.4243
51.0100 26.0717 1.4248
51.0300 26.0583 1.4214
51.0500 26.0449 1.4233
51.0700 26.0316 1.4185
51.0900 26.0183 1.4212
51.1100 26.0050 1.4161
51.1300 25.9916 1.4191
51.1500 25.9783 1.4133
51.1700 25.9650 1.4171
51.1900 25.9517 1.4114
51.2100 25.9383 1.4139
51.2300 25.9250 1.4102
51.2500 25.9117 1.4101
51.2700 25.8984 1.4090
51.2900 25.8850 1.4074
51.3100 25.8716 1.4077
51.3300 25.8583 1.4043
51.3500 25.8450 1.4061
51.3700 25.8317 1.4016
51.3900 25.8183 1.4037
51.4100 25.8049 1.4001
51.4300 25.7916 1.4019
51.4500 25.7783 1.3966
51.4700 25.7650 1.4007
51.4900 25.7516 1.3942
51.5100 25.7383 1.3977
51.5300 25.7250 1.3925
51.5500 25.7117 1.3947
51.5700 25.6984 1.3908
51.5900 25.6850 1.3927
51.6100 25.6717 1.3892
51.6300 25.6584 1.3892
51.6500 25.6450 1.3876
51.6700 25.6316 1.3869
51.6900 25.6183 1.3851
51.7100 25.6050 1.3849
51.7300 25.5917 1.3837
51.7500 25.5783 1.3816
51.7700 25.5649 1.3824
51.7900 25.5516 1.3793
51.8100 25.5383 1.3804
51.8300 25.5249 1.3770
51.8500 25.5116 1.3780
51.8700 25.4983 1.3745
51.8900 25.4850 1.3757
51.9100 25.4717 1.3725
51.9300 25.4584 1.3725
51.9500 25.4450 1.3716
51.9700 25.4317 1.3701
51.9900 25.4184 1.3683
52.0100 25.4050 1.3677
52.0300 25.3917 1.3676
52.0500 25.3783 1.3643
52.0700 25.3649 1.3659
52.0900 25.3516 1.3614
52.1100 25.3383 1.3638
52.1300 25.3249 1.3603
52.1500 25.3116 1.3619
52.1700 25.2983 1.3576
52.1900 25.2850 1.3597
52.2100 25.2716 1.3562
52.2300 25.2583 1.3566
52.2500 25.2450 1.3549
52.2700 25.2317 1.3541
52.2900 25.2184 1.3531
52.3100 25.2050 1.3512
52.3300 25.1916 1.3521
52.3500 25.1783 1.3483
52.3700 25.1650 1.3500
52.3900 25.1516 1.3466
52.4100 25.1382 1.3475
52.4300 25.1249 1.3451
52.4500 25.1116 1.3457
52.4700 25.0983 1.3421
52.4900 25.0849 1.3438
52.5100 25.0716 1.3410
52.5300 25.0583 1.3410
52.5500 25.0450 1.3395
52.5700 25.0316 1.3394
52.5900 25.0183 1.3375
52.6100 25.0050 1.3368
52.6300 24.9917 1.3356
52.6500 24.9784 1.3346
52.6700 24.9650 1.3338
52.6900 24.9516 1.3327
52.7100 24.9383 1.3305
52.7300 24.9250 1.3311
52.7500 24.9116 1.3295
52.7700 24.8982 1.3279
52.7900 24.8849 1.3278
52.8100 24.8716 1.3257
52.8300 24.8583 1.3252
52.8500 24.8449 1.3238
52.8700 24.8316 1.3245
52.8900 24.8183 1.3212
52.9100 24.8050 1.3219
52.9300 24.7916 1.3203
52.9500 24.7783 1.3191
52.9700 24.7650 1.3184
52.9900 24.7517 1.3174
53.0100 24.7384 1.3157
53.0300 24.7250 1.3153
53.0500 24.7116 1.3148
53.0700 24.6983 1.3120
53.0900 24.6850 1.3134
53.1100 24.6716 1.3102
53.1300 24.6583 1.3110
53.1500 24.6449 1.3081
53.1700 24.6316 1.3098
53.1900 24.6183 1.3059
53.2100 24.6049 1.3075
53.2300 24.5916 1.3053
53.2500 24.5783 1.3050
53.2700 24.5650 1.3035
53.2900 24.5516 1.3027
53.3100 24.5383 1.3011
53.3300 24.5250 1.3008
53.3500 24.5117 1.2995
53.3700 24.4983 1.2984
53.3900 24.4850 1.2975
53.4100 24.4717 1.2970
53.4300 24.4584 1.2953
53.4500 24.4451 1.2946
53.4700 24.4317 1.2940
53.4900 24.4183 1.2924
53.5100 24.4049 1.2919
53.5300 24.3916 1.2907
53.5500 24.3782 1.2898
53.5700 24.3649 1.2889
53.5900 24.3516 1.2890
53.6100 24.3383 1.2857
53.6300 24.3250 1.2878
53.6500 24.3116 1.2838
53.6700 24.2983 1.2855
53.6900 24.2850 1.2816
53.7100 24.2717 1.2839
53.7300 24.2584 1.2796
53.7500 24.2450 1.2814
53.7700 24.2316 1.2789
53.7900 24.2183 1.2783
53.8100 24.2050 1.2767
53.8300 24.1916 1.2767
53.8500 24.1783 1.2751
53.8700 24.1649 1.2752
53.8900 24.1516 1.2741
53.9100 24.1383 1.2719
53.9300 24.1249 1.2727
53.9500 24.1116 1.2707
53.9700 24.0983 1.2701
53.9900 24.0850 1.2691
54.0100 24.0716 1.2691
54.0300 24.0583 1.2672
54.0500 24.0450 1.2659
54.0700 24.0317 1.2663
54.0900 24.0184 1.2642
54.1100 24.0050 1.2650
54.1300 23.9917 1.2623
54.1500 23.9784 1.2624
54.1700 23.9650 1.2598
54.1900 23.9516 1.2616
54.2100 23.9383 1.2577
54.2300 23.9249 1.2593
54.2500 23.9116 1.2567
54.2700 23.8983 1.2565
54.2900 23.8849 1.2547
54.3100 23.8716 1.2554
54.3300 23.8583 1.2533
54.3500 23.8450 1.2521
54.3700 23.8317 1.2523
54.3900 23.8183 1.2504
54.4100 23.8050 1.2497
54.4300 23.7917 1.2492
54.4500 23.7784 1.2475
54.4700 23.7650 1.2471
54.4900 23.7516 1.2473
54.5100 23.7383 1.2444
54.5300 23.7250 1.2448
54.5500 23.7117 1.2426
54.5700 23.6983 1.2428
54.5900 23.6849 1.2407
54.6100 23.6716 1.2416
54.6300 23.6583 1.2394
54.6500 23.6449 1.2383
54.6700 23.6316 1.2383
54.6900 23.6183 1.2373
54.7100 23.6050 1.2359
54.7300 23.5916 1.2371
54.7500 23.5783 1.2337
54.7700 23.5650 1.2333
54.7900 23.5517 1.2342
54.8100 23.5384 1.2297
54.8300 23.5250 1.2331
54.8500 23.5116 1.2287
54.8700 23.4983 1.2305
54.8900 23.4850 1.2269
54.9100 23.4716 1.2282
54.9300 23.4583 1.2261
54.9500 23.4449 1.2264
54.9700 23.4316 1.2229
54.9900 23.4183 1.2253
55.0100 23.4049 1.2212
55.0300 23.3916 1.2239
55.0500 23.3783 1.2208
55.0700 23.3650 1.2203
55.0900 23.3516 1.2206
55.1100 23.3383 1.2178
55.1300 23.3250 1.2176
55.1500 23.3117 1.2179
55.1700 23.2983 1.2154
55.1900 23.2850 1.2157
55.2100 23.2716 1.2149
55.2300 23.2583 1.2128
55.2500 23.2450 1.2127
55.2700 23.2317 1.2110
55.2900 23.2183 1.2124
55.3100 23.2050 1.2090
55.3300 23.1917 1.2098
55.3500 23.1783 1.2069
55.3700 23.1649 1.2085
55.3900 23.1516 1.2070
55.4100 23.1383 1.2057
55.4300 23.1250 1.2045
55.4500 23.1117 1.2039
55.4700 23.0983 1.2031
55.4900 23.0850 1.2034
55.5100 23.0717 1.2017
55.5300 23.0584 1.2000
55.5500 23.0450 1.1997
55.5700 23.0316 1.1991
55.5900 23.0183 1.1997
55.6100 23.0050 1.1957
55.6300 22.9917 1.1966
55.6500 22.9783 1.1955
55.6700 22.9649 1.1951
55.6900 22.9516 1.1945
55.7100 22.9383 1.1931
55.7300 22.9250 1.1912
55.7500 22.9116 1.1920
55.7700 22.8983 1.1907
55.7900 22.8850 1.1898
55.8100 22.8717 1.1897
55.8300 22.8584 1.1874
55.8500 22.8450 1.1875
55.8700 22.8317 1.1865
55.8900 22.8184 1.1865
55.9100 22.8050 1.1833
55.9300 22.7917 1.1856
55.9500 22.7783 1.1822
55.9700 22.7650 1.1827
55.9900 22.7516 1.1810
56.0100 22.7382 1.1809
56.0300 22.7249 1.1804
56.0500 22.7116 1.1791
56.0700 22.6983 1.1786
56.0900 22.6850 1.1759
56.1100 22.6716 1.1783
56.1300 22.6583 1.1745
56.1500 22.6450 1.1762
56.1700 22.6316 1.1729
56.1900 22.6183 1.1748
56.2100 22.6050 1.1705
56.2300 22.5917 1.1734
56.2500 22.5784 1.1701
56.2700 22.5650 1.1697
56.2900 22.5516 1.1696
56.3100 22.5383 1.1683
56.3300 22.5250 1.1676
56.3500 22.5117 1.1664
56.3700 22.4983 1.1673
56.3900 22.4849 1.1638
56.4100 22.4716 1.1655
56.4300 22.4583 1.1623
56.4500 22.4449 1.1632
56.4700 22.4316 1.1616
56.4900 22.4183 1.1620
56.5100 22.4050 1.1589
56.5300 22.3917 1.1604
56.5500 22.3783 1.1580
56.5700 22.3650 1.1586
56.5900 22.3517 1.1572
56.6100 22.3384 1.1569
56.6300 22.3250 1.1541
56.6500 22.3116 1.1555
56.6700 22.2983 1.1537
56.6900 22.2850 1.1529
56.7100 22.2717 1.1524
56.7300 22.2583 1.1509
56.7500 22.2450 1.1507
56.7700 22.2317 1.1492
56.7900 22.2183 1.1502
56.8100 22.2050 1.1462
56.8300 22.1916 1.1495
56.8500 22.1783 1.1455
56.8700 22.1650 1.1467
56.8900 22.1517 1.1437
56.9100 22.1383 1.1465
56.9300 22.1250 1.1420
56.9500 22.1117 1.1447
56.9700 22.0984 1.1411
56.9900 22.0850 1.1412
57.0100 22.0717 1.1408
57.0300 22.0583 1.1394
57.0500 22.0450 1.1391
57.0700 22.0317 1.1376
57.0900 22.0183 1.1382
57.1100 22.0049 1.1353
57.1300 21.9916 1.1365
57.1500 21.9783 1.1340
57.1700 21.9650 1.1346
57.1900 21.9516 1.1328
57.2100 21.9383 1.1338
57.2300 21.9250 1.1306
57.2500 21.9116 1.1320
57.2700 21.8983 1.1298
57.2900 21.8849 1.1299
57.3100 21.8717 1.1291
57.3300 21.8584 1.1285
57.3500 21.8450 1.1262
57.3700 21.8317 1.1271
57.3900 21.8183 1.1265
57.4100 21.8050 1.1247
57.4300 21.7917 1.1240
57.4500 21.7783 1.1238
57.4700 21.7649 1.1223
57.4900 21.7516 1.1219
57.5100 21.7383 1.1222
57.5300 21.7249 1.1178
57.5500 21.7116 1.1209
57.5700 21.6982 1.1175
57.5900 21.6850 1.1196
57.6100 21.6716 1.1151
57.6300 21.6583 1.1190
57.6500 21.6450 1.1132
57.6700 21.6317 1.1166
57.6900 21.6184 1.1130
57.7100 21.6050 1.1137
57.7300 21.5917 1.1119
57.7500 21.5783 1.1133
57.7700 21.5650 1.1096
57.7900 21.5517 1.1111
57.8100 21.5383 1.1099
57.8300 21.5249 1.1078
57.8500 21.5116 1.1092
57.8700 21.4983 1.1053
57.8900 21.4850 1.1079
57.9100 21.4716 1.1038
57.9300 21.4583 1.1068
57.9500 21.4450 1.1022
57.9700 21.4316 1.1042
57.9900 21.4183 1.1027
58.0100 21.4050 1.1022
58.0300 21.3917 1.1003
58.0500 21.3783 1.1010
58.0700 21.3650 1.0987
58.0900 21.3516 1.0991
58.1100 21.3383 1.0991
58.1300 21.3250 1.0961
58.1500 21.3117 1.0963
58.1700 21.2983 1.0955
58.1900 21.2849 1.0958
58.2100 21.2716 1.0937
58.2300 21.2584 1.0943
58.2500 21.2450 1.0914
58.2700 21.2316 1.0927
58.2900 21.2183 1.0914
58.3100 21.2050 1.0912
58.3300 21.1917 1.0891
58.3500 21.1783 1.0905
58.3700 21.1650 1.0874
58.3900 21.1516 1.0884
58.4100 21.1383 1.0869
58.4300 21.1250 1.0863
58.4500 21.1117 1.0855
58.4700 21.0983 1.0845
58.4900 21.0850 1.0837
58.5100 21.0717 1.0817
58.5300 21.0583 1.0844
58.5500 21.0450 1.0788
58.5700 21.0316 1.0839
58.5900 21.0183 1.0774
58.6100 21.0050 1.0817
58.6300 20.9916 1.0754
58.6500 20.9783 1.0810
58.6700 20.9650 1.0746
58.6900 20.9516 1.0780
58.7100 20.9383 1.0748
58.7300 20.9249 1.0753
58.7500 20.9117 1.0744
58.7700 20.8984 1.0735
58.7900 20.8850 1.0737
58.8100 20.8717 1.0703
58.8300 20.8583 1.0738
58.8500 20.8450 1.0678
58.8700 20.8317 1.0719
58.8900 20.8183 1.0671
58.9100 20.8050 1.0709
58.9300 20.7916 1.0651
58.9500 20.7783 1.0684
58.9700 20.7650 1.0641
58.9900 20.7516 1.0664
59.0100 20.7382 1.0642
59.0300 20.7249 1.0639
59.0500 20.7116 1.0629
59.0700 20.6983 1.0622
59.0900 20.6849 1.0624
59.1100 20.6716 1.0604
59.1300 20.6583 1.0616
59.1500 20.6450 1.0574
59.1700 20.6317 1.0600
59.1900 20.6183 1.0573
59.2100 20.6050 1.0582
59.2300 20.5917 1.0546
59.2500 20.5783 1.0580
59.2700 20.5650 1.0537
59.2900 20.5516 1.0550
59.3100 20.5383 1.0533
59.3300 20.5249 1.0535
59.3500 20.5116 1.0506
59.3700 20.4982 1.0532
59.3900 20.4850 1.0495
59.4100 20.4717 1.0508
59.4300 20.4583 1.0491
59.4500 20.4450 1.0485
59.4700 20.4317 1.0487
59.4900 20.4184 1.0461
59.5100 20.4051 1.0478
59.5300 20.3917 1.0436
59.5500 20.3783 1.0478
59.5700 20.3650 1.0415
59.5900 20.3517 1.0450
59.6100 20.3383 1.0410
59.6300 20.3249 1.0442
59.6500 20.3116 1.0391
59.6700 20.2983 1.0431
59.6900 20.2850 1.0378
59.7100 20.2716 1.0406
59.7300 20.2583 1.0374
59.7500 20.2449 1.0387
59.7700 20.2316 1.0365
59.7900 20.2183 1.0367
59.8100 20.2050 1.0355
59.8300 20.1917 1.0343
59.8500 20.1784 1.0362
59.8700 20.1651 1.0318
59.8900 20.1517 1.0340
59.9100 20.1383 1.0317
59.9300 20.1250 1.0329
59.9500 20.1116 1.0284
59.9700 20.0983 1.0323
59.9900 20.0849 1.0280
60.0100 20.0716 1.0299
60.0300 20.0583 1.0269
60.0500 20.0450 1.0287
60.0700 20.0316 1.0250
60.0900 20.0183 1.0275
60.1100 20.0050 1.0251
60.1300 19.9917 1.0236
60.1500 19.9783 1.0249
60.1700 19.9650 1.0230
60.1900 19.9516 1.0229
60.2100 19.9384 1.0211
60.2300 19.9250 1.0228
60.2500 19.9117 1.0190
60.2700 19.8983 1.0213
60.2900 19.8850 1.0176
60.3100 19.8717 1.0196
60.3300 19.8583 1.0157
60.3500 19.8449 1.0190
60.3700 19.8316 1.0137
60.3900 19.8183 1.0176
60.4100 19.8050 1.0131
60.4300 19.7916 1.0145
60.4500 19.7782 1.0135
60.4700 19.7649 1.0130
60.4900 19.7516 1.0114
60.5100 19.7383 1.0110
60.5300 19.7250 1.0121
60.5500 19.7117 1.0086
60.5700 19.6983 1.0103
60.5900 19.6850 1.0069
60.6100 19.6717 1.0091
60.6300 19.6583 1.0054
60.6500 19.6450 1.0087
60.6700 19.6317 1.0025
60.6900 19.6184 1.0074
60.7100 19.6050 1.0030
60.7300 19.5916 1.0046
60.7500 19.5783 1.0023
60.7700 19.5650 1.0027
60.7900 19.5516 1.0010
60.8100 19.5382 1.0019
60.8300 19.5249 0.9998
60.8500 19.5116 0.9992
60.8700 19.4983 0.9996
60.8900 19.4850 0.9983
60.9100 19.4716 0.9970
60.9300 19.4584 0.9965
60.9500 19.4451 0.9964
60.9700 19.4317 0.9951
60.9900 19.4183 0.9955
61.0100 19.4050 0.9938
61.0300 19.3917 0.9934
61.0500 19.3783 0.9914
61.0700 19.3649 0.9930
61.0900 19.3516 0.9903
61.1100 19.3383 0.9917
61.1300 19.3250 0.9885
61.1500 19.3116 0.9892
61.1700 19.2983 0.9887
61.1900 19.2850 0.9882
61.2100 19.2717 0.9863
61.2300 19.2583 0.9869
61.2500 19.2450 0.9866
61.2700 19.2316 0.9837
61.2900 19.2184 0.9864
61.3100 19.2051 0.9815
61.3300 19.1917 0.9845
61.3500 19.1784 0.9803
61.3700 19.1650 0.9845
61.3900 19.1517 0.9781
61.4100 19.1383 0.9817
61.4300 19.1249 0.9785
61.4500 19.1116 0.9798
61.4700 19.0982 0.9773
61.4900 19.0849 0.9777
61.5100 19.0716 0.9770
61.5300 19.0583 0.9750
61.5500 19.0449 0.9774
61.5700 19.0316 0.9727
61.5900 19.0183 0.9763
61.6100 19.0050 0.9720
61.6300 18.9917 0.9744
61.6500 18.9784 0.9702
61.6700 18.9651 0.9740
61.6900 18.9517 0.9686
61.7100 18.9383 0.9720
61.7300 18.9250 0.9690
61.7500 18.9117 0.9686
61.7700 18.8983 0.9687
61.7900 18.8849 0.9675
61.8100 18.8716 0.9665
61.8300 18.8583 0.9659
61.8500 18.8450 0.9670
61.8700 18.8316 0.9634
61.8900 18.8183 0.9656
61.9100 18.8049 0.9635
61.9300 18.7917 0.9630
61.9500 18.7783 0.9616
61.9700 18.7650 0.9632
61.9900 18.7516 0.9589
62.0100 18.7383 0.9620
62.0300 18.7250 0.9593
62.0500 18.7117 0.9597
62.0700 18.6983 0.9561
62.0900 18.6850 0.9590
62.1100 18.6717 0.9563
62.1300 18.6583 0.9568
62.1500 18.6450 0.9555
62.1700 18.6316 0.9547
62.1900 18.6183 0.9544
62.2100 18.6050 0.9534
62.2300 18.5916 0.9539
62.2500 18.5783 0.9502
62.2700 18.5649 0.9541
62.2900 18.5516 0.9482
62.3100 18.5383 0.9541
62.3300 18.5250 0.9464
62.3500 18.5116 0.9514
62.3700 18.4983 0.9460
62.3900 18.4850 0.9508
62.4100 18.4717 0.9449
62.4300 18.4583 0.9472
62.4500 18.4450 0.9448
62.4700 18.4317 0.9453
62.4900 18.4183 0.9448
62.5100 18.4050 0.9435
62.5300 18.3916 0.9429
62.5500 18.3783 0.9417
62.5700 18.3650 0.9437
62.5900 18.3516 0.9388
62.6100 18.3383 0.9421
62.6300 18.3250 0.9385
62.6500 18.3117 0.9405
62.6700 18.2983 0.9377
62.6900 18.2850 0.9391
62.7100 18.2716 0.9358
62.7300 18.2583 0.9367
62.7500 18.2450 0.9363
62.7700 18.2317 0.9357
62.7900 18.2183 0.9335
62.8100 18.2050 0.9348
62.8300 18.1917 0.9320
62.8500 18.1784 0.9330
62.8700 18.1650 0.9320
62.8900 18.1516 0.9305
62.9100 18.1382 0.9310
62.9300 18.1249 0.9295
62.9500 18.1116 0.9297
62.9700 18.0983 0.9277
62.9900 18.0849 0.9295
63.0100 18.0716 0.9258
63.0300 18.0583 0.9283
63.0500 18.0450 0.9246
63.0700 18.0317 0.9262
63.0900 18.0184 0.9236
63.1100 18.0051 0.9253
63.1300 17.9917 0.9220
63.1500 17.9784 0.9234
63.1700 17.9650 0.9222
63.1900 17.9517 0.9214
63.2100 17.9383 0.9210
63.2300 17.9249 0.9199
63.2500 17.9116 0.9205
63.2700 17.8983 0.9171
63.2900 17.8850 0.9207
63.3100 17.8716 0.9152
63.3300 17.8583 0.9192
63.3500 17.8449 0.9148
63.3700 17.8316 0.9173
63.3900 17.8183 0.9131
63.4100 17.8050 0.9168
63.4300 17.7916 0.9121
63.4500 17.7783 0.9139
63.4700 17.7650 0.9120
63.4900 17.7517 0.9128
63.5100 17.7383 0.9105
63.5300 17.7250 0.9110
63.5500 17.7117 0.9104
63.5700 17.6983 0.9083
63.5900 17.6850 0.9096
63.6100 17.6716 0.9068
63.6300 17.6583 0.9085
63.6500 17.6450 0.9060
63.6700 17.6316 0.9069
63.6900 17.6183 0.9034
63.7100 17.6049 0.9068
63.7300 17.5916 0.9026
63.7500 17.5783 0.9048
63.7700 17.5650 0.9017
63.7900 17.5516 0.9035
63.8100 17.5383 0.8994
63.8300 17.5250 0.9030
63.8500 17.5117 0.8992
63.8700 17.4983 0.8994
63.8900 17.4850 0.8996
63.9100 17.4716 0.8980
63.9300 17.4583 0.8978
63.9500 17.4450 0.8966
63.9700 17.4316 0.8971
63.9900 17.4183 0.8940
64.0100 17.4050 0.8970
64.0300 17.3917 0.8931
64.0500 17.3783 0.8949
64.0700 17.3649 0.8924
64.0900 17.3516 0.8945
64.1100 17.3383 0.8895
64.1300 17.3250 0.8930
64.1500 17.3116 0.8889
64.1700 17.2983 0.8920
64.1900 17.2850 0.8887
64.2100 17.2717 0.8887
64.2300 17.2584 0.8873
64.2500 17.2450 0.8877
64.2700 17.2317 0.8876
64.2900 17.2184 0.8842
64.3100 17.2050 0.8865
64.3300 17.1916 0.8829
64.3500 17.1783 0.8846
64.3700 17.1650 0.8829
64.3900 17.1516 0.8844
64.4100 17.1383 0.8800
64.4300 17.1249 0.8837
64.4500 17.1116 0.8789
64.4700 17.0983 0.8815
64.4900 17.0850 0.8790
64.5100 17.0716 0.8798
64.5300 17.0583 0.8776
64.5500 17.0450 0.8780
64.5700 17.0317 0.8773
64.5900 17.0184 0.8753
64.6100 17.0050 0.8767
64.6300 16.9917 0.8748
64.6500 16.9784 0.8741
64.6700 16.9650 0.8744
64.6900 16.9516 0.8726
64.7100 16.9383 0.8718
64.7300 16.9249 0.8740
64.7500 16.9116 0.8698
64.7700 16.8983 0.8719
64.7900 16.8849 0.8689
64.8100 16.8716 0.8698
64.8300 16.8583 0.8677
64.8500 16.8450 0.8693
64.8700 16.8316 0.8664
64.8900 16.8183 0.8673
64.9100 16.8050 0.8654
64.9300 16.7917 0.8664
64.9500 16.7784 0.8638
64.9700 16.7650 0.8651
64.9900 16.7517 0.8633
65.0100 16.7384 0.8623
65.0300 16.7250 0.8633
65.0500 16.7116 0.8604
65.0700 16.6983 0.8623
65.0900 16.6850 0.8593
65.1100 16.6716 0.8610
65.1300 16.6583 0.8568
65.1500 16.6449 0.8613
65.1700 16.6316 0.8566
65.1900 16.6183 0.8587
65.2100 16.6050 0.8555
65.2300 16.5916 0.8566
65.2500 16.5783 0.8544
65.2700 16.5650 0.8548
65.2900 16.5517 0.8536
65.3100 16.5383 0.8534
65.3300 16.5250 0.8527
65.3500 16.5116 0.8520
65.3700 16.4983 0.8518
65.3900 16.4850 0.8501
65.4100 16.4716 0.8512
65.4300 16.4583 0.8483
65.4500 16.4450 0.8497
65.4700 16.4317 0.8462
65.4900 16.4183 0.8487
65.5100 16.4049 0.8458
65.5300 16.3916 0.8476
65.5500 16.3783 0.8435
65.5700 16.3650 0.8464
65.5900 16.3516 0.8437
65.6100 16.3383 0.8447
65.6300 16.3250 0.8418
65.6500 16.3117 0.8434
65.6700 16.2983 0.8407
65.6900 16.2850 0.8413
65.7100 16.2717 0.8411
65.7300 16.2584 0.8382
65.7500 16.2450 0.8410
65.7700 16.2316 0.8371
65.7900 16.2183 0.8396
65.8100 16.2050 0.8355
65.8300 16.1916 0.8388
65.8500 16.1783 0.8331
65.8700 16.1649 0.8378
65.8900 16.1516 0.8333
65.9100 16.1383 0.8353
65.9300 16.1250 0.8325
65.9500 16.1116 0.8340
65.9700 16.0983 0.8317
65.9900 16.0850 0.8320
66.0100 16.0717 0.8321
66.0300 16.0584 0.8287
66.0500 16.0450 0.8311
66.0700 16.0317 0.8277
66.0900 16.0183 0.8298
66.1100 16.0050 0.8264
66.1300 15.9916 0.8292
66.1500 15.9783 0.8244
66.1700 15.9650 0.8268
66.1900 15.9517 0.8247
66.2100 15.9383 0.8252
66.2300 15.9249 0.8233
66.2500 15.9116 0.8245
66.2700 15.8983 0.8219
66.2900 15.8849 0.8221
66.3100 15.8716 0.8219
66.3300 15.8583 0.8208
66.3500 15.8450 0.8202
66.3700 15.8317 0.8195
66.3900 15.8184 0.8196
66.4100 15.8050 0.8181
66.4300 15.7917 0.8193
66.4500 15.7784 0.8155
66.4700 15.7650 0.8180
66.4900 15.7517 0.8149
66.5100 15.7383 0.8168
66.5300 15.7249 0.8130
66.5500 15.7116 0.8157
66.5700 15.6983 0.8118
66.5900 15.6849 0.8144
66.6100 15.6716 0.8117
66.6300 15.6583 0.8117
66.6500 15.6450 0.8100
66.6700 15.6316 0.8106
66.6900 15.6183 0.8108
66.7100 15.6050 0.8078
66.7300 15.5917 0.8105
66.7500 15.5784 0.8053
66.7700 15.5650 0.8098
66.7900 15.5516 0.8053
66.8100 15.5384 0.8075
66.8300 15.5250 0.8032
66.8500 15.5117 0.8062
66.8700 15.4983 0.8025
66.8900 15.4849 0.8049
66.9100 15.4716 0.8013
66.9300 15.4582 0.8030
66.9500 15.4449 0.8002
66.9700 15.4316 0.8021
66.9900 15.4183 0.7997
67.0100 15.4050 0.7991
67.0300 15.3916 0.8004
67.0500 15.3783 0.7970
67.0700 15.3650 0.7987
67.0900 15.3518 0.7962
67.1100 15.3384 0.7970
67.1300 15.3250 0.7955
67.1500 15.3116 0.7958
67.1700 15.2983 0.7933
67.1900 15.2850 0.7953
67.2100 15.2716 0.7921
67.2300 15.2583 0.7946
67.2500 15.2449 0.7901
67.2700 15.2316 0.7934
67.2900 15.2183 0.7891
67.3100 15.2049 0.7913
67.3300 15.1916 0.7895
67.3500 15.1783 0.7887
67.3700 15.1650 0.7880
67.3900 15.1517 0.7879
67.4100 15.1383 0.7875
67.4300 15.1250 0.7857
67.4500 15.1117 0.7870
67.4700 15.0984 0.7840
67.4900 15.0850 0.7854
67.5100 15.0716 0.7831
67.5300 15.0583 0.7842
67.5500 15.0450 0.7805
67.5700 15.0317 0.7837
67.5900 15.0183 0.7801
67.6100 15.0049 0.7815
67.6300 14.9916 0.7797
67.6500 14.9783 0.7795
67.6700 14.9649 0.7780
67.6900 14.9516 0.7790
67.7100 14.9383 0.7774
67.7300 14.9250 0.7768
67.7500 14.9116 0.7770
67.7700 14.8983 0.7744
67.7900 14.8850 0.7761
67.8100 14.8717 0.7737
67.8300 14.8584 0.7751
67.8500 14.8450 0.7712
67.8700 14.8317 0.7743
67.8900 14.8184 0.7705
67.9100 14.8051 0.7723
67.9300 14.7917 0.7690
67.9500 14.7783 0.7717
67.9700 14.7649 0.7678
67.9900 14.7516 0.7701
68.0100 14.7383 0.7672
68.0300 14.7249 0.7675
68.0500 14.7116 0.7666
68.0700 14.6983 0.7664
68.0900 14.6850 0.7655
68.1100 14.6716 0.7655
68.1300 14.6583 0.7647
68.1500 14.6450 0.7630
68.1700 14.6317 0.7636
68.1900 14.6184 0.7624
68.2100 14.6050 0.7628
68.2300 14.5917 0.7616
68.2500 14.5783 0.7615
68.2700 14.5650 0.7589
68.2900 14.5516 0.7611
68.3100 14.5383 0.7580
68.3300 14.5249 0.7582
68.3500 14.5116 0.7574
68.3700 14.4983 0.7573
68.3900 14.4849 0.7555
68.4100 14.4716 0.7564
68.4300 14.4583 0.7547
68.4500 14.4450 0.7540
68.4700 14.4317 0.7541
68.4900 14.4183 0.7528
68.5100 14.4050 0.7524
68.5300 14.3917 0.7516
68.5500 14.3784 0.7516
68.5700 14.3650 0.7486
68.5900 14.3517 0.7519
68.6100 14.3384 0.7474
68.6300 14.3250 0.7495
68.6500 14.3116 0.7471
68.6700 14.2983 0.7483
68.6900 14.2849 0.7455
68.7100 14.2716 0.7468
68.7300 14.2583 0.7450
68.7500 14.2449 0.7452
68.7700 14.2316 0.7443
68.7900 14.2183 0.7437
68.8100 14.2050 0.7429
68.8300 14.1917 0.7413
68.8500 14.1783 0.7431
68.8700 14.1650 0.7394
68.8900 14.1517 0.7423
68.9100 14.1384 0.7378
68.9300 14.1250 0.7404
68.9500 14.1117 0.7374
68.9700 14.0983 0.7391
68.9900 14.0850 0.7353
69.0100 14.0717 0.7380
69.0300 14.0583 0.7347
69.0500 14.0450 0.7363
69.0700 14.0316 0.7333
69.0900 14.0183 0.7360
69.1100 14.0050 0.7316
69.1300 13.9916 0.7337
69.1500 13.9783 0.7317
69.1700 13.9650 0.7309
69.1900 13.9516 0.7314
69.2100 13.9383 0.7302
69.2300 13.9250 0.7293
69.2500 13.9117 0.7280
69.2700 13.8984 0.7289
69.2900 13.8850 0.7270
69.3100 13.8716 0.7283
69.3300 13.8583 0.7255
69.3500 13.8450 0.7266
69.3700 13.8316 0.7238
69.3900 13.8183 0.7258
69.4100 13.8049 0.7226
69.4300 13.7916 0.7240
69.4500 13.7783 0.7217
69.4700 13.7649 0.7216
69.4900 13.7516 0.7222
69.5100 13.7383 0.7196
69.5300 13.7250 0.7209
69.5500 13.7116 0.7178
69.5700 13.6983 0.7201
69.5900 13.6850 0.7164
69.6100 13.6717 0.7189
69.6300 13.6583 0.7154
69.6500 13.6450 0.7167
69.6700 13.6316 0.7148
69.6900 13.6183 0.7161
69.7100 13.6050 0.7133
69.7300 13.5917 0.7140
69.7500 13.5783 0.7134
69.7700 13.5649 0.7114
69.7900 13.5516 0.7129
69.8100 13.5383 0.7101
69.8300 13.5249 0.7112
69.8500 13.5116 0.7088
69.8700 13.4983 0.7106
69.8900 13.4850 0.7066
69.9100 13.4717 0.7096
69.9300 13.4583 0.7060
69.9500 13.4450 0.7082
69.9700 13.4317 0.7046
69.9900 13.4184 0.7068
70.0100 13.4050 0.7036
70.0300 13.3916 0.7052
70.0500 13.3783 0.7027
70.0700 13.3650 0.7030
70.0900 13.3517 0.7019
70.1100 13.3383 0.7017
70.1300 13.3249 0.7004
70.1500 13.3116 0.7005
70.1700 13.2983 0.6996
70.1900 13.2850 0.6987
70.2100 13.2716 0.6989
70.2300 13.2583 0.6977
70.2500 13.2450 0.6972
70.2700 13.2317 0.6959
70.2900 13.2184 0.6973
70.3100 13.2050 0.6943
70.3300 13.1917 0.6954
70.3500 13.1784 0.6931
70.3700 13.1650 0.6941
70.3900 13.1517 0.6916
70.4100 13.1383 0.6937
70.4300 13.1250 0.6896
70.4500 13.1116 0.6911
70.4700 13.0982 0.6899
70.4900 13.0849 0.6897
70.5100 13.0716 0.6895
70.5300 13.0583 0.6880
70.5500 13.0450 0.6880
70.5700 13.0316 0.6858
70.5900 13.0183 0.6876
70.6100 13.0050 0.6848
70.6300 12.9917 0.6860
70.6500 12.9783 0.6836
70.6700 12.9650 0.6842
70.6900 12.9517 0.6826
70.7100 12.9384 0.6836
70.7300 12.9250 0.6810
70.7500 12.9116 0.6821
70.7700 12.8983 0.6800
70.7900 12.8850 0.6808
70.8100 12.8717 0.6788
70.8300 12.8583 0.6787
70.8500 12.8449 0.6785
70.8700 12.8316 0.6766
70.8900 12.8183 0.6776
70.9100 12.8049 0.6757
70.9300 12.7916 0.6757
70.9500 12.7783 0.6746
70.9700 12.7650 0.6747
70.9900 12.7517 0.6723
71.0100 12.7383 0.6748
71.0300 12.7250 0.6699
71.0500 12.7117 0.6731
71.0700 12.6984 0.6685
71.0900 12.6850 0.6721
71.1100 12.6716 0.6676
71.1300 12.6583 0.6702
71.1500 12.6450 0.6670
71.1700 12.6317 0.6677
71.1900 12.6183 0.6669
71.2100 12.6049 0.6667
71.2300 12.5916 0.6654
71.2500 12.5783 0.6648
71.2700 12.5650 0.6645
71.2900 12.5516 0.6631
71.3100 12.5383 0.6644
71.3300 12.5250 0.6606
71.3500 12.5117 0.6631
71.3700 12.4983 0.6592
71.3900 12.4850 0.6622
71.4100 12.4717 0.6584
71.4300 12.4584 0.6605
71.4500 12.4450 0.6573
71.4700 12.4317 0.6582
71.4900 12.4183 0.6572
71.5100 12.4050 0.6566
71.5300 12.3917 0.6555
71.5500 12.3783 0.6555
71.5700 12.3649 0.6547
71.5900 12.3516 0.6534
71.6100 12.3383 0.6542
71.6300 12.3250 0.6511
71.6500 12.3116 0.6535
71.6700 12.2983 0.6497
71.6900 12.2850 0.6528
71.7100 12.2716 0.6480
71.7300 12.2583 0.6511
71.7500 12.2449 0.6476
71.7700 12.2317 0.6489
71.7900 12.2184 0.6469
71.8100 12.2050 0.6475
71.8300 12.1917 0.6451
71.8500 12.1783 0.6463
71.8700 12.1650 0.6448
71.8900 12.1517 0.6442
71.9100 12.1383 0.6445
71.9300 12.1249 0.6422
71.9500 12.1116 0.6433
71.9700 12.0983 0.6407
71.9900 12.0849 0.6427
72.0100 12.0716 0.6386
72.0300 12.0582 0.6420
72.0500 12.0449 0.6370
72.0700 12.0316 0.6400
72.0900 12.0183 0.6364
72.1100 12.0050 0.6387
72.1300 11.9917 0.6349
72.1500 11.9784 0.6378
72.1700 11.9650 0.6342
72.1900 11.9517 0.6352
72.2100 11.9383 0.6339
72.2300 11.9250 0.6331
72.2500 11.9117 0.6325
72.2700 11.8983 0.6315
72.2900 11.8850 0.6323
72.3100 11.8716 0.6292
72.3300 11.8583 0.6311
72.3500 11.8450 0.6285
72.3700 11.8316 0.6300
72.3900 11.8183 0.6276
72.4100 11.8050 0.6287
72.4300 11.7916 0.6250
72.4500 11.7783 0.6278
72.4700 11.7650 0.6243
72.4900 11.7517 0.6257
72.5100 11.7384 0.6237
72.5300 11.7250 0.6239
72.5500 11.7117 0.6226
72.5700 11.6983 0.6231
72.5900 11.6850 0.6220
72.6100 11.6717 0.6204
72.6300 11.6583 0.6209
72.6500 11.6449 0.6190
72.6700 11.6316 0.6198
72.6900 11.6184 0.6176
72.7100 11.6050 0.6188
72.7300 11.5917 0.6149
72.7500 11.5783 0.6179
72.7700 11.5650 0.6144
72.7900 11.5517 0.6160
72.8100 11.5383 0.6130
72.8300 11.5250 0.6149
72.8500 11.5117 0.6115
72.8700 11.4983 0.6124
72.8900 11.4850 0.6110
72.9100 11.4717 0.6111
72.9300 11.4583 0.6100
72.9500 11.4450 0.6093
72.9700 11.4317 0.6089
72.9900 11.4183 0.6073
73.0100 11.4050 0.6088
73.0300 11.3916 0.6048
73.0500 11.3783 0.6075
73.0700 11.3650 0.6042
73.0900 11.3516 0.6058
73.1100 11.3383 0.6028
73.1300 11.3249 0.6053
73.1500 11.3116 0.6010
73.1700 11.2983 0.6041
73.1900 11.2850 0.5999
73.2100 11.2717 0.6025
73.2300 11.2584 0.5987
73.2500 11.2450 0.6010
73.2700 11.2317 0.5978
73.2900 11.2183 0.5989
73.3100 11.2050 0.5981
73.3300 11.1917 0.5958
73.3500 11.1783 0.5972
73.3700 11.1650 0.5946
73.3900 11.1516 0.5961
73.4100 11.1383 0.5927
73.4300 11.1250 0.5946
73.4500 11.1116 0.5913
73.4700 11.0982 0.5939
73.4900 11.0849 0.5901
73.5100 11.0716 0.5915
73.5300 11.0583 0.5888
73.5500 11.0449 0.5908
73.5700 11.0316 0.5883
73.5900 11.0184 0.5882
73.6100 11.0051 0.5882
73.6300 10.9917 0.5865
73.6500 10.9783 0.5863
73.6700 10.9650 0.5856
73.6900 10.9517 0.5847
73.7100 10.9384 0.5842
73.7300 10.9250 0.5832
73.7500 10.9116 0.5833
73.7700 10.8983 0.5825
73.7900 10.8849 0.5818
73.8100 10.8716 0.5813
73.8300 10.8582 0.5800
73.8500 10.8449 0.5804
73.8700 10.8317 0.5786
73.8900 10.8183 0.5787
73.9100 10.8050 0.5777
73.9300 10.7917 0.5773
73.9500 10.7784 0.5759
73.9700 10.7651 0.5760
73.9900 10.7517 0.5748
74.0100 10.7383 0.5746
74.0300 10.7250 0.5739
74.0500 10.7117 0.5721
74.0700 10.6983 0.5725
74.0900 10.6850 0.5710
74.1100 10.6716 0.5721
74.1300 10.6583 0.5684
74.1500 10.6450 0.5708
74.1700 10.6316 0.5674
74.1900 10.6182 0.5695
74.2100 10.6049 0.5670
74.2300 10.5916 0.5669
74.2500 10.5783 0.5665
74.2700 10.5650 0.5647
74.2900 10.5517 0.5657
74.3100 10.5384 0.5633
74.3300 10.5251 0.5644
74.3500 10.5117 0.5619
74.3700 10.4983 0.5634
74.3900 10.4850 0.5608
74.4100 10.4716 0.5616
74.4300 10.4583 0.5588
74.4500 10.4449 0.5605
74.4700 10.4316 0.5579
74.4900 10.4183 0.5581
74.5100 10.4050 0.5576
74.5300 10.3917 0.5561
74.5500 10.3783 0.5560
74.5700 10.3650 0.5551
74.5900 10.3516 0.5540
74.6100 10.3383 0.5535
74.6300 10.3249 0.5532
74.6500 10.3116 0.5523
74.6700 10.2983 0.5512
74.6900 10.2851 0.5514
74.7100 10.2717 0.5503
74.7300 10.2583 0.5495
74.7500 10.2450 0.5492
74.7700 10.2317 0.5476
74.7900 10.2183 0.5478
74.8100 10.2050 0.5467
74.8300 10.1916 0.5476
74.8500 10.1783 0.5442
74.8700 10.1650 0.5459
74.8900 10.1516 0.5435
74.9100 10.1383 0.5447
74.9300 10.1249 0.5427
74.9500 10.1116 0.5429
74.9700 10.0983 0.5412
74.9900 10.0849 0.5417
75.0100 10.0716 0.5408
75.0300 10.0583 0.5389
75.0500 10.0450 0.5405
75.0700 10.0317 0.5374
75.0900 10.0183 0.5387
75.1100 10.0050 0.5365
75.1300 9.9917 0.5374
75.1500 9.9784 0.5337
75.1700 9.9650 0.5365
75.1900 9.9516 0.5338
75.2100 9.9383 0.5346
75.2300 9.9250 0.5329
75.2500 9.9116 0.5323
75.2700 9.8982 0.5320
75.2900 9.8849 0.5310
75.3100 9.8716 0.5306
75.3300 9.8583 0.5288
75.3500 9.8450 0.5296
75.3700 9.8317 0.5275
75.3900 9.8184 0.5271
75.4100 9.8050 0.5262
75.4300 9.7917 0.5267
75.4500 9.7783 0.5244
75.4700 9.7650 0.5251
75.4900 9.7517 0.5234
75.5100 9.7383 0.5237
75.5300 9.7250 0.5226
75.5500 9.7116 0.5226
75.5700 9.6983 0.5206
75.5900 9.6850 0.5208
75.6100 9.6716 0.5199
75.6300 9.6583 0.5191
75.6500 9.6449 0.5178
75.6700 9.6316 0.5186
75.6900 9.6183 0.5160
75.7100 9.6050 0.5174
75.7300 9.5916 0.5159
75.7500 9.5784 0.5144
75.7700 9.5651 0.5153
75.7900 9.5517 0.5124
75.8100 9.5384 0.5136
75.8300 9.5250 0.5112
75.8500 9.5117 0.5124
75.8700 9.4983 0.5090
75.8900 9.4849 0.5110
75.9100 9.4716 0.5087
75.9300 9.4583 0.5087
75.9500 9.4450 0.5074
75.9700 9.4316 0.5079
75.9900 9.4183 0.5063
76.0100 9.4049 0.5059
76.0300 9.3916 0.5057
76.0500 9.3783 0.5030
76.0700 9.3650 0.5045
76.0900 9.3517 0.5019
76.1100 9.3384 0.5035
76.1300 9.3251 0.5001
76.1500 9.3117 0.5020
76.1700 9.2984 0.4987
76.1900 9.2850 0.4994
76.2100 9.2717 0.4978
76.2300 9.2583 0.4978
76.2500 9.2450 0.4962
76.2700 9.2316 0.4970
76.2900 9.2182 0.4948
76.3100 9.2049 0.4955
76.3300 9.1916 0.4942
76.3500 9.1783 0.4931
76.3700 9.1649 0.4928
76.3900 9.1516 0.4919
76.4100 9.1383 0.4912
76.4300 9.1249 0.4904
76.4500 9.1116 0.4901
76.4700 9.0983 0.4892
76.4900 9.0850 0.4882
76.5100 9.0717 0.4881
76.5300 9.0583 0.4868
76.5500 9.0450 0.4860
76.5700 9.0317 0.4861
76.5900 9.0183 0.4835
76.6100 9.0050 0.4851
76.6300 8.9916 0.4828
76.6500 8.9783 0.4837
76.6700 8.9650 0.4812
76.6900 8.9516 0.4829
76.7100 8.9383 0.4809
76.7300 8.9249 0.4803
76.7500 8.9116 0.4795
76.7700 8.8983 0.4786
76.7900 8.8849 0.4785
76.8100 8.8716 0.4769
76.8300 8.8583 0.4771
76.8500 8.8450 0.4752
76.8700 8.8317 0.4761
76.8900 8.8183 0.4730
76.9100 8.8050 0.4748
76.9300 8.7917 0.4725
76.9500 8.7783 0.4730
76.9700 8.7650 0.4707
76.9900 8.7516 0.4721
77.0100 8.7383 0.4692
77.0300 8.7250 0.4701
77.0500 8.7116 0.4682
77.0700 8.6983 0.4679
77.0900 8.6849 0.4672
77.1100 8.6716 0.4668
77.1300 8.6583 0.4650
77.1500 8.6450 0.4661
77.1700 8.6316 0.4645
77.1900 8.6183 0.4639
77.2100 8.6050 0.4632
77.2300 8.5917 0.4623
77.2500 8.5783 0.4621
77.2700 8.5650 0.4599
77.2900 8.5517 0.4613
77.3100 8.5384 0.4576
77.3300 8.5250 0.4599
77.3500 8.5116 0.4569
77.3700 8.4982 0.4580
77.3900 8.4849 0.4548
77.4100 8.4716 0.4574
77.4300 8.4583 0.4527
77.4500 8.4449 0.4556
77.4700 8.4316 0.4521
77.4900 8.4183 0.4540
77.5100 8.4050 0.4510
77.5300 8.3917 0.4521
77.5500 8.3784 0.4507
77.5700 8.3651 0.4492
77.5900 8.3517 0.4508
77.6100 8.3384 0.4468
77.6300 8.3250 0.4495
77.6500 8.3117 0.4460
77.6700 8.2983 0.4473
77.6900 8.2850 0.4437
77.7100 8.2716 0.4462
77.7300 8.2583 0.4433
77.7500 8.2450 0.4433
77.7700 8.2316 0.4425
77.7900 8.2183 0.4418
77.8100 8.2049 0.4412
77.8300 8.1916 0.4403
77.8500 8.1783 0.4401
77.8700 8.1650 0.4378
77.8900 8.1516 0.4398
77.9100 8.1383 0.4361
77.9300 8.1250 0.4375
77.9500 8.1117 0.4354
77.9700 8.0983 0.4362
77.9900 8.0850 0.4336
78.0100 8.0717 0.4353
78.0300 8.0583 0.4331
78.0500 8.0450 0.4320
78.0700 8.0316 0.4319
78.0900 8.0183 0.4307
78.1100 8.0050 0.4299
78.1300 7.9916 0.4294
78.1500 7.9783 0.4288
78.1700 7.9649 0.4278
78.1900 7.9516 0.4274
78.2100 7.9383 0.4258
78.2300 7.9250 0.4260
78.2500 7.9117 0.4249
78.2700 7.8983 0.4256
78.2900 7.8850 0.4215
78.3100 7.8717 0.4245
78.3300 7.8583 0.4207
78.3500 7.8450 0.4224
78.3700 7.8316 0.4192
78.3900 7.8183 0.4210
78.4100 7.8050 0.4170
78.4300 7.7916 0.4204
78.4500 7.7783 0.4164
78.4700 7.7650 0.4177
78.4900 7.7517 0.4155
78.5100 7.7383 0.4149
78.5300 7.7250 0.4158
78.5500 7.7116 0.4121
78.5700 7.6983 0.4151
78.5900 7.6850 0.4091
78.6100 7.6716 0.4141
78.6300 7.6583 0.4087
78.6500 7.6450 0.4114
78.6700 7.6317 0.4075
78.6900 7.6184 0.4096
78.7100 7.6050 0.4060
78.7300 7.5917 0.4076
78.7500 7.5783 0.4060
78.7700 7.5650 0.4045
78.7900 7.5516 0.4054
78.8100 7.5383 0.4033
78.8300 7.5250 0.4040
78.8500 7.5116 0.4017
78.8700 7.4983 0.4036
78.8900 7.4849 0.3989
78.9100 7.4716 0.4030
78.9300 7.4583 0.3975
78.9500 7.4450 0.3994
78.9700 7.4316 0.3975
78.9900 7.4183 0.3979
79.0100 7.4050 0.3948
79.0300 7.3917 0.3972
79.0500 7.3784 0.3936
79.0700 7.3650 0.3951
79.0900 7.3517 0.3928
79.1100 7.3384 0.3934
79.1300 7.3250 0.3903
79.1500 7.3116 0.3920
79.1700 7.2983 0.3901
79.1900 7.2849 0.3891
79.2100 7.2716 0.3897
79.2300 7.2582 0.3869
79.2500 7.2449 0.3886
79.2700 7.2316 0.3856
79.2900 7.2183 0.3873
79.3100 7.2050 0.3839
79.3300 7.1916 0.3871
79.3500 7.1783 0.3821
79.3700 7.1650 0.3854
79.3900 7.1517 0.3800
79.4100 7.1384 0.3834
79.4300 7.1250 0.3786
79.4500 7.1117 0.3811
79.4700 7.0983 0.3780
79.4900 7.0850 0.3780
79.5100 7.0716 0.3775
79.5300 7.0583 0.3766
79.5500 7.0450 0.3765
79.5700 7.0316 0.3742
79.5900 7.0183 0.3763
79.6100 7.0049 0.3716
79.6300 6.9916 0.3753
79.6500 6.9783 0.3703
79.6700 6.9650 0.3731
79.6900 6.9516 0.3701
79.7100 6.9383 0.3723
79.7300 6.9250 0.3681
79.7500 6.9117 0.3704
79.7700 6.8984 0.3683
79.7900 6.8850 0.3679
79.8100 6.8717 0.3672
79.8300 6.8584 0.3660
79.8500 6.8450 0.3647
79.8700 6.8317 0.3641
79.8900 6.8183 0.3648
79.9100 6.8050 0.3616
79.9300 6.7917 0.3630
79.9500 6.7783 0.3605
79.9700 6.7650 0.3614
79.9900 6.7516 0.3596
80.0100 6.7383 0.3600
80.0300 6.7250 0.3566
80.0500 6.7116 0.3591
80.0700 6.6983 0.3556
80.0900 6.6850 0.3579
80.1100 6.6717 0.3534
80.1300 6.6583 0.3574
80.1500 6.6450 0.3525
80.1700 6.6316 0.3560
80.1900 6.6183 0.3519
80.2100 6.6050 0.3523
80.2300 6.5917 0.3509
80.2500 6.5783 0.3506
80.2700 6.5650 0.3493
80.2900 6.5516 0.3477
80.3100 6.5383 0.3492
80.3300 6.5249 0.3459
80.3500 6.5116 0.3472
80.3700 6.4983 0.3443
80.3900 6.4850 0.3450
80.4100 6.4716 0.3429
80.4300 6.4583 0.3451
80.4500 6.4450 0.3411
80.4700 6.4317 0.3421
80.4900 6.4184 0.3412
80.5100 6.4050 0.3396
80.5300 6.3917 0.3407
80.5500 6.3783 0.3395
80.5700 6.3650 0.3383
80.5900 6.3517 0.3369
80.6100 6.3383 0.3376
80.6300 6.3250 0.3348
80.6500 6.3117 0.3346
80.6700 6.2983 0.3349
80.6900 6.2849 0.3327
80.7100 6.2716 0.3322
80.7300 6.2583 0.3323
80.7500 6.2450 0.3297
80.7700 6.2316 0.3308
80.7900 6.2183 0.3294
80.8100 6.2050 0.3283
80.8300 6.1917 0.3275
80.8500 6.1784 0.3268
80.8700 6.1650 0.3260
80.8900 6.1517 0.3259
80.9100 6.1384 0.3243
80.9300 6.1251 0.3236
80.9500 6.1117 0.3232
80.9700 6.0983 0.3232
80.9900 6.0849 0.3219
81.0100 6.0716 0.3202
81.0300 6.0583 0.3214
81.0500 6.0449 0.3172
81.0700 6.0316 0.3206
81.0900 6.0183 0.3159
81.1100 6.0050 0.3180
81.1300 5.9917 0.3151
81.1500 5.9783 0.3172
81.1700 5.9650 0.3130
81.1900 5.9517 0.3147
81.2100 5.9384 0.3123
81.2300 5.9250 0.3129
81.2500 5.9116 0.3117
81.2700 5.8983 0.3111
81.2900 5.8850 0.3106
81.3100 5.8717 0.3094
81.3300 5.8583 0.3106
81.3500 5.8449 0.3067
81.3700 5.8316 0.3091
81.3900 5.8183 0.3058
81.4100 5.8049 0.3068
81.4300 5.7916 0.3041
81.4500 5.7783 0.3056
81.4700 5.7650 0.3016
81.4900 5.7516 0.3038
81.5100 5.7383 0.3012
81.5300 5.7250 0.3021
81.5500 5.7117 0.2989
81.5700 5.6984 0.3008
81.5900 5.6850 0.2980
81.6100 5.6716 0.2994
81.6300 5.6583 0.2972
81.6500 5.6450 0.2970
81.6700 5.6316 0.2968
81.6900 5.6182 0.2966
81.7100 5.6049 0.2945
81.7300 5.5916 0.2937
81.7500 5.5783 0.2939
81.7700 5.5649 0.2909
81.7900 5.5516 0.2924
81.8100 5.5383 0.2900
81.8300 5.5250 0.2908
81.8500 5.5117 0.2873
81.8700 5.4983 0.2904
81.8900 5.4850 0.2852
81.9100 5.4717 0.2890
81.9300 5.4584 0.2843
81.9500 5.4450 0.2869
81.9700 5.4317 0.2831
81.9900 5.4183 0.2862
82.0100 5.4050 0.2819
82.0300 5.3917 0.2838
82.0500 5.3783 0.2815
82.0700 5.3649 0.2809
82.0900 5.3516 0.2799
82.1100 5.3383 0.2791
82.1300 5.3249 0.2793
82.1500 5.3116 0.2765
82.1700 5.2983 0.2782
82.1900 5.2850 0.2741
82.2100 5.2716 0.2771
82.2300 5.2583 0.2727
82.2500 5.2450 0.2756
82.2700 5.2317 0.2698
82.2900 5.2184 0.2751
82.3100 5.2050 0.2697
82.3300 5.1917 0.2715
82.3500 5.1784 0.2693
82.3700 5.1650 0.2700
82.3900 5.1517 0.2686
82.4100 5.1383 0.2689
82.4300 5.1249 0.2670
82.4500 5.1116 0.2655
82.4700 5.0983 0.2664
82.4900 5.0849 0.2635
82.5100 5.0715 0.2648
82.5300 5.0582 0.2622
82.5500 5.0450 0.2634
82.5700 5.0316 0.2591
82.5900 5.0183 0.2633
82.6100 5.0050 0.2584
82.6300 4.9917 0.2605
82.6500 4.9784 0.2572
82.6700 4.9650 0.2599
82.6900 4.9517 0.2563
82.7100 4.9383 0.2591
82.7300 4.9250 0.2552
82.7500 4.9116 0.2569
82.7700 4.8983 0.2547
82.7900 4.8849 0.2540
82.8100 4.8716 0.2533
82.8300 4.8583 0.2516
82.8500 4.8449 0.2523
82.8700 4.8316 0.2489
82.8900 4.8182 0.2521
82.9100 4.8050 0.2468
82.9300 4.7916 0.2502
82.9500 4.7783 0.2462
82.9700 4.7650 0.2483
82.9900 4.7517 0.2442
83.0100 4.7384 0.2474
83.0300 4.7251 0.2438
83.0500 4.7117 0.2449
83.0700 4.6984 0.2427
83.0900 4.6850 0.2432
83.1100 4.6716 0.2410
83.1300 4.6583 0.2410
83.1500 4.6449 0.2405
83.1700 4.6316 0.2381
83.1900 4.6183 0.2385
83.2100 4.6049 0.2363
83.2300 4.5916 0.2379
83.2500 4.5783 0.2344
83.2700 4.5650 0.2358
83.2900 4.5517 0.2319
83.3100 4.5383 0.2354
83.3300 4.5250 0.2308
83.3500 4.5117 0.2339
83.3700 4.4984 0.2300
83.3900 4.4851 0.2324
83.4100 4.4717 0.2277
83.4300 4.4583 0.2315
83.4500 4.4450 0.2269
83.4700 4.4316 0.2281
83.4900 4.4183 0.2257
83.5100 4.4050 0.2255
83.5300 4.3917 0.2251
83.5500 4.3783 0.2230
83.5700 4.3650 0.2244
83.5900 4.3516 0.2204
83.6100 4.3383 0.2236
83.6300 4.3250 0.2184
83.6500 4.3117 0.2220
83.6700 4.2983 0.2177
83.6900 4.2850 0.2214
83.7100 4.2717 0.2156
83.7300 4.2583 0.2207
83.7500 4.2450 0.2151
83.7700 4.2317 0.2167
83.7900 4.2183 0.2140
83.8100 4.2050 0.2147
83.8300 4.1917 0.2126
83.8500 4.1783 0.2119
83.8700 4.1649 0.2128
83.8900 4.1516 0.2092
83.9100 4.1383 0.2112
83.9300 4.1250 0.2079
83.9500 4.1116 0.2094
83.9700 4.0983 0.2066
83.9900 4.0850 0.2090
84.0100 4.0716 0.2042
84.0300 4.0583 0.2084
84.0500 4.0450 0.2039
84.0700 4.0317 0.2058
84.0900 4.0183 0.2026
84.1100 4.0050 0.2043
84.1300 3.9916 0.2005
84.1500 3.9783 0.2020
84.1700 3.9650 0.1995
84.1900 3.9517 0.1996
84.2100 3.9383 0.1984
84.2300 3.9249 0.1985
84.2500 3.9116 0.1963
84.2700 3.8983 0.1968
84.2900 3.8849 0.1969
84.3100 3.8716 0.1936
84.3300 3.8583 0.1954
84.3500 3.8450 0.1924
84.3700 3.8316 0.1935
84.3900 3.8183 0.1906
84.4100 3.8050 0.1939
84.4300 3.7917 0.1879
84.4500 3.7784 0.1916
84.4700 3.7650 0.1877
84.4900 3.7516 0.1881
84.5100 3.7383 0.1863
84.5300 3.7250 0.1868
84.5500 3.7117 0.1836
84.5700 3.6983 0.1845
84.5900 3.6849 0.1850
84.6100 3.6716 0.1813
84.6300 3.6583 0.1836
84.6500 3.6450 0.1803
84.6700 3.6316 0.1822
84.6900 3.6183 0.1789
84.7100 3.6050 0.1826
84.7300 3.5917 0.1777
84.7500 3.5783 0.1819
84.7700 3.5650 0.1768
84.7900 3.5517 0.1794
84.8100 3.5384 0.1756
84.8300 3.5250 0.1784
84.8500 3.5117 0.1733
84.8700 3.4983 0.1753
84.8900 3.4850 0.1731
84.9100 3.4716 0.1717
84.9300 3.4583 0.1717
84.9500 3.4449 0.1709
84.9700 3.4316 0.1698
84.9900 3.4183 0.1681
85.0100 3.4050 0.1698
85.0300 3.3916 0.1657
85.0500 3.3783 0.1691
85.0700 3.3650 0.1656
85.0900 3.3517 0.1665
85.1100 3.3383 0.1628
85.1300 3.3250 0.1657
85.1500 3.3117 0.1612
85.1700 3.2984 0.1628
85.1900 3.2850 0.1607
85.2100 3.2717 0.1611
85.2300 3.2583 0.1587
85.2500 3.2450 0.1598
85.2700 3.2317 0.1563
85.2900 3.2184 0.1583
85.3100 3.2050 0.1562
85.3300 3.1916 0.1548
85.3500 3.1783 0.1557
85.3700 3.1649 0.1537
85.3900 3.1516 0.1541
85.4100 3.1383 0.1508
85.4300 3.1250 0.1531
85.4500 3.1117 0.1487
85.4700 3.0983 0.1502
85.4900 3.0850 0.1475
85.5100 3.0717 0.1481
85.5300 3.0583 0.1450
85.5500 3.0450 0.1469
85.5700 3.0316 0.1443
85.5900 3.0183 0.1449
85.6100 3.0050 0.1439
85.6300 2.9917 0.1418
85.6500 2.9783 0.1426
85.6700 2.9649 0.1402
85.6900 2.9516 0.1415
85.7100 2.9383 0.1370
85.7300 2.9250 0.1399
85.7500 2.9116 0.1355
85.7700 2.8983 0.1383
85.7900 2.8850 0.1356
85.8100 2.8717 0.1368
85.8300 2.8583 0.1332
85.8500 2.8449 0.1350
85.8700 2.8316 0.1306
85.8900 2.8184 0.1323
85.9100 2.8050 0.1300
85.9300 2.7917 0.1299
85.9500 2.7783 0.1287
85.9700 2.7650 0.1287
85.9900 2.7517 0.1275
86.0100 2.7383 0.1262
86.0300 2.7249 0.1268
86.0500 2.7116 0.1240
86.0700 2.6983 0.1249
86.0900 2.6850 0.1230
86.1100 2.6716 0.1225
86.1300 2.6582 0.1205
86.1500 2.6449 0.1229
86.1700 2.6316 0.1174
86.1900 2.6183 0.1205
86.2100 2.6050 0.1166
86.2300 2.5917 0.1191
86.2500 2.5784 0.1149
86.2700 2.5650 0.1173
86.2900 2.5517 0.1132
86.3100 2.5383 0.1147
86.3300 2.5250 0.1129
86.3500 2.5117 0.1114
86.3700 2.4983 0.1107
86.3900 2.4850 0.1099
86.4100 2.4716 0.1097
86.4300 2.4583 0.1072
86.4500 2.4449 0.1094
86.4700 2.4316 0.1052
86.4900 2.4182 0.1068
86.5100 2.4049 0.1034
86.5300 2.3916 0.1058
86.5500 2.3783 0.1012
86.5700 2.3650 0.1050
86.5900 2.3517 0.1004
86.6100 2.3384 0.1012
86.6300 2.3251 0.0992
86.6500 2.3117 0.0990
86.6700 2.2983 0.0968
86.6900 2.2850 0.0976
86.7100 2.2717 0.0955
86.7300 2.2583 0.0945
86.7500 2.2450 0.0958
86.7700 2.2316 0.0925
86.7900 2.2183 0.0930
86.8100 2.2050 0.0912
86.8300 2.1916 0.0914
86.8500 2.1782 0.0886
86.8700 2.1649 0.0911
86.8900 2.1516 0.0857
86.9100 2.1383 0.0886
86.9300 2.1250 0.0845
86.9500 2.1116 0.0874
86.9700 2.0984 0.0815
86.9900 2.0850 0.0861
87.0100 2.0716 0.0809
87.0300 2.0583 0.0839
87.0500 2.0450 0.0801
87.0700 2.0317 0.0814
87.0900 2.0183 0.0781
87.1100 2.0049 0.0793
87.1300 1.9916 0.0781
87.1500 1.9783 0.0760
87.1700 1.9650 0.0773
87.1900 1.9517 0.0733
87.2100 1.9383 0.0757
87.2300 1.9250 0.0717
87.2500 1.9117 0.0746
87.2700 1.8983 0.0689
87.2900 1.8850 0.0729
87.3100 1.8716 0.0684
87.3300 1.8583 0.0696
87.3500 1.8450 0.0668
87.3700 1.8317 0.0683
87.3900 1.8183 0.0652
87.4100 1.8050 0.0664
87.4300 1.7917 0.0638
87.4500 1.7783 0.0631
87.4700 1.7650 0.0628
87.4900 1.7516 0.0609
87.5100 1.7383 0.0616
87.5300 1.7250 0.0592
87.5500 1.7116 0.0599
87.5700 1.6983 0.0573
87.5900 1.6849 0.0579
87.6100 1.6716 0.0560
87.6300 1.6583 0.0552
87.6500 1.6450 0.0541
87.6700 1.6316 0.0543
87.6900 1.6184 0.0509
87.7100 1.6050 0.0524
87.7300 1.5917 0.0494
87.7500 1.5783 0.0503
87.7700 1.5650 0.0486
87.7900 1.5517 0.0479
87.8100 1.5383 0.0458
87.8300 1.5250 0.0461
87.8500 1.5116 0.0452
87.8700 1.4983 0.0432
87.8900 1.4850 0.0439
87.9100 1.4716 0.0419
87.9300 1.4582 0.0416
87.9500 1.4449 0.0400
87.9700 1.4316 0.0412
87.9900 1.4183 0.0368
88.0100 1.4049 0.0400
88.0300 1.3916 0.0347
88.0500 1.3784 0.0372
88.0700 1.3651 0.0336
88.0900 1.3517 0.0357
88.1100 1.3384 0.0319
88.1300 1.3250 0.0330
88.1500 1.3117 0.0316
88.1700 1.2984 0.0297
88.1900 1.2850 0.0304
88.2100 1.2716 0.0284
88.2300 1.2583 0.0280
88.2500 1.2449 0.0261
88.2700 1.2316 0.0273
88.2900 1.2182 0.0271
88.3100 1.2049 0.0304
88.3300 1.1917 0.0280
88.3500 1.1783 0.0278
88.3700 1.1650 0.0253
88.3900 1.1516 0.0261
88.4100 1.1383 0.0221
88.4300 1.1250 0.0242
88.4500 1.1117 0.0200
88.4700 1.0983 0.0202
88.4900 1.0850 0.0182
88.5100 1.0717 0.0178
88.5300 1.0583 0.0159
88.5500 1.0450 0.0152
88.5700 1.0316 0.0152
88.5900 1.0183 0.0118
88.6100 1.0050 0.0129
88.6300 0.9916 0.0105
88.6500 0.9783 0.0101
88.6700 0.9650 0.0081
88.6900 0.9516 0.0096
88.7100 0.9383 0.0046
88.7300 0.9250 0.0072
88.7500 0.9117 0.0043
88.7700 0.8984 0.0044
88.7900 0.8851 0.0021
88.8100 0.8717 0.0028
88.8300 0.8583 0.0000
88.8500 0.8450 0.0006
88.8700 0.8317 -0.0012
88.8900 0.8183 -0.0022
88.9100 0.8050 -0.0030
88.9300 0.7916 -0.0038
88.9500 0.7783 -0.0045
88.9700 0.7650 -0.0069
88.9900 0.7516 -0.0046
89.0100 0.7383 -0.0104
89.0300 0.7250 -0.0063
89.0500 0.7116 -0.0120
89.0700 0.6983 -0.0088
89.0900 0.6850 -0.0129
89.1100 0.6716 -0.0105
89.1300 0.6583 -0.0146
89.1500 0.6451 -0.0139
89.1700 0.6317 -0.0147
89.1900 0.6183 -0.0158
89.2100 0.6050 -0.0160
89.2300 0.5916 -0.0167
89.2500 0.5783 -0.0178
89.2700 0.5650 -0.0190
89.2900 0.5516 -0.0171
89.3100 0.5383 -0.0205
89.3300 0.5250 -0.0185
89.3500 0.5116 -0.0202
89.3700 0.4983 -0.0201
89.3900 0.4849 -0.0213
89.4100 0.4716 -0.0202
89.4300 0.4583 -0.0225
89.4500 0.4449 -0.0212
89.4700 0.4316 -0.0218
89.4900 0.4184 -0.0227
89.5100 0.4050 -0.0235
89.5300 0.3917 -0.0223
89.5500 0.3784 -0.0237
89.5700 0.3650 -0.0218
89.5900 0.3517 -0.0232
89.6100 0.3384 -0.0219
89.6300 0.3250 -0.0226
89.6500 0.3116 -0.0219
89.6700 0.2983 -0.0222
89.6900 0.2849 -0.0240
89.7100 0.2716 -0.0206
89.7300 0.2582 -0.0248
89.7500 0.2449 -0.0204
89.7700 0.2316 -0.0239
89.7900 0.2183 -0.0215
89.8100 0.2050 -0.0240
89.8300 0.1916 -0.0208
89.8500 0.1783 -0.0235
89.8700 0.1650 -0.0224
89.8900 0.1517 -0.0224
89.9100 0.1383 -0.0229
89.9300 0.1250 -0.0223
89.9500 0.1117 -0.0237
89.9700 0.0983 -0.0213
89.9900 0.0850 -0.0245
90.0100 0.0716 -0.0201
90.0300 0.0583 -0.0246
90.0500 0.0449 -0.0207
90.0700 0.0316 -0.0240
90.0900 0.0182 -0.0214
90.1100 0.0049 -0.0226
90.1180 -0.0003 -0.0201
