Raw Data
Time Displacement Force
(s) (mm) (N)
0.0000 0.0000 -0.0087
0.0200 0.0001 -0.0057
0.0400 0.0018 0.0065
0.0600 0.0088 0.0039
0.0800 0.0204 -0.0025
0.1000 0.0327 -0.0006
0.1200 0.0453 0.0028
0.1400 0.0587 0.0060
0.1600 0.0728 0.0081
0.1800 0.0871 0.0084
0.2000 0.1011 0.0123
0.2200 0.1147 0.0139
0.2400 0.1281 0.0172
0.2600 0.1414 0.0198
0.2800 0.1547 0.0221
0.3000 0.1680 0.0239
0.3200 0.1814 0.0258
0.3400 0.1947 0.0301
0.3600 0.2081 0.0309
0.3800 0.2214 0.0347
0.4000 0.2347 0.0359
0.4200 0.2480 0.0383
0.4400 0.2614 0.0396
0.4600 0.2747 0.0440
0.4800 0.2880 0.0438
0.5000 0.3014 0.0477
0.5200 0.3148 0.0487
0.5400 0.3281 0.0520
0.5600 0.3414 0.0530
0.5800 0.3548 0.0576
0.6000 0.3681 0.0571
0.6200 0.3815 0.0607
0.6400 0.3948 0.0614
0.6600 0.4081 0.0639
0.6800 0.4214 0.0655
0.7000 0.4347 0.0681
0.7200 0.4481 0.0694
0.7400 0.4614 0.0719
0.7600 0.4747 0.0749
0.7800 0.4881 0.0750
0.8000 0.5014 0.0796
0.8200 0.5147 0.0791
0.8400 0.5281 0.0830
0.8600 0.5415 0.0825
0.8800 0.5548 0.0883
0.9000 0.5681 0.0863
0.9200 0.5814 0.0915
0.9400 0.5948 0.0912
0.9600 0.6081 0.0947
0.9800 0.6215 0.0953
1.0000 0.6348 0.0991
1.0200 0.6480 0.0995
1.0400 0.6614 0.1016
1.0600 0.6747 0.1041
1.0800 0.6880 0.1046
1.1000 0.7013 0.1085
1.1200 0.7147 0.1089
1.1400 0.7280 0.1127
1.1600 0.7414 0.1117
1.1800 0.7547 0.1168
1.2000 0.7681 0.1152
1.2200 0.7814 0.1193
1.2400 0.7948 0.1201
1.2600 0.8081 0.1225
1.2800 0.8214 0.1243
1.3000 0.8347 0.1264
1.3200 0.8481 0.1281
1.3400 0.8615 0.1297
1.3600 0.8748 0.1322
1.3800 0.8881 0.1335
1.4000 0.9015 0.1346
1.4200 0.9148 0.1374
1.4400 0.9281 0.1387
1.4600 0.9414 0.1403
1.4800 0.9547 0.1431
1.5000 0.9680 0.1433
1.5200 0.9814 0.1469
1.5400 0.9947 0.1470
1.5600 1.0080 0.1500
1.5800 1.0214 0.1502
1.6000 1.0348 0.1542
1.6200 1.0481 0.1534
1.6400 1.0615 0.1570
1.6600 1.0748 0.1576
1.6800 1.0882 0.1606
1.7000 1.1015 0.1603
1.7200 1.1148 0.1644
1.7400 1.1281 0.1651
1.7600 1.1414 0.1668
1.7800 1.1547 0.1699
1.8000 1.1681 0.1688
1.8200 1.1814 0.1736
1.8400 1.1947 0.1721
1.8600 1.2080 0.1768
1.8800 1.2214 0.1755
1.9000 1.2347 0.1800
1.9200 1.2481 0.1798
1.9400 1.2614 0.1822
1.9600 1.2748 0.1835
1.9800 1.2882 0.1853
2.0000 1.3015 0.1862
2.0200 1.3148 0.1895
2.0400 1.3281 0.1899
2.0600 1.3415 0.1913
2.0800 1.3548 0.1938
2.1000 1.3681 0.1950
2.1200 1.3814 0.1964
2.1400 1.3948 0.1989
2.1600 1.4081 0.1998
2.1800 1.4214 0.2016
2.2000 1.4347 0.2037
2.2200 1.4480 0.2049
2.2400 1.4614 0.2062
2.2600 1.4747 0.2080
2.2800 1.4881 0.2096
2.3000 1.5014 0.2105
2.3200 1.5148 0.2141
2.3400 1.5282 0.2134
2.3600 1.5415 0.2165
2.3800 1.5548 0.2171
2.4000 1.5681 0.2196
2.4200 1.5815 0.2193
2.4400 1.5948 0.2226
2.4600 1.6081 0.2232
2.4800 1.6214 0.2244
2.5000 1.6347 0.2277
2.5200 1.6480 0.2275
2.5400 1.6613 0.2301
2.5600 1.6746 0.2311
2.5800 1.6880 0.2339
2.6000 1.7014 0.2318
2.6200 1.7147 0.2382
2.6400 1.7281 0.2352
2.6600 1.7414 0.2405
2.6800 1.7548 0.2392
2.7000 1.7682 0.2430
2.7200 1.7815 0.2416
2.7400 1.7948 0.2463
2.7600 1.8081 0.2457
2.7800 1.8215 0.2479
2.8000 1.8348 0.2501
2.8200 1.8481 0.2503
2.8400 1.8614 0.2525
2.8600 1.8747 0.2534
2.8800 1.8881 0.2562
2.9000 1.9014 0.2551
2.9200 1.9147 0.2598
2.9400 1.9281 0.2582
2.9600 1.9414 0.2617
2.9800 1.9547 0.2621
3.0000 1.9681 0.2650
3.0200 1.9814 0.2636
3.0400 1.9948 0.2678
3.0600 2.0081 0.2670
3.0800 2.0214 0.2706
3.1000 2.0347 0.2713
3.1200 2.0481 0.2731
3.1400 2.0615 0.2738
3.1600 2.0748 0.2759
3.1800 2.0881 0.2767
3.2000 2.1014 0.2781
3.2200 2.1148 0.2804
3.2400 2.1281 0.2814
3.2600 2.1414 0.2823
3.2800 2.1547 0.2851
3.3000 2.1680 0.2864
3.3200 2.1814 0.2857
3.3400 2.1947 0.2900
3.3600 2.2081 0.2885
3.3800 2.2214 0.2912
3.4000 2.2348 0.2917
3.4200 2.2481 0.2940
3.4400 2.2614 0.2946
3.4600 2.2747 0.2976
3.4800 2.2881 0.2980
3.5000 2.3015 0.2992
3.5200 2.3148 0.3003
3.5400 2.3281 0.3023
3.5600 2.3414 0.3033
3.5800 2.3548 0.3051
3.6000 2.3681 0.3067
3.6200 2.3814 0.3059
3.6400 2.3947 0.3105
3.6600 2.4080 0.3094
3.6800 2.4214 0.3128
3.7000 2.4347 0.3126
3.7200 2.4480 0.3155
3.7400 2.4614 0.3148
3.7600 2.4748 0.3182
3.7800 2.4882 0.3181
3.8000 2.5015 0.3203
3.8200 2.5148 0.3215
3.8400 2.5282 0.3230
3.8600 2.5415 0.3237
3.8800 2.5548 0.3254
3.9000 2.5681 0.3268
3.9200 2.5814 0.3277
3.9400 2.5947 0.3296
3.9600 2.6081 0.3303
3.9800 2.6214 0.3324
4.0000 2.6347 0.3334
4.0200 2.6480 0.3352
4.0400 2.6614 0.3352
4.0600 2.6748 0.3381
4.0800 2.6881 0.3380
4.1000 2.7014 0.3398
4.1200 2.7148 0.3394
4.1400 2.7282 0.3435
4.1600 2.7415 0.3412
4.1800 2.7548 0.3465
4.2000 2.7681 0.3453
4.2200 2.7815 0.3480
4.2400 2.7948 0.3479
4.2600 2.8081 0.3507
4.2800 2.8214 0.3500
4.3000 2.8347 0.3534
4.3200 2.8481 0.3529
4.3400 2.8614 0.3553
4.3600 2.8747 0.3561
4.3800 2.8880 0.3581
4.4000 2.9014 0.3583
4.4200 2.9148 0.3592
4.4400 2.9281 0.3626
4.4600 2.9414 0.3614
4.4800 2.9548 0.3651
4.5000 2.9681 0.3639
4.5200 2.9815 0.3677
4.5400 2.9948 0.3664
4.5600 3.0081 0.3700
4.5800 3.0215 0.3681
4.6000 3.0348 0.3714
4.6200 3.0481 0.3712
4.6400 3.0614 0.3735
4.6600 3.0748 0.3744
4.6800 3.0881 0.3760
4.7000 3.1014 0.3770
4.7200 3.1147 0.3781
4.7400 3.1280 0.3807
4.7600 3.1414 0.3798
4.7800 3.1548 0.3818
4.8000 3.1681 0.3826
4.8200 3.1814 0.3850
4.8400 3.1948 0.3849
4.8600 3.2082 0.3873
4.8800 3.2215 0.3872
4.9000 3.2348 0.3895
4.9200 3.2481 0.3905
4.9400 3.2614 0.3916
4.9600 3.2748 0.3926
4.9800 3.2881 0.3948
5.0000 3.3014 0.3948
5.0200 3.3147 0.3973
5.0400 3.3281 0.3976
5.0600 3.3414 0.3997
5.0800 3.3547 0.3999
5.1000 3.3680 0.4010
5.1200 3.3814 0.4031
5.1400 3.3947 0.4027
5.1600 3.4081 0.4065
5.1800 3.4214 0.4049
5.2000 3.4348 0.4089
5.2200 3.4481 0.4071
5.2400 3.4615 0.4119
5.2600 3.4748 0.4091
5.2800 3.4881 0.4139
5.3000 3.5015 0.4115
5.3200 3.5148 0.4153
5.3400 3.5282 0.4138
5.3600 3.5415 0.4179
5.3800 3.5548 0.4162
5.4000 3.5681 0.4197
5.4200 3.5814 0.4192
5.4400 3.5947 0.4211
5.4600 3.6080 0.4225
5.4800 3.6214 0.4225
5.5000 3.6347 0.4247
5.5200 3.6480 0.4245
5.5400 3.6614 0.4266
5.5600 3.6748 0.4260
5.5800 3.6882 0.4290
5.6000 3.7015 0.4285
5.6200 3.7148 0.4315
5.6400 3.7281 0.4311
5.6600 3.7415 0.4335
5.6800 3.7549 0.4328
5.7000 3.7681 0.4364
5.7200 3.7814 0.4360
5.7400 3.7947 0.4378
5.7600 3.8081 0.4386
5.7800 3.8214 0.4398
5.8000 3.8347 0.4411
5.8200 3.8480 0.4423
5.8400 3.8614 0.4434
5.8600 3.8747 0.4429
5.8800 3.8880 0.4459
5.9000 3.9014 0.4453
5.9200 3.9147 0.4482
5.9400 3.9281 0.4473
5.9600 3.9415 0.4508
5.9800 3.9548 0.4493
6.0000 3.9681 0.4544
6.0200 3.9815 0.4521
6.0400 3.9948 0.4554
6.0600 4.0081 0.4552
6.0800 4.0214 0.4574
6.1000 4.0347 0.4578
6.1200 4.0480 0.4589
6.1400 4.0614 0.4603
6.1600 4.0747 0.4597
6.1800 4.0880 0.4639
6.2000 4.1014 0.4620
6.2200 4.1148 0.4652
6.2400 4.1281 0.4647
6.2600 4.1414 0.4677
6.2800 4.1548 0.4655
6.3000 4.1682 0.4707
6.3200 4.1815 0.4673
6.3400 4.1948 0.4704
6.3600 4.2081 0.4691
6.3800 4.2214 0.4734
6.4000 4.2348 0.4713
6.4200 4.2481 0.4759
6.4400 4.2614 0.4748
6.4600 4.2748 0.4768
6.4800 4.2881 0.4772
6.5000 4.3015 0.4791
6.5200 4.3147 0.4787
6.5400 4.3280 0.4821
6.5600 4.3414 0.4810
6.5800 4.3547 0.4831
6.6000 4.3680 0.4840
6.6200 4.3814 0.4853
6.6400 4.3947 0.4868
6.6600 4.4081 0.4871
6.6800 4.4215 0.4888
6.7000 4.4348 0.4889
6.7200 4.4481 0.4915
6.7400 4.4615 0.4911
6.7600 4.4748 0.4930
6.7800 4.4881 0.4928
6.8000 4.5014 0.4956
6.8200 4.5148 0.4942
6.8400 4.5281 0.4986
6.8600 4.5414 0.4966
6.8800 4.5547 0.5000
6.9000 4.5680 0.4993
6.9200 4.5813 0.5013
6.9400 4.5947 0.5009
6.9600 4.6081 0.5021
6.9800 4.6214 0.5042
7.0000 4.6347 0.5040
7.0200 4.6481 0.5068
7.0400 4.6615 0.5060
7.0600 4.6748 0.5079
7.0800 4.6881 0.5081
7.1000 4.7015 0.5104
7.1200 4.7148 0.5094
7.1400 4.7282 0.5124
7.1600 4.7414 0.5127
7.1800 4.7548 0.5136
7.2000 4.7681 0.5155
7.2200 4.7814 0.5157
7.2400 4.7947 0.5169
7.2600 4.8080 0.5181
7.2800 4.8214 0.5193
7.3000 4.8347 0.5194
7.3200 4.8480 0.5208
7.3400 4.8614 0.5221
7.3600 4.8747 0.5214
7.3800 4.8881 0.5239
7.4000 4.9015 0.5226
7.4200 4.9148 0.5252
7.4400 4.9281 0.5256
7.4600 4.9415 0.5279
7.4800 4.9549 0.5279
7.5000 4.9682 0.5286
7.5200 4.9815 0.5314
7.5400 4.9948 0.5296
7.5600 5.0081 0.5336
7.5800 5.0214 0.5316
7.6000 5.0347 0.5332
7.6200 5.0480 0.5211
7.6400 5.0614 0.5198
7.6600 5.0747 0.5164
7.6800 5.0881 0.5219
7.7000 5.1014 0.5227
7.7200 5.1148 0.5259
7.7400 5.1281 0.5265
7.7600 5.1415 0.5294
7.7800 5.1548 0.5300
7.8000 5.1681 0.5317
7.8200 5.1814 0.5343
7.8400 5.1948 0.5341
7.8600 5.2081 0.5369
7.8800 5.2214 0.5371
7.9000 5.2347 0.5393
7.9200 5.2480 0.5397
7.9400 5.2614 0.5413
7.9600 5.2747 0.5416
7.9800 5.2880 0.5440
8.0000 5.3014 0.5443
8.0200 5.3147 0.5454
8.0400 5.3281 0.5455
8.0600 5.3414 0.5490
8.0800 5.3548 0.5478
8.1000 5.3681 0.5507
8.1200 5.3815 0.5503
8.1400 5.3948 0.5518
8.1600 5.4081 0.5528
8.1800 5.4215 0.5537
8.2000 5.4348 0.5546
8.2200 5.4481 0.5555
8.2400 5.4614 0.5576
8.2600 5.4747 0.5578
8.2800 5.4881 0.5595
8.3000 5.5014 0.5602
8.3200 5.5147 0.5613
8.3400 5.5280 0.5617
8.3600 5.5413 0.5639
8.3800 5.5547 0.5633
8.4000 5.5681 0.5651
8.4200 5.5814 0.5659
8.4400 5.5947 0.5668
8.4600 5.6081 0.5688
8.4800 5.6215 0.5681
8.5000 5.6348 0.5714
8.5200 5.6481 0.5687
8.5400 5.6614 0.5735
8.5600 5.6748 0.5697
8.5800 5.6882 0.5724
8.6000 5.7015 0.5713
8.6200 5.7148 0.5752
8.6400 5.7282 0.5738
8.6600 5.7415 0.5781
8.6800 5.7548 0.5758
8.7000 5.7681 0.5802
8.7200 5.7813 0.5786
8.7400 5.7947 0.5810
8.7600 5.8080 0.5807
8.7800 5.8214 0.5826
8.8000 5.8347 0.5823
8.8200 5.8481 0.5836
8.8400 5.8615 0.5846
8.8600 5.8748 0.5854
8.8800 5.8882 0.5863
8.9000 5.9015 0.5881
8.9200 5.9149 0.5883
8.9400 5.9282 0.5898
8.9600 5.9415 0.5910
8.9800 5.9548 0.5914
9.0000 5.9681 0.5931
9.0200 5.9814 0.5932
9.0400 5.9947 0.5949
9.0600 6.0080 0.5941
9.0800 6.0213 0.5975
9.1000 6.0347 0.5960
9.1200 6.0481 0.5979
9.1400 6.0614 0.5981
9.1600 6.0747 0.6003
9.1800 6.0881 0.5995
9.2000 6.1015 0.6013
9.2200 6.1148 0.6015
9.2400 6.1281 0.6026
9.2600 6.1415 0.6046
9.2800 6.1548 0.6049
9.3000 6.1682 0.6063
9.3200 6.1814 0.6066
9.3400 6.1947 0.6089
9.3600 6.2081 0.6073
9.3800 6.2214 0.6095
9.4000 6.2347 0.6085
9.4200 6.2480 0.6107
9.4400 6.2613 0.6115
9.4600 6.2747 0.6127
9.4800 6.2881 0.6138
9.5000 6.3014 0.6146
9.5200 6.3147 0.6153
9.5400 6.3281 0.6157
9.5600 6.3415 0.6177
9.5800 6.3548 0.6173
9.6000 6.3681 0.6189
9.6200 6.3815 0.6195
9.6400 6.3948 0.6215
9.6600 6.4082 0.6203
9.6800 6.4215 0.6241
9.7000 6.4348 0.6228
9.7200 6.4481 0.6257
9.7400 6.4614 0.6245
9.7600 6.4747 0.6275
9.7800 6.4880 0.6259
9.8000 6.5013 0.6297
9.8200 6.5147 0.6277
9.8400 6.5281 0.6306
9.8600 6.5414 0.6297
9.8800 6.5547 0.6326
9.9000 6.5681 0.6309
9.9200 6.5815 0.6338
9.9400 6.5949 0.6332
9.9600 6.6082 0.6350
9.9800 6.6215 0.6366
10.0000 6.6348 0.6366
10.0200 6.6481 0.6381
10.0400 6.6614 0.6379
10.0600 6.6747 0.6407
10.0800 6.6881 0.6388
10.1000 6.7014 0.6427
10.1200 6.7148 0.6409
10.1400 6.7281 0.6441
10.1600 6.7414 0.6432
10.1800 6.7547 0.6462
10.2000 6.7681 0.6443
10.2200 6.7814 0.6470
10.2400 6.7947 0.6467
10.2600 6.8081 0.6473
10.2800 6.8215 0.6471
10.3000 6.8348 0.6473
10.3200 6.8481 0.6486
10.3400 6.8614 0.6489
10.3600 6.8748 0.6524
10.3800 6.8882 0.6508
10.4000 6.9015 0.6537
10.4200 6.9148 0.6535
10.4400 6.9281 0.6551
10.4600 6.9414 0.6558
10.4800 6.9547 0.6569
10.5000 6.9680 0.6564
10.5200 6.9814 0.6588
10.5400 6.9947 0.6580
10.5600 7.0080 0.6595
10.5800 7.0214 0.6604
10.6000 7.0347 0.6616
10.6200 7.0481 0.6620
10.6400 7.0615 0.6632
10.6600 7.0748 0.6649
10.6800 7.0881 0.6638
10.7000 7.1014 0.6668
10.7200 7.1148 0.6669
10.7400 7.1281 0.6670
10.7600 7.1414 0.6689
10.7800 7.1547 0.6699
10.8000 7.1681 0.6697
10.8200 7.1814 0.6720
10.8400 7.1948 0.6714
10.8600 7.2080 0.6734
10.8800 7.2213 0.6730
10.9000 7.2347 0.6760
10.9200 7.2480 0.6740
10.9400 7.2614 0.6769
10.9600 7.2747 0.6766
10.9800 7.2881 0.6779
11.0000 7.3015 0.6781
11.0200 7.3149 0.6801
11.0400 7.3282 0.6799
11.0600 7.3415 0.6816
11.0800 7.3548 0.6825
11.1000 7.3682 0.6821
11.1200 7.3815 0.6846
11.1400 7.3947 0.6843
11.1600 7.4080 0.6861
11.1800 7.4214 0.6848
11.2000 7.4347 0.6875
11.2200 7.4480 0.6861
11.2400 7.4614 0.6887
11.2600 7.4747 0.6888
11.2800 7.4881 0.6894
11.3000 7.5014 0.6909
11.3200 7.5148 0.6914
11.3400 7.5281 0.6924
11.3600 7.5415 0.6933
11.3800 7.5549 0.6933
11.4000 7.5681 0.6936
11.4200 7.5814 0.6944
11.4400 7.5948 0.6962
11.4600 7.6081 0.6956
11.4800 7.6214 0.6975
11.5000 7.6347 0.6989
11.5200 7.6481 0.6992
11.5400 7.6614 0.7008
11.5600 7.6748 0.7009
11.5800 7.6881 0.7018
11.6000 7.7014 0.7022
11.6200 7.7147 0.7047
11.6400 7.7281 0.7030
11.6600 7.7414 0.7063
11.6800 7.7547 0.7051
11.7000 7.7681 0.7084
11.7200 7.7815 0.7062
11.7400 7.7948 0.7085
11.7600 7.8081 0.7085
11.7800 7.8214 0.7087
11.8000 7.8348 0.7116
11.8200 7.8482 0.7095
11.8400 7.8615 0.7124
11.8600 7.8748 0.7110
11.8800 7.8881 0.7141
11.9000 7.9014 0.7125
11.9200 7.9147 0.7171
11.9400 7.9280 0.7139
11.9600 7.9414 0.7179
11.9800 7.9547 0.7166
12.0000 7.9681 0.7195
12.0200 7.9814 0.7181
12.0400 7.9947 0.7211
12.0600 8.0081 0.7194
12.0800 8.0215 0.7222
12.1000 8.0348 0.7218
12.1200 8.0481 0.7231
12.1400 8.0614 0.7243
12.1600 8.0748 0.7248
12.1800 8.0881 0.7258
12.2000 8.1015 0.7255
12.2200 8.1148 0.7279
12.2400 8.1281 0.7273
12.2600 8.1414 0.7289
12.2800 8.1548 0.7286
12.3000 8.1681 0.7298
12.3200 8.1814 0.7297
12.3400 8.1947 0.7318
12.3600 8.2081 0.7304
12.3800 8.2214 0.7331
12.4000 8.2347 0.7326
12.4200 8.2481 0.7354
12.4400 8.2614 0.7332
12.4600 8.2748 0.7371
12.4800 8.2881 0.7355
12.5000 8.3014 0.7373
12.5200 8.3148 0.7382
12.5400 8.3282 0.7391
12.5600 8.3415 0.7397
12.5800 8.3548 0.7407
12.6000 8.3681 0.7419
12.6200 8.3814 0.7417
12.6400 8.3948 0.7440
12.6600 8.4081 0.7429
12.6800 8.4214 0.7458
12.7000 8.4347 0.7440
12.7200 8.4480 0.7479
12.7400 8.4614 0.7450
12.7600 8.4747 0.7497
12.7800 8.4880 0.7477
12.8000 8.5014 0.7494
12.8200 8.5148 0.7501
12.8400 8.5281 0.7507
12.8600 8.5414 0.7521
12.8800 8.5548 0.7524
12.9000 8.5682 0.7539
12.9200 8.5815 0.7523
12.9400 8.5948 0.7559
12.9600 8.6081 0.7539
12.9800 8.6214 0.7572
13.0000 8.6348 0.7552
13.0200 8.6481 0.7589
13.0400 8.6614 0.7568
13.0600 8.6747 0.7608
13.0800 8.6880 0.7583
13.1000 8.7014 0.7610
13.1200 8.7147 0.7614
13.1400 8.7281 0.7624
13.1600 8.7415 0.7605
13.1800 8.7548 0.7644
13.2000 8.7681 0.7619
13.2200 8.7814 0.7624
13.2400 8.7948 0.7616
13.2600 8.8081 0.7642
13.2800 8.8215 0.7634
13.3000 8.8348 0.7663
13.3200 8.8481 0.7668
13.3400 8.8614 0.7675
13.3600 8.8747 0.7688
13.3800 8.8880 0.7686
13.4000 8.9014 0.7712
13.4200 8.9147 0.7705
13.4400 8.9281 0.7731
13.4600 8.9414 0.7707
13.4800 8.9548 0.7753
13.5000 8.9681 0.7725
13.5200 8.9814 0.7760
13.5400 8.9948 0.7740
13.5600 9.0081 0.7775
13.5800 9.0214 0.7764
13.6000 9.0348 0.7788
13.6200 9.0481 0.7789
13.6400 9.0615 0.7791
13.6600 9.0748 0.7815
13.6800 9.0881 0.7810
13.7000 9.1015 0.7822
13.7200 9.1148 0.7823
13.7400 9.1281 0.7842
13.7600 9.1414 0.7830
13.7800 9.1547 0.7864
13.8000 9.1681 0.7852
13.8200 9.1814 0.7874
13.8400 9.1947 0.7863
13.8600 9.2080 0.7895
13.8800 9.2214 0.7878
13.9000 9.2348 0.7904
13.9200 9.2481 0.7899
13.9400 9.2615 0.7912
13.9600 9.2748 0.7916
13.9800 9.2882 0.7935
14.0000 9.3015 0.7922
14.0200 9.3148 0.7950
14.0400 9.3281 0.7953
14.0600 9.3415 0.7951
14.0800 9.3548 0.7968
14.1000 9.3681 0.7963
14.1200 9.3814 0.7972
14.1400 9.3947 0.7969
14.1600 9.4080 0.7990
14.1800 9.4214 0.7969
14.2000 9.4347 0.8015
14.2200 9.4481 0.7988
14.2400 9.4614 0.8018
14.2600 9.4748 0.8007
14.2800 9.4881 0.8032
14.3000 9.5015 0.8013
14.3200 9.5148 0.8045
14.3400 9.5281 0.8043
14.3600 9.5415 0.8046
14.3800 9.5548 0.8064
14.4000 9.5681 0.8062
14.4200 9.5814 0.8080
14.4400 9.5948 0.8071
14.4600 9.6081 0.8104
14.4800 9.6214 0.8077
14.5000 9.6347 0.8119
14.5200 9.6481 0.8093
14.5400 9.6614 0.8127
14.5600 9.6747 0.8107
14.5800 9.6880 0.8147
14.6000 9.7014 0.8121
14.6200 9.7148 0.8157
14.6400 9.7281 0.8151
14.6600 9.7414 0.8158
14.6800 9.7548 0.8171
14.7000 9.7682 0.8185
14.7200 9.7815 0.8177
14.7400 9.7948 0.8196
14.7600 9.8081 0.8204
14.7800 9.8214 0.8199
14.8000 9.8348 0.8218
14.8200 9.8481 0.8217
14.8400 9.8614 0.8226
14.8600 9.8747 0.8216
14.8800 9.8880 0.8254
14.9000 9.9014 0.8223
14.9200 9.9147 0.8271
14.9400 9.9280 0.8252
14.9600 9.9414 0.8279
14.9800 9.9548 0.8262
15.0000 9.9682 0.8294
15.0200 9.9815 0.8277
15.0400 9.9948 0.8310
15.0600 10.0081 0.8305
15.0800 10.0215 0.8310
15.1000 10.0348 0.8323
15.1200 10.0481 0.8321
15.1400 10.0614 0.8348
15.1600 10.0747 0.8325
15.1800 10.0881 0.8376
15.2000 10.1014 0.8320
15.2200 10.1147 0.8371
15.2400 10.1280 0.8342
15.2600 10.1414 0.8377
15.2800 10.1547 0.8375
15.3000 10.1681 0.8393
15.3200 10.1814 0.8381
15.3400 10.1948 0.8379
15.3600 10.2081 0.8401
15.3800 10.2215 0.8390
15.4000 10.2348 0.8423
15.4200 10.2481 0.8408
15.4400 10.2615 0.8437
15.4600 10.2748 0.8415
15.4800 10.2881 0.8465
15.5000 10.3014 0.8434
15.5200 10.3147 0.8473
15.5400 10.3281 0.8456
15.5600 10.3414 0.8481
15.5800 10.3547 0.8474
15.6000 10.3680 0.8500
15.6200 10.3814 0.8476
15.6400 10.3947 0.8509
15.6600 10.4081 0.8497
15.6800 10.4214 0.8528
15.7000 10.4348 0.8509
15.7200 10.4481 0.8542
15.7400 10.4614 0.8523
15.7600 10.4747 0.8552
15.7800 10.4881 0.8553
15.8000 10.5015 0.8549
15.8200 10.5148 0.8572
15.8400 10.5281 0.8566
15.8600 10.5415 0.8589
15.8800 10.5548 0.8569
15.9000 10.5681 0.8613
15.9200 10.5814 0.8578
15.9400 10.5947 0.8617
15.9600 10.6080 0.8599
15.9800 10.6214 0.8622
16.0000 10.6347 0.8605
16.0200 10.6480 0.8640
16.0400 10.6614 0.8625
16.0600 10.6748 0.8642
16.0800 10.6882 0.8655
16.1000 10.7015 0.8644
16.1200 10.7148 0.8678
16.1400 10.7282 0.8660
16.1600 10.7415 0.8692
16.1800 10.7548 0.8667
16.2000 10.7681 0.8714
16.2200 10.7814 0.8688
16.2400 10.7947 0.8716
16.2600 10.8081 0.8706
16.2800 10.8214 0.8723
16.3000 10.8347 0.8709
16.3200 10.8480 0.8749
16.3400 10.8614 0.8720
16.3600 10.8747 0.8747
16.3800 10.8881 0.8748
16.4000 10.9014 0.8752
16.4200 10.9148 0.8760
16.4400 10.9282 0.8764
16.4600 10.9415 0.8770
16.4800 10.9548 0.8767
16.5000 10.9682 0.8794
16.5200 10.9815 0.8786
16.5400 10.9948 0.8797
16.5600 11.0081 0.8816
16.5800 11.0214 0.8819
16.6000 11.0347 0.8818
16.6200 11.0481 0.8839
16.6400 11.0614 0.8831
16.6600 11.0747 0.8850
16.6800 11.0880 0.8848
16.7000 11.1014 0.8864
16.7200 11.1147 0.8845
16.7400 11.1281 0.8883
16.7600 11.1414 0.8862
16.7800 11.1548 0.8882
16.8000 11.1682 0.8888
16.8200 11.1815 0.8903
16.8400 11.1948 0.8890
16.8600 11.2081 0.8923
16.8800 11.2215 0.8913
16.9000 11.2348 0.8922
16.9200 11.2481 0.8945
16.9400 11.2614 0.8939
16.9600 11.2748 0.8952
16.9800 11.2881 0.8956
17.0000 11.3014 0.8965
17.0200 11.3147 0.8962
17.0400 11.3280 0.8983
17.0600 11.3414 0.8979
17.0800 11.3547 0.8978
17.1000 11.3681 0.9006
17.1200 11.3814 0.8997
17.1400 11.3948 0.9016
17.1600 11.4082 0.9007
17.1800 11.4215 0.9038
17.2000 11.4348 0.9014
17.2200 11.4481 0.9048
17.2400 11.4615 0.9031
17.2600 11.4748 0.9040
17.2800 11.4881 0.9041
17.3000 11.5014 0.9052
17.3200 11.5147 0.9047
17.3400 11.5281 0.9075
17.3600 11.5414 0.9062
17.3800 11.5547 0.9083
17.4000 11.5681 0.9079
17.4200 11.5814 0.9096
17.4400 11.5947 0.9085
17.4600 11.6080 0.9115
17.4800 11.6214 0.9108
17.5000 11.6348 0.9122
17.5200 11.6481 0.9125
17.5400 11.6614 0.9139
17.5600 11.6747 0.9128
17.5800 11.6881 0.9155
17.6000 11.7015 0.9154
17.6200 11.7148 0.9143
17.6400 11.7281 0.9181
17.6600 11.7414 0.9158
17.6800 11.7547 0.9194
17.7000 11.7681 0.9171
17.7200 11.7814 0.9207
17.7400 11.7947 0.9176
17.7600 11.8080 0.9220
17.7800 11.8214 0.9199
17.8000 11.8347 0.9219
17.8200 11.8481 0.9218
17.8400 11.8614 0.9240
17.8600 11.8747 0.9228
17.8800 11.8881 0.9255
17.9000 11.9015 0.9238
17.9200 11.9148 0.9241
17.9400 11.9281 0.9248
17.9600 11.9415 0.9259
17.9800 11.9548 0.9267
18.0000 11.9681 0.9271
18.0200 11.9814 0.9289
18.0400 11.9948 0.9283
18.0600 12.0081 0.9302
18.0800 12.0214 0.9308
18.1000 12.0347 0.9309
18.1200 12.0480 0.9319
18.1400 12.0614 0.9331
18.1600 12.0747 0.9323
18.1800 12.0880 0.9349
18.2000 12.1014 0.9347
18.2200 12.1148 0.9350
18.2400 12.1282 0.9363
18.2600 12.1415 0.9365
18.2800 12.1548 0.9374
18.3000 12.1682 0.9375
18.3200 12.1815 0.9401
18.3400 12.1949 0.9375
18.3600 12.2081 0.9419
18.3800 12.2214 0.9402
18.4000 12.2347 0.9423
18.4200 12.2481 0.9400
18.4400 12.2614 0.9440
18.4600 12.2747 0.9405
18.4800 12.2880 0.9450
18.5000 12.3014 0.9429
18.5200 12.3148 0.9455
18.5400 12.3281 0.9450
18.5600 12.3414 0.9471
18.5800 12.3548 0.9464
18.6000 12.3682 0.9476
18.6200 12.3815 0.9487
18.6400 12.3948 0.9467
18.6600 12.4081 0.9504
18.6800 12.4215 0.9489
18.7000 12.4348 0.9502
18.7200 12.4481 0.9498
18.7400 12.4614 0.9530
18.7600 12.4747 0.9499
18.7800 12.4881 0.9541
18.8000 12.5014 0.9521
18.8200 12.5147 0.9555
18.8400 12.5280 0.9534
18.8600 12.5414 0.9578
18.8800 12.5547 0.9543
18.9000 12.5681 0.9580
18.9200 12.5814 0.9573
18.9400 12.5948 0.9581
18.9600 12.6081 0.9589
18.9800 12.6215 0.9601
19.0000 12.6348 0.9601
19.0200 12.6481 0.9613
19.0400 12.6615 0.9626
19.0600 12.6748 0.9612
19.0800 12.6881 0.9640
19.1000 12.7014 0.9636
19.1200 12.7147 0.9648
19.1400 12.7281 0.9640
19.1600 12.7414 0.9669
19.1800 12.7547 0.9652
19.2000 12.7680 0.9672
19.2200 12.7814 0.9671
19.2400 12.7947 0.9674
19.2600 12.8081 0.9683
19.2800 12.8214 0.9688
19.3000 12.8348 0.9686
19.3200 12.8482 0.9693
19.3400 12.8615 0.9714
19.3600 12.8748 0.9698
19.3800 12.8881 0.9735
19.4000 12.9015 0.9728
19.4200 12.9148 0.9738
19.4400 12.9281 0.9723
19.4600 12.9414 0.9776
19.4800 12.9547 0.9731
19.5000 12.9681 0.9786
19.5200 12.9814 0.9759
19.5400 12.9947 0.9792
19.5600 13.0080 0.9768
19.5800 13.0214 0.9809
19.6000 13.0347 0.9786
19.6200 13.0481 0.9812
19.6400 13.0614 0.9815
19.6600 13.0748 0.9813
19.6800 13.0881 0.9826
19.7000 13.1015 0.9834
19.7200 13.1148 0.9836
19.7400 13.1281 0.9839
19.7600 13.1415 0.9861
19.7800 13.1549 0.9840
19.8000 13.1682 0.9874
19.8200 13.1815 0.9860
19.8400 13.1948 0.9893
19.8600 13.2081 0.9870
19.8800 13.2214 0.9902
19.9000 13.2347 0.9885
19.9200 13.2480 0.9906
19.9400 13.2614 0.9914
19.9600 13.2747 0.9909
19.9800 13.2880 0.9923
20.0000 13.3013 0.9936
20.0200 13.3147 0.9929
20.0400 13.3281 0.9943
20.0600 13.3415 0.9952
20.0800 13.3548 0.9951
20.1000 13.3681 0.9955
20.1200 13.3815 0.9954
20.1400 13.3949 0.9960
20.1600 13.4081 0.9960
20.1800 13.4214 0.9982
20.2000 13.4347 0.9982
20.2200 13.4481 0.9992
20.2400 13.4614 1.0004
20.2600 13.4747 0.9996
20.2800 13.4880 1.0023
20.3000 13.5013 1.0018
20.3200 13.5147 1.0028
20.3400 13.5280 1.0024
20.3600 13.5414 1.0049
20.3800 13.5547 1.0029
20.4000 13.5681 1.0059
20.4200 13.5815 1.0034
20.4400 13.5948 1.0067
20.4600 13.6081 1.0038
20.4800 13.6215 1.0093
20.5000 13.6348 1.0048
20.5200 13.6481 1.0106
20.5400 13.6614 1.0079
20.5600 13.6747 1.0110
20.5800 13.6881 1.0083
20.6000 13.7014 1.0126
20.6200 13.7147 1.0099
20.6400 13.7280 1.0127
20.6600 13.7414 1.0123
20.6800 13.7548 1.0127
20.7000 13.7681 1.0141
20.7200 13.7814 1.0145
20.7400 13.7948 1.0169
20.7600 13.8081 1.0140
20.7800 13.8215 1.0195
20.8000 13.8348 1.0153
20.8200 13.8481 1.0206
20.8400 13.8614 1.0179
20.8600 13.8748 1.0204
20.8800 13.8881 1.0190
20.9000 13.9014 1.0223
20.9200 13.9148 1.0208
20.9400 13.9281 1.0228
20.9600 13.9415 1.0227
20.9800 13.9548 1.0237
21.0000 13.9681 1.0238
21.0200 13.9814 1.0254
21.0400 13.9947 1.0256
21.0600 14.0081 1.0255
21.0800 14.0214 1.0285
21.1000 14.0347 1.0266
21.1200 14.0481 1.0285
21.1400 14.0615 1.0285
21.1600 14.0748 1.0300
21.1800 14.0881 1.0290
21.2000 14.1015 1.0321
21.2200 14.1148 1.0306
21.2400 14.1281 1.0324
21.2600 14.1414 1.0324
21.2800 14.1547 1.0346
21.3000 14.1681 1.0328
21.3200 14.1814 1.0360
21.3400 14.1947 1.0352
21.3600 14.2080 1.0362
21.3800 14.2214 1.0371
21.4000 14.2347 1.0363
21.4200 14.2481 1.0362
21.4400 14.2614 1.0354
21.4600 14.2747 1.0381
21.4800 14.2881 1.0352
21.5000 14.3015 1.0403
21.5200 14.3148 1.0375
21.5400 14.3281 1.0414
21.5600 14.3415 1.0402
21.5800 14.3548 1.0422
21.6000 14.3681 1.0413
21.6200 14.3815 1.0437
21.6400 14.3948 1.0434
21.6600 14.4081 1.0446
21.6800 14.4214 1.0447
21.7000 14.4347 1.0457
21.7200 14.4480 1.0461
21.7400 14.4614 1.0473
21.7600 14.4747 1.0477
21.7800 14.4881 1.0476
21.8000 14.5014 1.0501
21.8200 14.5147 1.0492
21.8400 14.5281 1.0507
21.8600 14.5415 1.0514
21.8800 14.5548 1.0525
21.9000 14.5681 1.0520
21.9200 14.5815 1.0536
21.9400 14.5948 1.0538
21.9600 14.6082 1.0551
21.9800 14.6215 1.0550
22.0000 14.6348 1.0568
22.0200 14.6481 1.0556
22.0400 14.6615 1.0578
22.0600 14.6748 1.0580
22.0800 14.6880 1.0578
22.1000 14.7014 1.0601
22.1200 14.7147 1.0588
22.1400 14.7281 1.0607
22.1600 14.7414 1.0604
22.1800 14.7547 1.0626
22.2000 14.7681 1.0614
22.2200 14.7815 1.0631
22.2400 14.7948 1.0627
22.2600 14.8081 1.0645
22.2800 14.8215 1.0632
22.3000 14.8348 1.0654
22.3200 14.8482 1.0638
22.3400 14.8615 1.0665
22.3600 14.8748 1.0668
22.3800 14.8881 1.0673
22.4000 14.9014 1.0689
22.4200 14.9147 1.0686
22.4400 14.9280 1.0700
22.4600 14.9414 1.0698
22.4800 14.9547 1.0717
22.5000 14.9681 1.0705
22.5200 14.9814 1.0733
22.5400 14.9947 1.0710
22.5600 15.0081 1.0744
22.5800 15.0215 1.0718
22.6000 15.0348 1.0767
22.6200 15.0481 1.0723
22.6400 15.0615 1.0774
22.6600 15.0748 1.0754
22.6800 15.0881 1.0781
22.7000 15.1014 1.0777
22.7200 15.1147 1.0793
22.7400 15.1281 1.0791
22.7600 15.1414 1.0806
22.7800 15.1547 1.0809
22.8000 15.1680 1.0815
22.8200 15.1814 1.0826
22.8400 15.1947 1.0828
22.8600 15.2081 1.0835
22.8800 15.2214 1.0840
22.9000 15.2347 1.0861
22.9200 15.2481 1.0841
22.9400 15.2615 1.0874
22.9600 15.2748 1.0861
22.9800 15.2881 1.0875
23.0000 15.3014 1.0875
23.0200 15.3148 1.0898
23.0400 15.3281 1.0885
23.0600 15.3414 1.0912
23.0800 15.3547 1.0910
23.1000 15.3681 1.0918
23.1200 15.3815 1.0926
23.1400 15.3948 1.0933
23.1600 15.4080 1.0947
23.1800 15.4213 1.0934
23.2000 15.4347 1.0973
23.2200 15.4480 1.0944
23.2400 15.4613 1.0987
23.2600 15.4747 1.0963
23.2800 15.4881 1.0986
23.3000 15.5015 1.0959
23.3200 15.5148 1.0992
23.3400 15.5282 1.0960
23.3600 15.5415 1.0999
23.3800 15.5549 1.0998
23.4000 15.5682 1.0998
23.4200 15.5815 1.1013
23.4400 15.5948 1.1018
23.4600 15.6081 1.1022
23.4800 15.6214 1.1021
23.5000 15.6347 1.1050
23.5200 15.6480 1.1027
23.5400 15.6613 1.1059
23.5600 15.6747 1.1047
23.5800 15.6881 1.1074
23.6000 15.7014 1.1059
23.6200 15.7147 1.1095
23.6400 15.7281 1.1068
23.6600 15.7415 1.1099
23.6800 15.7548 1.1098
23.7000 15.7682 1.1106
23.7200 15.7815 1.1109
23.7400 15.7948 1.1126
23.7600 15.8082 1.1118
23.7800 15.8215 1.1132
23.8000 15.8347 1.1140
23.8200 15.8481 1.1146
23.8400 15.8614 1.1144
23.8600 15.8748 1.1162
23.8800 15.8880 1.1160
23.9000 15.9014 1.1166
23.9200 15.9147 1.1185
23.9400 15.9281 1.1168
23.9600 15.9414 1.1195
23.9800 15.9547 1.1192
24.0000 15.9681 1.1204
24.0200 15.9815 1.1202
24.0400 15.9948 1.1214
24.0600 16.0081 1.1216
24.0800 16.0215 1.1225
24.1000 16.0348 1.1241
24.1200 16.0482 1.1236
24.1400 16.0615 1.1249
24.1600 16.0748 1.1256
24.1800 16.0881 1.1265
24.2000 16.1014 1.1254
24.2200 16.1147 1.1282
24.2400 16.1280 1.1251
24.2600 16.1413 1.1293
24.2800 16.1547 1.1275
24.3000 16.1681 1.1303
24.3200 16.1814 1.1293
24.3400 16.1947 1.1323
24.3600 16.2081 1.1306
24.3800 16.2215 1.1327
24.4000 16.2348 1.1331
24.4200 16.2481 1.1345
24.4400 16.2615 1.1340
24.4600 16.2748 1.1359
24.4800 16.2882 1.1356
24.5000 16.3015 1.1359
24.5200 16.3148 1.1388
24.5400 16.3281 1.1371
24.5600 16.3414 1.1391
24.5800 16.3548 1.1384
24.6000 16.3681 1.1408
24.6200 16.3814 1.1399
24.6400 16.3947 1.1427
24.6600 16.4081 1.1405
24.6800 16.4214 1.1431
24.7000 16.4347 1.1428
24.7200 16.4481 1.1455
24.7400 16.4615 1.1435
24.7600 16.4748 1.1468
24.7800 16.4881 1.1451
24.8000 16.5014 1.1474
24.8200 16.5147 1.1474
24.8400 16.5281 1.1480
24.8600 16.5415 1.1489
24.8800 16.5548 1.1491
24.9000 16.5681 1.1506
24.9200 16.5814 1.1492
24.9400 16.5948 1.1527
24.9600 16.6081 1.1504
24.9800 16.6214 1.1535
25.0000 16.6347 1.1524
25.0200 16.6481 1.1547
25.0400 16.6614 1.1530
25.0600 16.6747 1.1568
25.0800 16.6881 1.1547
25.1000 16.7015 1.1566
25.1200 16.7148 1.1549
25.1400 16.7281 1.1542
25.1600 16.7414 1.1554
25.1800 16.7548 1.1553
25.2000 16.7681 1.1579
25.2200 16.7814 1.1563
25.2400 16.7947 1.1612
25.2600 16.8081 1.1580
25.2800 16.8214 1.1619
25.3000 16.8348 1.1598
25.3200 16.8480 1.1634
25.3400 16.8613 1.1617
25.3600 16.8747 1.1652
25.3800 16.8880 1.1627
25.4000 16.9014 1.1649
25.4200 16.9147 1.1659
25.4400 16.9281 1.1664
25.4600 16.9415 1.1669
25.4800 16.9548 1.1676
25.5000 16.9682 1.1691
25.5200 16.9815 1.1684
25.5400 16.9948 1.1716
25.5600 17.0082 1.1696
25.5800 17.0215 1.1720
25.6000 17.0347 1.1720
25.6200 17.0480 1.1740
25.6400 17.0614 1.1724
25.6600 17.0747 1.1756
25.6800 17.0880 1.1741
25.7000 17.1013 1.1768
25.7200 17.1147 1.1758
25.7400 17.1281 1.1783
25.7600 17.1414 1.1763
25.7800 17.1548 1.1799
25.8000 17.1681 1.1782
25.8200 17.1815 1.1769
25.8400 17.1948 1.1772
25.8600 17.2081 1.1786
25.8800 17.2215 1.1791
25.9000 17.2348 1.1803
25.9200 17.2482 1.1811
25.9400 17.2615 1.1815
25.9600 17.2747 1.1841
25.9800 17.2880 1.1833
26.0000 17.3014 1.1849
26.0200 17.3148 1.1843
26.0400 17.3281 1.1871
26.0600 17.3414 1.1853
26.0800 17.3547 1.1888
26.1000 17.3681 1.1873
26.1200 17.3814 1.1893
26.1400 17.3947 1.1901
26.1600 17.4081 1.1901
26.1800 17.4215 1.1917
26.2000 17.4348 1.1911
26.2200 17.4481 1.1937
26.2400 17.4614 1.1919
26.2600 17.4748 1.1957
26.2800 17.4882 1.1931
26.3000 17.5015 1.1956
26.3200 17.5148 1.1949
26.3400 17.5281 1.1977
26.3600 17.5414 1.1961
26.3800 17.5548 1.1986
26.4000 17.5681 1.1979
26.4200 17.5814 1.1996
26.4400 17.5947 1.1997
26.4600 17.6081 1.2005
26.4800 17.6214 1.2008
26.5000 17.6348 1.2019
26.5200 17.6481 1.2031
26.5400 17.6615 1.2026
26.5600 17.6748 1.2048
26.5800 17.6881 1.2048
26.6000 17.7014 1.2058
26.6200 17.7148 1.2062
26.6400 17.7281 1.2079
26.6600 17.7414 1.2071
26.6800 17.7547 1.2095
26.7000 17.7681 1.2087
26.7200 17.7814 1.2112
26.7400 17.7948 1.2094
26.7600 17.8081 1.2124
26.7800 17.8214 1.2116
26.8000 17.8347 1.2139
26.8200 17.8481 1.2113
26.8400 17.8614 1.2119
26.8600 17.8747 1.2125
26.8800 17.8881 1.2141
26.9000 17.9014 1.2147
26.9200 17.9148 1.2154
26.9400 17.9281 1.2170
26.9600 17.9414 1.2155
26.9800 17.9548 1.2198
27.0000 17.9682 1.2164
27.0200 17.9815 1.2213
27.0400 17.9948 1.2185
27.0600 18.0081 1.2233
27.0800 18.0214 1.2197
27.1000 18.0348 1.2232
27.1200 18.0481 1.2226
27.1400 18.0614 1.2234
27.1600 18.0747 1.2248
27.1800 18.0880 1.2250
27.2000 18.1013 1.2265
27.2200 18.1147 1.2263
27.2400 18.1281 1.2287
27.2600 18.1415 1.2272
27.2800 18.1549 1.2301
27.3000 18.1682 1.2288
27.3200 18.1815 1.2317
27.3400 18.1948 1.2303
27.3600 18.2082 1.2333
27.3800 18.2215 1.2311
27.4000 18.2348 1.2351
27.4200 18.2481 1.2341
27.4400 18.2614 1.2354
27.4600 18.2748 1.2350
27.4800 18.2881 1.2371
27.5000 18.3013 1.2367
27.5200 18.3147 1.2384
27.5400 18.3280 1.2382
27.5600 18.3414 1.2392
27.5800 18.3547 1.2404
27.6000 18.3681 1.2407
27.6200 18.3814 1.2421
27.6400 18.3948 1.2413
27.6600 18.4081 1.2446
27.6800 18.4215 1.2417
27.7000 18.4348 1.2466
27.7200 18.4481 1.2435
27.7400 18.4615 1.2477
27.7600 18.4748 1.2450
27.7800 18.4881 1.2501
27.8000 18.5014 1.2461
27.8200 18.5148 1.2496
27.8400 18.5281 1.2485
27.8600 18.5414 1.2506
27.8800 18.5547 1.2501
27.9000 18.5681 1.2517
27.9200 18.5814 1.2508
27.9400 18.5948 1.2501
27.9600 18.6081 1.2526
27.9800 18.6214 1.2506
28.0000 18.6348 1.2546
28.0200 18.6481 1.2526
28.0400 18.6614 1.2565
28.0600 18.6748 1.2540
28.0800 18.6881 1.2582
28.1000 18.7015 1.2562
28.1200 18.7148 1.2593
28.1400 18.7281 1.2590
28.1600 18.7414 1.2601
28.1800 18.7548 1.2606
28.2000 18.7681 1.2616
28.2200 18.7814 1.2626
28.2400 18.7947 1.2625
28.2600 18.8080 1.2652
28.2800 18.8214 1.2633
28.3000 18.8347 1.2665
28.3200 18.8480 1.2648
28.3400 18.8614 1.2684
28.3600 18.8748 1.2660
28.3800 18.8881 1.2696
28.4000 18.9014 1.2678
28.4200 18.9148 1.2708
28.4400 18.9282 1.2701
28.4600 18.9415 1.2719
28.4800 18.9548 1.2711
28.5000 18.9681 1.2735
28.5200 18.9814 1.2730
28.5400 18.9948 1.2732
28.5600 19.0081 1.2748
28.5800 19.0214 1.2752
28.6000 19.0347 1.2764
28.6200 19.0480 1.2764
28.6400 19.0614 1.2784
28.6600 19.0747 1.2776
28.6800 19.0881 1.2803
28.7000 19.1014 1.2789
28.7200 19.1148 1.2819
28.7400 19.1281 1.2804
28.7600 19.1414 1.2837
28.7800 19.1548 1.2814
28.8000 19.1681 1.2851
28.8200 19.1815 1.2838
28.8400 19.1948 1.2860
28.8600 19.2081 1.2846
28.8800 19.2214 1.2861
28.9000 19.2348 1.2855
28.9200 19.2481 1.2868
28.9400 19.2614 1.2884
28.9600 19.2747 1.2879
28.9800 19.2881 1.2917
29.0000 19.3014 1.2887
29.0200 19.3147 1.2928
29.0400 19.3281 1.2908
29.0600 19.3414 1.2912
29.0800 19.3548 1.2894
29.1000 19.3681 1.2908
29.1200 19.3815 1.2925
29.1400 19.3948 1.2930
29.1600 19.4081 1.2941
29.1800 19.4215 1.2951
29.2000 19.4348 1.2961
29.2200 19.4481 1.2969
29.2400 19.4614 1.2984
29.2600 19.4748 1.2988
29.2800 19.4881 1.3000
29.3000 19.5014 1.3002
29.3200 19.5147 1.3017
29.3400 19.5280 1.3019
29.3600 19.5414 1.3033
29.3800 19.5547 1.3022
29.4000 19.5681 1.3052
29.4200 19.5814 1.3041
29.4400 19.5948 1.3069
29.4600 19.6082 1.3053
29.4800 19.6215 1.3092
29.5000 19.6348 1.3066
29.5200 19.6481 1.3108
29.5400 19.6615 1.3085
29.5600 19.6748 1.3113
29.5800 19.6881 1.3115
29.6000 19.7014 1.3122
29.6200 19.7147 1.3139
29.6400 19.7280 1.3130
29.6600 19.7414 1.3164
29.6800 19.7547 1.3137
29.7000 19.7680 1.3176
29.7200 19.7814 1.3154
29.7400 19.7947 1.3192
29.7600 19.8080 1.3156
29.7800 19.8214 1.3189
29.8000 19.8348 1.3137
29.8200 19.8482 1.3180
29.8400 19.8615 1.3160
29.8600 19.8748 1.3202
29.8800 19.8881 1.3190
29.9000 19.9015 1.3217
29.9200 19.9148 1.3210
29.9400 19.9281 1.3239
29.9600 19.9414 1.3237
29.9800 19.9547 1.3247
30.0000 19.9681 1.3256
30.0200 19.9814 1.3265
30.0400 19.9947 1.3272
30.0600 20.0080 1.3285
30.0800 20.0214 1.3298
30.1000 20.0347 1.3287
30.1200 20.0481 1.3322
30.1400 20.0614 1.3307
30.1600 20.0748 1.3335
30.1800 20.0881 1.3327
30.2000 20.1014 1.3356
30.2200 20.1147 1.3335
30.2400 20.1281 1.3369
30.2600 20.1415 1.3359
30.2800 20.1548 1.3376
30.3000 20.1681 1.3380
30.3200 20.1814 1.3396
30.3400 20.1948 1.3398
30.3600 20.2082 1.3404
30.3800 20.2214 1.3417
30.4000 20.2347 1.3415
30.4200 20.2480 1.3443
30.4400 20.2614 1.3426
30.4600 20.2747 1.3459
30.4800 20.2880 1.3436
30.5000 20.3014 1.3488
30.5200 20.3148 1.3451
30.5400 20.3282 1.3499
30.5600 20.3415 1.3475
30.5800 20.3548 1.3502
30.6000 20.3682 1.3489
30.6200 20.3815 1.3516
30.6400 20.3948 1.3509
30.6600 20.4081 1.3524
30.6800 20.4214 1.3537
30.7000 20.4347 1.3533
30.7200 20.4481 1.3559
30.7400 20.4614 1.3546
30.7600 20.4747 1.3566
30.7800 20.4880 1.3548
30.8000 20.5014 1.3590
30.8200 20.5147 1.3563
30.8400 20.5281 1.3605
30.8600 20.5414 1.3586
30.8800 20.5548 1.3620
30.9000 20.5682 1.3608
30.9200 20.5815 1.3639
30.9400 20.5948 1.3618
30.9600 20.6081 1.3650
30.9800 20.6215 1.3645
31.0000 20.6348 1.3665
31.0200 20.6481 1.3655
31.0400 20.6614 1.3690
31.0600 20.6747 1.3675
31.0800 20.6881 1.3693
31.1000 20.7014 1.3707
31.1200 20.7147 1.3704
31.1400 20.7280 1.3718
31.1600 20.7414 1.3713
31.1800 20.7547 1.3729
31.2000 20.7681 1.3712
31.2200 20.7814 1.3733
31.2400 20.7948 1.3722
31.2600 20.8082 1.3748
31.2800 20.8215 1.3752
31.3000 20.8348 1.3762
31.3200 20.8481 1.3773
31.3400 20.8615 1.3790
31.3600 20.8748 1.3790
31.3800 20.8881 1.3795
31.4000 20.9014 1.3826
31.4200 20.9148 1.3805
31.4400 20.9281 1.3843
31.4600 20.9414 1.3818
31.4800 20.9547 1.3865
31.5000 20.9680 1.3838
31.5200 20.9814 1.3879
31.5400 20.9947 1.3856
31.5600 21.0081 1.3890
31.5800 21.0214 1.3877
31.6000 21.0348 1.3891
31.6200 21.0482 1.3875
31.6400 21.0615 1.3878
31.6600 21.0748 1.3882
31.6800 21.0881 1.3897
31.7000 21.1015 1.3908
31.7200 21.1148 1.3907
31.7400 21.1281 1.3933
31.7600 21.1414 1.3937
31.7800 21.1548 1.3950
31.8000 21.1681 1.3946
31.8200 21.1814 1.3977
31.8400 21.1947 1.3968
31.8600 21.2081 1.3986
31.8800 21.2214 1.3992
31.9000 21.2347 1.4009
31.9200 21.2480 1.4004
31.9400 21.2614 1.4032
31.9600 21.2748 1.4020
31.9800 21.2881 1.4050
32.0000 21.3015 1.4041
32.0200 21.3147 1.4060
32.0400 21.3281 1.4063
32.0600 21.3415 1.4075
32.0800 21.3548 1.4086
32.1000 21.3681 1.4089
32.1200 21.3814 1.4116
32.1400 21.3948 1.4106
32.1600 21.4081 1.4132
32.1800 21.4214 1.4124
32.2000 21.4347 1.4150
32.2200 21.4480 1.4136
32.2400 21.4614 1.4160
32.2600 21.4747 1.4155
32.2800 21.4881 1.4173
32.3000 21.5014 1.4182
32.3200 21.5147 1.4189
32.3400 21.5281 1.4197
32.3600 21.5414 1.4196
32.3800 21.5547 1.4223
32.4000 21.5681 1.4208
32.4200 21.5814 1.4250
32.4400 21.5948 1.4216
32.4600 21.6081 1.4263
32.4800 21.6214 1.4235
32.5000 21.6348 1.4287
32.5200 21.6481 1.4248
32.5400 21.6614 1.4299
32.5600 21.6747 1.4274
32.5800 21.6880 1.4305
32.6000 21.7014 1.4296
32.6200 21.7147 1.4324
32.6400 21.7280 1.4297
32.6600 21.7414 1.4315
32.6800 21.7548 1.4313
32.7000 21.7682 1.4313
32.7200 21.7815 1.4344
32.7400 21.7948 1.4339
32.7600 21.8082 1.4364
32.7800 21.8215 1.4366
32.8000 21.8349 1.4387
32.8200 21.8481 1.4376
32.8400 21.8614 1.4415
32.8600 21.8747 1.4402
32.8800 21.8881 1.4425
32.9000 21.9014 1.4426
32.9200 21.9147 1.4450
32.9400 21.9280 1.4436
32.9600 21.9414 1.4457
32.9800 21.9548 1.4458
33.0000 21.9681 1.4471
33.0200 21.9814 1.4482
33.0400 21.9948 1.4477
33.0600 22.0082 1.4488
33.0800 22.0215 1.4484
33.1000 22.0348 1.4522
33.1200 22.0481 1.4504
33.1400 22.0615 1.4547
33.1600 22.0748 1.4524
33.1800 22.0881 1.4556
33.2000 22.1014 1.4551
33.2200 22.1147 1.4585
33.2400 22.1281 1.4564
33.2600 22.1414 1.4600
33.2800 22.1547 1.4593
33.3000 22.1680 1.4609
33.3200 22.1814 1.4614
33.3400 22.1947 1.4626
33.3600 22.2081 1.4640
33.3800 22.2214 1.4636
33.4000 22.2348 1.4666
33.4200 22.2481 1.4628
33.4400 22.2615 1.4671
33.4600 22.2748 1.4644
33.4800 22.2881 1.4695
33.5000 22.3015 1.4663
33.5200 22.3148 1.4707
33.5400 22.3281 1.4691
33.5600 22.3414 1.4729
33.5800 22.3547 1.4720
33.6000 22.3681 1.4747
33.6200 22.3814 1.4732
33.6400 22.3947 1.4766
33.6600 22.4080 1.4753
33.6800 22.4214 1.4776
33.7000 22.4347 1.4783
33.7200 22.4481 1.4788
33.7400 22.4614 1.4802
33.7600 22.4748 1.4806
33.7800 22.4881 1.4817
33.8000 22.5015 1.4825
33.8200 22.5148 1.4840
33.8400 22.5281 1.4844
33.8600 22.5415 1.4861
33.8800 22.5548 1.4857
33.9000 22.5681 1.4880
33.9200 22.5814 1.4875
33.9400 22.5947 1.4911
33.9600 22.6081 1.4891
33.9800 22.6214 1.4917
34.0000 22.6347 1.4919
34.0200 22.6480 1.4929
34.0400 22.6614 1.4934
34.0600 22.6747 1.4937
34.0800 22.6881 1.4955
34.1000 22.7014 1.4945
34.1200 22.7148 1.4940
34.1400 22.7281 1.4920
34.1600 22.7415 1.4944
34.1800 22.7548 1.4952
34.2000 22.7681 1.4974
34.2200 22.7814 1.4966
34.2400 22.7948 1.5018
34.2600 22.8082 1.4990
34.2800 22.8215 1.5030
34.3000 22.8348 1.5020
34.3200 22.8481 1.5049
34.3400 22.8614 1.5044
34.3600 22.8747 1.5064
34.3800 22.8881 1.5077
34.4000 22.9014 1.5086
34.4200 22.9147 1.5099
34.4400 22.9280 1.5100
34.4600 22.9414 1.5120
34.4800 22.9547 1.5129
34.5000 22.9681 1.5141
34.5200 22.9815 1.5130
34.5400 22.9948 1.5177
34.5600 23.0081 1.5154
34.5800 23.0215 1.5189
34.6000 23.0349 1.5184
34.6200 23.0482 1.5208
34.6400 23.0614 1.5199
34.6600 23.0747 1.5229
34.6800 23.0881 1.5188
34.7000 23.1014 1.5186
34.7200 23.1147 1.5188
34.7400 23.1280 1.5210
34.7600 23.1413 1.5213
34.7800 23.1547 1.5239
34.8000 23.1680 1.5241
34.8200 23.1814 1.5264
34.8400 23.1947 1.5277
34.8600 23.2081 1.5286
34.8800 23.2215 1.5297
34.9000 23.2348 1.5308
34.9200 23.2481 1.5323
34.9400 23.2614 1.5328
34.9600 23.2748 1.5350
34.9800 23.2881 1.5349
35.0000 23.3014 1.5367
35.0200 23.3147 1.5371
35.0400 23.3281 1.5390
35.0600 23.3414 1.5377
35.0800 23.3547 1.5393
35.1000 23.3680 1.5386
35.1200 23.3814 1.5394
35.1400 23.3947 1.5419
35.1600 23.4081 1.5416
35.1800 23.4214 1.5447
35.2000 23.4348 1.5443
35.2200 23.4481 1.5472
35.2400 23.4615 1.5455
35.2600 23.4748 1.5507
35.2800 23.4881 1.5480
35.3000 23.5014 1.5516
35.3200 23.5148 1.5512
35.3400 23.5281 1.5537
35.3600 23.5415 1.5530
35.3800 23.5548 1.5561
35.4000 23.5681 1.5562
35.4200 23.5815 1.5571
35.4400 23.5948 1.5596
35.4600 23.6081 1.5589
35.4800 23.6214 1.5608
35.5000 23.6347 1.5619
35.5200 23.6481 1.5630
35.5400 23.6614 1.5633
35.5600 23.6747 1.5659
35.5800 23.6881 1.5649
35.6000 23.7015 1.5672
35.6200 23.7148 1.5681
35.6400 23.7281 1.5697
35.6600 23.7415 1.5693
35.6800 23.7548 1.5723
35.7000 23.7682 1.5717
35.7200 23.7815 1.5734
35.7400 23.7948 1.5739
35.7600 23.8081 1.5749
35.7800 23.8215 1.5738
35.8000 23.8348 1.5778
35.8200 23.8480 1.5769
35.8400 23.8614 1.5790
35.8600 23.8747 1.5806
35.8800 23.8880 1.5808
35.9000 23.9014 1.5825
35.9200 23.9147 1.5834
35.9400 23.9281 1.5853
35.9600 23.9415 1.5849
35.9800 23.9548 1.5879
36.0000 23.9681 1.5877
36.0200 23.9814 1.5900
36.0400 23.9948 1.5905
36.0600 24.0081 1.5920
36.0800 24.0214 1.5929
36.1000 24.0348 1.5946
36.1200 24.0481 1.5956
36.1400 24.0614 1.5953
36.1600 24.0748 1.5991
36.1800 24.0880 1.5971
36.2000 24.1014 1.6010
36.2200 24.1147 1.5998
36.2400 24.1281 1.6040
36.2600 24.1414 1.6017
36.2800 24.1547 1.6063
36.3000 24.1681 1.6046
36.3200 24.1815 1.6076
36.3400 24.1948 1.6074
36.3600 24.2081 1.6091
36.3800 24.2214 1.6044
36.4000 24.2348 1.6053
36.4200 24.2482 1.6040
36.4400 24.2615 1.6051
36.4600 24.2748 1.6062
36.4800 24.2881 1.6076
36.5000 24.3014 1.6088
36.5200 24.3147 1.6104
36.5400 24.3280 1.6141
36.5600 24.3413 1.6127
36.5800 24.3547 1.6166
36.6000 24.3681 1.6160
36.6200 24.3814 1.6189
36.6400 24.3947 1.6195
36.6600 24.4081 1.6217
36.6800 24.4215 1.6209
36.7000 24.4348 1.6246
36.7200 24.4481 1.6235
36.7400 24.4615 1.6273
36.7600 24.4748 1.6272
36.7800 24.4882 1.6292
36.8000 24.5015 1.6291
36.8200 24.5147 1.6312
36.8400 24.5280 1.6327
36.8600 24.5414 1.6329
36.8800 24.5547 1.6362
36.9000 24.5680 1.6344
36.9200 24.5814 1.6384
36.9400 24.5947 1.6370
36.9600 24.6081 1.6408
36.9800 24.6214 1.6387
37.0000 24.6348 1.6435
37.0200 24.6481 1.6418
37.0400 24.6615 1.6442
37.0600 24.6748 1.6447
37.0800 24.6881 1.6474
37.1000 24.7015 1.6478
37.1200 24.7148 1.6488
37.1400 24.7282 1.6518
37.1600 24.7415 1.6505
37.1800 24.7547 1.6550
37.2000 24.7680 1.6532
37.2200 24.7814 1.6566
37.2400 24.7947 1.6556
37.2600 24.8080 1.6597
37.2800 24.8214 1.6575
37.3000 24.8347 1.6621
37.3200 24.8481 1.6608
37.3400 24.8614 1.6639
37.3600 24.8747 1.6611
37.3800 24.8881 1.6628
37.4000 24.9015 1.6607
37.4200 24.9148 1.6632
37.4400 24.9281 1.6652
37.4600 24.9414 1.6665
37.4800 24.9548 1.6686
37.5000 24.9682 1.6697
37.5200 24.9815 1.6702
37.5400 24.9948 1.6726
37.5600 25.0081 1.6746
37.5800 25.0215 1.6744
37.6000 25.0348 1.6769
37.6200 25.0481 1.6775
37.6400 25.0614 1.6793
37.6600 25.0747 1.6803
37.6800 25.0880 1.6833
37.7000 25.1014 1.6822
37.7200 25.1147 1.6856
37.7400 25.1281 1.6851
37.7600 25.1415 1.6871
37.7800 25.1548 1.6888
37.8000 25.1682 1.6899
37.8200 25.1815 1.6902
37.8400 25.1948 1.6906
37.8600 25.2082 1.6938
37.8800 25.2215 1.6933
37.9000 25.2348 1.6969
37.9200 25.2481 1.6963
37.9400 25.2614 1.6992
37.9600 25.2747 1.6979
37.9800 25.2880 1.7031
38.0000 25.3013 1.7008
38.0200 25.3147 1.7051
38.0400 25.3280 1.7047
38.0600 25.3414 1.7066
38.0800 25.3547 1.7064
38.1000 25.3681 1.7052
38.1200 25.3815 1.7055
38.1400 25.3948 1.7060
38.1600 25.4082 1.7103
38.1800 25.4215 1.7090
38.2000 25.4348 1.7129
38.2200 25.4482 1.7127
38.2400 25.4615 1.7164
38.2600 25.4747 1.7161
38.2800 25.4881 1.7182
38.3000 25.5014 1.7160
38.3200 25.5147 1.7177
38.3400 25.5280 1.7181
38.3600 25.5414 1.7214
38.3800 25.5547 1.7206
38.4000 25.5681 1.7245
38.4200 25.5814 1.7238
38.4400 25.5947 1.7270
38.4600 25.6081 1.7285
38.4800 25.6215 1.7291
38.5000 25.6348 1.7307
38.5200 25.6482 1.7329
38.5400 25.6615 1.7333
38.5600 25.6748 1.7355
38.5800 25.6882 1.7373
38.6000 25.7015 1.7374
38.6200 25.7148 1.7401
38.6400 25.7281 1.7406
38.6600 25.7414 1.7431
38.6800 25.7547 1.7423
38.7000 25.7680 1.7479
38.7200 25.7813 1.7447
38.7400 25.7947 1.7497
38.7600 25.8081 1.7480
38.7800 25.8214 1.7510
38.8000 25.8347 1.7500
38.8200 25.8481 1.7511
38.8400 25.8615 1.7500
38.8600 25.8748 1.7521
38.8800 25.8881 1.7547
38.9000 25.9015 1.7549
38.9200 25.9148 1.7587
38.9400 25.9281 1.7583
38.9600 25.9415 1.7623
38.9800 25.9548 1.7600
39.0000 25.9681 1.7661
39.0200 25.9814 1.7631
39.0400 25.9948 1.7686
39.0600 26.0081 1.7667
39.0800 26.0214 1.7709
39.1000 26.0347 1.7703
39.1200 26.0481 1.7743
39.1400 26.0614 1.7734
39.1600 26.0747 1.7761
39.1800 26.0881 1.7774
39.2000 26.1015 1.7786
39.2200 26.1148 1.7800
39.2400 26.1281 1.7816
39.2600 26.1414 1.7831
39.2800 26.1548 1.7820
39.3000 26.1681 1.7855
39.3200 26.1815 1.7827
39.3400 26.1948 1.7867
39.3600 26.2081 1.7841
39.3800 26.2214 1.7865
39.4000 26.2348 1.7860
39.4200 26.2481 1.7909
39.4400 26.2614 1.7906
39.4600 26.2747 1.7933
39.4800 26.2881 1.7949
39.5000 26.3014 1.7974
39.5200 26.3147 1.7979
39.5400 26.3281 1.8010
39.5600 26.3414 1.8014
39.5800 26.3548 1.8025
39.6000 26.3681 1.8059
39.6200 26.3814 1.8055
39.6400 26.3948 1.8089
39.6600 26.4081 1.8088
39.6800 26.4215 1.8125
39.7000 26.4348 1.8114
39.7200 26.4481 1.8164
39.7400 26.4614 1.8143
39.7600 26.4748 1.8173
39.7800 26.4881 1.8164
39.8000 26.5014 1.8193
39.8200 26.5147 1.8182
39.8400 26.5280 1.8219
39.8600 26.5414 1.8232
39.8800 26.5547 1.8239
39.9000 26.5681 1.8284
39.9200 26.5814 1.8264
39.9400 26.5948 1.8314
39.9600 26.6082 1.8298
39.9800 26.6215 1.8355
40.0000 26.6348 1.8325
40.0200 26.6482 1.8389
40.0400 26.6615 1.8364
40.0600 26.6747 1.8408
40.0800 26.6880 1.8411
40.1000 26.7014 1.8442
40.1200 26.7147 1.8434
40.1400 26.7280 1.8470
40.1600 26.7414 1.8482
40.1800 26.7547 1.8490
40.2000 26.7681 1.8518
40.2200 26.7814 1.8522
40.2400 26.7948 1.8550
40.2600 26.8081 1.8556
40.2800 26.8215 1.8586
40.3000 26.8348 1.8562
40.3200 26.8481 1.8589
40.3400 26.8614 1.8562
40.3600 26.8748 1.8606
40.3800 26.8881 1.8596
40.4000 26.9015 1.8645
40.4200 26.9147 1.8638
40.4400 26.9281 1.8687
40.4600 26.9414 1.8689
40.4800 26.9548 1.8709
40.5000 26.9681 1.8730
40.5200 26.9814 1.8746
40.5400 26.9947 1.8758
40.5600 27.0081 1.8776
40.5800 27.0214 1.8774
40.6000 27.0347 1.8736
40.6200 27.0481 1.8799
40.6400 27.0614 1.8772
40.6600 27.0748 1.8835
40.6800 27.0882 1.8823
40.7000 27.1015 1.8886
40.7200 27.1148 1.8857
40.7400 27.1282 1.8921
40.7600 27.1415 1.8912
40.7800 27.1548 1.8943
40.8000 27.1681 1.8956
40.8200 27.1814 1.8979
40.8400 27.1948 1.8987
40.8600 27.2081 1.9010
40.8800 27.2214 1.9051
40.9000 27.2347 1.9024
40.9200 27.2480 1.9096
40.9400 27.2614 1.9065
40.9600 27.2747 1.9131
40.9800 27.2881 1.9105
41.0000 27.3014 1.9170
41.0200 27.3148 1.9141
41.0400 27.3281 1.9203
41.0600 27.3414 1.9192
41.0800 27.3548 1.9234
41.1000 27.3681 1.9230
41.1200 27.3815 1.9249
41.1400 27.3948 1.9233
41.1600 27.4081 1.9267
41.1800 27.4214 1.9278
41.2000 27.4348 1.9291
41.2200 27.4481 1.9330
41.2400 27.4614 1.9333
41.2600 27.4747 1.9373
41.2800 27.4881 1.9370
41.3000 27.5014 1.9417
41.3200 27.5147 1.9402
41.3400 27.5281 1.9459
41.3600 27.5414 1.9458
41.3800 27.5548 1.9487
41.4000 27.5681 1.9494
41.4200 27.5814 1.9536
41.4400 27.5948 1.9524
41.4600 27.6082 1.9585
41.4800 27.6215 1.9571
41.5000 27.6348 1.9607
41.5200 27.6481 1.9595
41.5400 27.6614 1.9617
41.5600 27.6748 1.9633
41.5800 27.6881 1.9654
41.6000 27.7014 1.9692
41.6200 27.7147 1.9681
41.6400 27.7280 1.9739
41.6600 27.7414 1.9729
41.6800 27.7547 1.9770
41.7000 27.7680 1.9735
41.7200 27.7814 1.9775
41.7400 27.7948 1.9740
41.7600 27.8082 1.9814
41.7800 27.8214 1.9809
41.8000 27.8348 1.9863
41.8200 27.8481 1.9867
41.8400 27.8615 1.9899
41.8600 27.8748 1.9912
41.8800 27.8881 1.9937
41.9000 27.9014 1.9971
41.9200 27.9148 1.9964
41.9400 27.9281 2.0014
41.9600 27.9414 2.0024
41.9800 27.9547 2.0060
42.0000 27.9680 2.0073
42.0200 27.9814 2.0106
42.0400 27.9947 2.0114
42.0600 28.0080 2.0155
42.0800 28.0214 2.0159
42.1000 28.0348 2.0173
42.1200 28.0482 2.0159
42.1400 28.0615 2.0179
42.1600 28.0748 2.0180
42.1800 28.0882 2.0225
42.2000 28.1015 2.0245
42.2200 28.1148 2.0280
42.2400 28.1281 2.0294
42.2600 28.1414 2.0337
42.2800 28.1547 2.0343
42.3000 28.1681 2.0380
42.3200 28.1814 2.0403
42.3400 28.1947 2.0423
42.3600 28.2080 2.0456
42.3800 28.2214 2.0474
42.4000 28.2348 2.0507
42.4200 28.2481 2.0511
42.4400 28.2615 2.0562
42.4600 28.2749 2.0545
42.4800 28.2882 2.0604
42.5000 28.3014 2.0608
42.5200 28.3147 2.0648
42.5400 28.3281 2.0646
42.5600 28.3415 2.0673
42.5800 28.3548 2.0674
42.6000 28.3681 2.0699
42.6200 28.3815 2.0738
42.6400 28.3948 2.0745
42.6600 28.4081 2.0794
42.6800 28.4214 2.0809
42.7000 28.4347 2.0852
42.7200 28.4480 2.0845
42.7400 28.4614 2.0905
42.7600 28.4747 2.0901
42.7800 28.4880 2.0960
42.8000 28.5014 2.0966
42.8200 28.5148 2.1013
42.8400 28.5281 2.1014
42.8600 28.5415 2.1071
42.8800 28.5548 2.1074
42.9000 28.5681 2.1112
42.9200 28.5815 2.1129
42.9400 28.5948 2.1152
42.9600 28.6081 2.1179
42.9800 28.6214 2.1225
43.0000 28.6348 2.1239
43.0200 28.6481 2.1273
43.0400 28.6614 2.1304
43.0600 28.6747 2.1264
43.0800 28.6880 2.1260
43.1000 28.7014 2.1273
43.1200 28.7147 2.1327
43.1400 28.7280 2.1346
43.1600 28.7414 2.1411
43.1800 28.7548 2.1401
43.2000 28.7681 2.1428
43.2200 28.7814 2.1422
43.2400 28.7948 2.1458
43.2600 28.8081 2.1477
43.2800 28.8215 2.1537
43.3000 28.8348 2.1553
43.3200 28.8481 2.1602
43.3400 28.8614 2.1635
43.3600 28.8748 2.1664
43.3800 28.8881 2.1707
43.4000 28.9014 2.1732
43.4200 28.9147 2.1780
43.4400 28.9280 2.1790
43.4600 28.9414 2.1854
43.4800 28.9547 2.1851
43.5000 28.9681 2.1908
43.5200 28.9814 2.1929
43.5400 28.9948 2.1971
43.5600 29.0081 2.1999
43.5800 29.0215 2.2040
43.6000 29.0348 2.2063
43.6200 29.0481 2.2105
43.6400 29.0615 2.2128
43.6600 29.0748 2.2131
43.6800 29.0881 2.2152
43.7000 29.1014 2.2172
43.7200 29.1148 2.2222
43.7400 29.1281 2.2243
43.7600 29.1414 2.2311
43.7800 29.1547 2.2324
43.8000 29.1680 2.2382
43.8200 29.1814 2.2408
43.8400 29.1947 2.2453
43.8600 29.2081 2.2479
43.8800 29.2214 2.2532
43.9000 29.2348 2.2515
43.9200 29.2482 2.2510
43.9400 29.2615 2.2515
43.9600 29.2748 2.2587
43.9800 29.2881 2.2599
44.0000 29.3015 2.2684
44.0200 29.3148 2.2697
44.0400 29.3281 2.2762
44.0600 29.3414 2.2791
44.0800 29.3547 2.2827
44.1000 29.3681 2.2830
44.1200 29.3814 2.2868
44.1400 29.3947 2.2907
44.1600 29.4080 2.2941
44.1800 29.4214 2.3012
44.2000 29.4347 2.3021
44.2200 29.4481 2.3096
44.2400 29.4614 2.3110
44.2600 29.4748 2.3190
44.2800 29.4882 2.3184
44.3000 29.5015 2.3263
44.3200 29.5148 2.3274
44.3400 29.5281 2.3328
44.3600 29.5415 2.3373
44.3800 29.5548 2.3398
44.4000 29.5681 2.3448
44.4200 29.5814 2.3468
44.4400 29.5947 2.3499
44.4600 29.6081 2.3433
44.4800 29.6214 2.3479
44.5000 29.6347 2.3484
44.5200 29.6480 2.3562
44.5400 29.6614 2.3599
44.5600 29.6747 2.3668
44.5800 29.6881 2.3687
44.6000 29.7014 2.3762
44.6200 29.7148 2.3791
44.6400 29.7281 2.3839
44.6600 29.7414 2.3881
44.6800 29.7548 2.3938
44.7000 29.7681 2.3956
44.7200 29.7815 2.4016
44.7400 29.7948 2.4044
44.7600 29.8081 2.4084
44.7800 29.8214 2.4101
44.8000 29.8348 2.4117
44.8200 29.8482 2.4145
44.8400 29.8615 2.4190
44.8600 29.8747 2.4247
44.8800 29.8880 2.4262
44.9000 29.9014 2.4331
44.9200 29.9147 2.4331
44.9400 29.9280 2.4397
44.9600 29.9414 2.4404
44.9800 29.9548 2.4482
45.0000 29.9682 2.4467
45.0200 29.9815 2.4552
45.0400 29.9948 2.4542
45.0480 30.0000 2.4515
45.0490 30.0007 2.4514
45.0500 30.0013 2.4513
45.0700 30.0118 2.4435
45.0900 30.0141 2.4258
45.1100 30.0059 2.4313
45.1300 29.9931 2.4240
45.1500 29.9803 2.4125
45.1700 29.9674 2.3963
45.1900 29.9539 2.3846
45.2100 29.9399 2.3730
45.2300 29.9258 2.3612
45.2500 29.9119 2.3510
45.2700 29.8984 2.3394
45.2900 29.8852 2.3278
45.3100 29.8719 2.3179
45.3300 29.8585 2.3094
45.3500 29.8452 2.2994
45.3700 29.8318 2.2900
45.3900 29.8185 2.2818
45.4100 29.8052 2.2722
45.4300 29.7918 2.2629
45.4500 29.7784 2.2563
45.4700 29.7651 2.2467
45.4900 29.7517 2.2383
45.5100 29.7384 2.2315
45.5300 29.7250 2.2226
45.5500 29.7117 2.2163
45.5700 29.6984 2.2085
45.5900 29.6850 2.2011
45.6100 29.6717 2.1933
45.6300 29.6584 2.1882
45.6500 29.6451 2.1784
45.6700 29.6317 2.1744
45.6900 29.6184 2.1662
45.7100 29.6050 2.1613
45.7300 29.5917 2.1519
45.7500 29.5785 2.1493
45.7700 29.5651 2.1394
45.7900 29.5518 2.1362
45.8100 29.5384 2.1278
45.8300 29.5251 2.1248
45.8500 29.5118 2.1159
45.8700 29.4984 2.1134
45.8900 29.4850 2.1056
45.9100 29.4717 2.1007
45.9300 29.4584 2.0959
45.9500 29.4451 2.0899
45.9700 29.4317 2.0850
45.9900 29.4184 2.0791
46.0100 29.4050 2.0756
46.0300 29.3917 2.0674
46.0500 29.3784 2.0664
46.0700 29.3651 2.0576
46.0900 29.3518 2.0558
46.1100 29.3385 2.0480
46.1300 29.3251 2.0463
46.1500 29.3118 2.0387
46.1700 29.2984 2.0368
46.1900 29.2851 2.0305
46.2100 29.2718 2.0255
46.2300 29.2584 2.0228
46.2500 29.2450 2.0171
46.2700 29.2317 2.0135
46.2900 29.2184 2.0080
46.3100 29.2050 2.0046
46.3300 29.1917 1.9987
46.3500 29.1783 1.9979
46.3700 29.1650 1.9905
46.3900 29.1517 1.9887
46.4100 29.1384 1.9833
46.4300 29.1250 1.9803
46.4500 29.1118 1.9750
46.4700 29.0985 1.9724
46.4900 29.0852 1.9677
46.5100 29.0718 1.9631
46.5300 29.0584 1.9597
46.5500 29.0450 1.9565
46.5700 29.0317 1.9516
46.5900 29.0183 1.9492
46.6100 29.0050 1.9447
46.6300 28.9916 1.9408
46.6500 28.9783 1.9384
46.6700 28.9650 1.9332
46.6900 28.9516 1.9313
46.7100 28.9383 1.9262
46.7300 28.9250 1.9250
46.7500 28.9117 1.9174
46.7700 28.8984 1.9196
46.7900 28.8850 1.9112
46.8100 28.8717 1.9110
46.8300 28.8584 1.9049
46.8500 28.8451 1.9048
46.8700 28.8318 1.8980
46.8900 28.8184 1.8985
46.9100 28.8051 1.8917
46.9300 28.7918 1.8905
46.9500 28.7784 1.8859
46.9700 28.7650 1.8842
46.9900 28.7516 1.8801
47.0100 28.7383 1.8772
47.0300 28.7250 1.8746
47.0500 28.7117 1.8690
47.0700 28.6983 1.8704
47.0900 28.6850 1.8633
47.1100 28.6718 1.8626
47.1300 28.6584 1.8581
47.1500 28.6451 1.8571
47.1700 28.6317 1.8517
47.1900 28.6184 1.8515
47.2100 28.6051 1.8456
47.2300 28.5918 1.8459
47.2500 28.5784 1.8397
47.2700 28.5651 1.8393
47.2900 28.5518 1.8351
47.3100 28.5384 1.8320
47.3300 28.5250 1.8316
47.3500 28.5117 1.8249
47.3700 28.4984 1.8260
47.3900 28.4850 1.8208
47.4100 28.4717 1.8189
47.4300 28.4583 1.8162
47.4500 28.4450 1.8146
47.4700 28.4317 1.8084
47.4900 28.4184 1.8106
47.5100 28.4050 1.8034
47.5300 28.3917 1.8043
47.5500 28.3784 1.8003
47.5700 28.3651 1.7979
47.5900 28.3518 1.7951
47.6100 28.3384 1.7927
47.6300 28.3251 1.7906
47.6500 28.3117 1.7871
47.6700 28.2984 1.7855
47.6900 28.2851 1.7812
47.7100 28.2717 1.7816
47.7300 28.2584 1.7751
47.7500 28.2450 1.7778
47.7700 28.2317 1.7695
47.7900 28.2183 1.7719
47.8100 28.2050 1.7664
47.8300 28.1917 1.7658
47.8500 28.1784 1.7621
47.8700 28.1650 1.7621
47.8900 28.1517 1.7564
47.9100 28.1384 1.7564
47.9300 28.1251 1.7535
47.9500 28.1117 1.7499
47.9700 28.0984 1.7498
47.9900 28.0851 1.7460
48.0100 28.0718 1.7437
48.0300 28.0584 1.7418
48.0500 28.0450 1.7396
48.0700 28.0317 1.7363
48.0900 28.0184 1.7358
48.1100 28.0051 1.7317
48.1300 27.9917 1.7317
48.1500 27.9783 1.7270
48.1700 27.9650 1.7271
48.1900 27.9517 1.7233
48.2100 27.9384 1.7215
48.2300 27.9250 1.7199
48.2500 27.9117 1.7179
48.2700 27.8984 1.7141
48.2900 27.8851 1.7141
48.3100 27.8717 1.7100
48.3300 27.8584 1.7084
48.3500 27.8450 1.7085
48.3700 27.8318 1.7022
48.3900 27.8184 1.7037
48.4100 27.8050 1.6997
48.4300 27.7917 1.6984
48.4500 27.7783 1.6958
48.4700 27.7650 1.6950
48.4900 27.7517 1.6905
48.5100 27.7383 1.6908
48.5300 27.7250 1.6876
48.5500 27.7117 1.6863
48.5700 27.6984 1.6835
48.5900 27.6851 1.6823
48.6100 27.6717 1.6803
48.6300 27.6584 1.6767
48.6500 27.6451 1.6774
48.6700 27.6318 1.6716
48.6900 27.6184 1.6731
48.7100 27.6051 1.6692
48.7300 27.5917 1.6685
48.7500 27.5784 1.6645
48.7700 27.5650 1.6659
48.7900 27.5516 1.6601
48.8100 27.5383 1.6617
48.8300 27.5250 1.6569
48.8500 27.5117 1.6578
48.8700 27.4983 1.6523
48.8900 27.4850 1.6541
48.9100 27.4717 1.6489
48.9300 27.4584 1.6491
48.9500 27.4451 1.6468
48.9700 27.4317 1.6442
48.9900 27.4184 1.6428
49.0100 27.4051 1.6409
49.0300 27.3918 1.6393
49.0500 27.3784 1.6370
49.0700 27.3650 1.6359
49.0900 27.3517 1.6330
49.1100 27.3384 1.6321
49.1300 27.3250 1.6291
49.1500 27.3117 1.6293
49.1700 27.2984 1.6246
49.1900 27.2850 1.6258
49.2100 27.2717 1.6211
49.2300 27.2583 1.6221
49.2500 27.2450 1.6188
49.2700 27.2317 1.6175
49.2900 27.2184 1.6149
49.3100 27.2051 1.6144
49.3300 27.1917 1.6121
49.3500 27.1784 1.6097
49.3700 27.1651 1.6094
49.3900 27.1517 1.6055
49.4100 27.1384 1.6064
49.4300 27.1250 1.6023
49.4500 27.1117 1.6033
49.4700 27.0984 1.5979
49.4900 27.0851 1.6004
49.5100 27.0717 1.5946
49.5300 27.0584 1.5965
49.5500 27.0451 1.5923
49.5700 27.0317 1.5923
49.5900 27.0184 1.5889
49.6100 27.0050 1.5894
49.6300 26.9917 1.5856
49.6500 26.9784 1.5853
49.6700 26.9650 1.5835
49.6900 26.9517 1.5815
49.7100 26.9384 1.5792
49.7300 26.9251 1.5784
49.7500 26.9118 1.5766
49.7700 26.8984 1.5742
49.7900 26.8851 1.5742
49.8100 26.8717 1.5699
49.8300 26.8584 1.5703
49.8500 26.8451 1.5668
49.8700 26.8317 1.5683
49.8900 26.8183 1.5628
49.9100 26.8050 1.5655
49.9300 26.7917 1.5599
49.9500 26.7783 1.5614
49.9700 26.7650 1.5577
49.9900 26.7517 1.5583
50.0100 26.7384 1.5540
50.0300 26.7250 1.5552
50.0500 26.7117 1.5520
50.0700 26.6984 1.5513
50.0900 26.6851 1.5500
50.1100 26.6718 1.5473
50.1300 26.6584 1.5464
50.1500 26.6451 1.5447
50.1700 26.6318 1.5441
50.1900 26.6185 1.5407
50.2100 26.6051 1.5404
50.2300 26.5917 1.5381
50.2500 26.5783 1.5366
50.2700 26.5650 1.5360
50.2900 26.5516 1.5336
50.3100 26.5383 1.5322
50.3300 26.5250 1.5314
50.3500 26.5117 1.5297
50.3700 26.4984 1.5269
50.3900 26.4851 1.5278
50.4100 26.4717 1.5242
50.4300 26.4584 1.5238
50.4500 26.4451 1.5209
50.4700 26.4318 1.5224
50.4900 26.4184 1.5162
50.5100 26.4051 1.5198
50.5300 26.3917 1.5140
50.5500 26.3784 1.5157
50.5700 26.3651 1.5118
50.5900 26.3517 1.5127
50.6100 26.3383 1.5086
50.6300 26.3250 1.5095
50.6500 26.3117 1.5058
50.6700 26.2983 1.5057
50.6900 26.2850 1.5044
50.7100 26.2717 1.5024
50.7300 26.2584 1.5006
50.7500 26.2450 1.4994
50.7700 26.2317 1.4992
50.7900 26.2184 1.4951
50.8100 26.2051 1.4968
50.8300 26.1918 1.4919
50.8500 26.1784 1.4938
50.8700 26.1650 1.4895
50.8900 26.1517 1.4905
50.9100 26.1384 1.4864
50.9300 26.1251 1.4875
50.9500 26.1117 1.4845
50.9700 26.0983 1.4837
50.9900 26.0851 1.4824
51.0100 26.0717 1.4810
51.0300 26.0584 1.4794
51.0500 26.0450 1.4779
51.0700 26.0317 1.4777
51.0900 26.0184 1.4736
51.1100 26.0050 1.4754
51.1300 25.9917 1.4711
51.1500 25.9784 1.4722
51.1700 25.9651 1.4690
51.1900 25.9517 1.4694
51.2100 25.9384 1.4662
51.2300 25.9250 1.4662
51.2500 25.9117 1.4645
51.2700 25.8984 1.4626
51.2900 25.8851 1.4619
51.3100 25.8717 1.4603
51.3300 25.8584 1.4584
51.3500 25.8450 1.4573
51.3700 25.8317 1.4561
51.3900 25.8184 1.4546
51.4100 25.8050 1.4545
51.4300 25.7917 1.4514
51.4500 25.7784 1.4511
51.4700 25.7651 1.4484
51.4900 25.7517 1.4500
51.5100 25.7384 1.4450
51.5300 25.7251 1.4474
51.5500 25.7118 1.4428
51.5700 25.6984 1.4436
51.5900 25.6851 1.4404
51.6100 25.6718 1.4418
51.6300 25.6584 1.4371
51.6500 25.6451 1.4391
51.6700 25.6317 1.4346
51.6900 25.6183 1.4360
51.7100 25.6050 1.4334
51.7300 25.5917 1.4324
51.7500 25.5784 1.4311
51.7700 25.5650 1.4290
51.7900 25.5516 1.4298
51.8100 25.5383 1.4255
51.8300 25.5250 1.4270
51.8500 25.5117 1.4233
51.8700 25.4984 1.4239
51.8900 25.4851 1.4207
51.9100 25.4718 1.4217
51.9300 25.4584 1.4182
51.9500 25.4451 1.4192
51.9700 25.4318 1.4162
51.9900 25.4185 1.4155
52.0100 25.4051 1.4141
52.0300 25.3917 1.4131
52.0500 25.3783 1.4119
52.0700 25.3650 1.4095
52.0900 25.3517 1.4100
52.1100 25.3383 1.4072
52.1300 25.3250 1.4081
52.1500 25.3117 1.4042
52.1700 25.2984 1.4050
52.1900 25.2850 1.4021
52.2100 25.2717 1.4031
52.2300 25.2584 1.4001
52.2500 25.2451 1.4003
52.2700 25.2318 1.3972
52.2900 25.2184 1.3972
52.3100 25.2051 1.3947
52.3300 25.1917 1.3960
52.3500 25.1784 1.3919
52.3700 25.1650 1.3922
52.3900 25.1517 1.3913
52.4100 25.1383 1.3891
52.4300 25.1250 1.3893
52.4500 25.1117 1.3862
52.4700 25.0983 1.3867
52.4900 25.0850 1.3828
52.5100 25.0717 1.3859
52.5300 25.0584 1.3798
52.5500 25.0450 1.3834
52.5700 25.0317 1.3778
52.5900 25.0184 1.3812
52.6100 25.0051 1.3754
52.6300 24.9918 1.3790
52.6500 24.9784 1.3734
52.6700 24.9650 1.3755
52.6900 24.9517 1.3728
52.7100 24.9384 1.3715
52.7300 24.9251 1.3717
52.7500 24.9117 1.3689
52.7700 24.8983 1.3693
52.7900 24.8850 1.3654
52.8100 24.8717 1.3676
52.8300 24.8584 1.3632
52.8500 24.8450 1.3652
52.8700 24.8317 1.3620
52.8900 24.8184 1.3622
52.9100 24.8051 1.3594
52.9300 24.7917 1.3594
52.9500 24.7784 1.3587
52.9700 24.7651 1.3566
52.9900 24.7518 1.3567
53.0100 24.7384 1.3534
53.0300 24.7251 1.3545
53.0500 24.7117 1.3519
53.0700 24.6984 1.3528
53.0900 24.6851 1.3485
53.1100 24.6717 1.3504
53.1300 24.6583 1.3462
53.1500 24.6450 1.3474
53.1700 24.6317 1.3450
53.1900 24.6184 1.3455
53.2100 24.6050 1.3421
53.2300 24.5917 1.3434
53.2500 24.5784 1.3400
53.2700 24.5650 1.3411
53.2900 24.5517 1.3386
53.3100 24.5384 1.3379
53.3300 24.5251 1.3366
53.3500 24.5118 1.3353
53.3700 24.4984 1.3350
53.3900 24.4851 1.3316
53.4100 24.4718 1.3346
53.4300 24.4585 1.3284
53.4500 24.4451 1.3320
53.4700 24.4317 1.3261
53.4900 24.4183 1.3301
53.5100 24.4050 1.3243
53.5300 24.3917 1.3274
53.5500 24.3783 1.3227
53.5700 24.3650 1.3247
53.5900 24.3516 1.3213
53.6100 24.3383 1.3221
53.6300 24.3250 1.3193
53.6500 24.3117 1.3198
53.6700 24.2984 1.3185
53.6900 24.2851 1.3156
53.7100 24.2718 1.3177
53.7300 24.2584 1.3130
53.7500 24.2451 1.3154
53.7700 24.2317 1.3112
53.7900 24.2184 1.3126
53.8100 24.2051 1.3088
53.8300 24.1917 1.3104
53.8500 24.1783 1.3077
53.8700 24.1650 1.3080
53.8900 24.1517 1.3057
53.9100 24.1383 1.3054
53.9300 24.1250 1.3035
53.9500 24.1116 1.3038
53.9700 24.0984 1.3024
53.9900 24.0850 1.3003
54.0100 24.0717 1.3013
54.0300 24.0584 1.2980
54.0500 24.0451 1.2992
54.0700 24.0318 1.2961
54.0900 24.0185 1.2975
54.1100 24.0051 1.2941
54.1300 23.9917 1.2944
54.1500 23.9784 1.2931
54.1700 23.9651 1.2919
54.1900 23.9517 1.2905
54.2100 23.9383 1.2905
54.2300 23.9250 1.2874
54.2500 23.9117 1.2889
54.2700 23.8983 1.2857
54.2900 23.8850 1.2866
54.3100 23.8717 1.2844
54.3300 23.8584 1.2845
54.3500 23.8451 1.2817
54.3700 23.8318 1.2820
54.3900 23.8184 1.2811
54.4100 23.8051 1.2792
54.4300 23.7918 1.2793
54.4500 23.7785 1.2765
54.4700 23.7651 1.2770
54.4900 23.7517 1.2746
54.5100 23.7384 1.2760
54.5300 23.7251 1.2718
54.5500 23.7117 1.2741
54.5700 23.6983 1.2698
54.5900 23.6850 1.2711
54.6100 23.6717 1.2679
54.6300 23.6584 1.2698
54.6500 23.6450 1.2661
54.6700 23.6317 1.2679
54.6900 23.6184 1.2647
54.7100 23.6050 1.2640
54.7300 23.5917 1.2635
54.7500 23.5783 1.2621
54.7700 23.5650 1.2616
54.7900 23.5518 1.2600
54.8100 23.5384 1.2595
54.8300 23.5251 1.2584
54.8500 23.5117 1.2573
54.8700 23.4984 1.2564
54.8900 23.4851 1.2554
54.9100 23.4717 1.2540
54.9300 23.4583 1.2549
54.9500 23.4450 1.2503
54.9700 23.4317 1.2529
54.9900 23.4183 1.2500
55.0100 23.4050 1.2492
55.0300 23.3917 1.2484
55.0500 23.3784 1.2472
55.0700 23.3651 1.2458
55.0900 23.3517 1.2466
55.1100 23.3384 1.2442
55.1300 23.3250 1.2441
55.1500 23.3117 1.2425
55.1700 23.2984 1.2415
55.1900 23.2851 1.2419
55.2100 23.2717 1.2384
55.2300 23.2584 1.2408
55.2500 23.2451 1.2357
55.2700 23.2317 1.2382
55.2900 23.2184 1.2351
55.3100 23.2050 1.2364
55.3300 23.1917 1.2321
55.3500 23.1784 1.2349
55.3700 23.1650 1.2306
55.3900 23.1517 1.2321
55.4100 23.1384 1.2296
55.4300 23.1251 1.2300
55.4500 23.1117 1.2278
55.4700 23.0984 1.2281
55.4900 23.0851 1.2261
55.5100 23.0718 1.2258
55.5300 23.0585 1.2259
55.5500 23.0451 1.2219
55.5700 23.0317 1.2243
55.5900 23.0184 1.2209
55.6100 23.0051 1.2213
55.6300 22.9917 1.2190
55.6500 22.9783 1.2204
55.6700 22.9650 1.2169
55.6900 22.9517 1.2181
55.7100 22.9384 1.2152
55.7300 22.9250 1.2161
55.7500 22.9117 1.2136
55.7700 22.8983 1.2141
55.7900 22.8850 1.2115
55.8100 22.8717 1.2124
55.8300 22.8584 1.2112
55.8500 22.8451 1.2092
55.8700 22.8318 1.2086
55.8900 22.8185 1.2075
55.9100 22.8051 1.2077
55.9300 22.7917 1.2050
55.9500 22.7784 1.2067
55.9700 22.7650 1.2022
55.9900 22.7517 1.2047
56.0100 22.7383 1.2015
56.0300 22.7250 1.2030
56.0500 22.7117 1.1991
56.0700 22.6984 1.2013
56.0900 22.6850 1.1972
56.1100 22.6717 1.1997
56.1300 22.6584 1.1967
56.1500 22.6450 1.1963
56.1700 22.6317 1.1955
56.1900 22.6184 1.1936
56.2100 22.6050 1.1946
56.2300 22.5917 1.1912
56.2500 22.5784 1.1933
56.2700 22.5651 1.1887
56.2900 22.5517 1.1921
56.3100 22.5384 1.1871
56.3300 22.5251 1.1904
56.3500 22.5117 1.1847
56.3700 22.4984 1.1884
56.3900 22.4850 1.1837
56.4100 22.4717 1.1854
56.4300 22.4584 1.1828
56.4500 22.4450 1.1829
56.4700 22.4317 1.1817
56.4900 22.4184 1.1803
56.5100 22.4051 1.1807
56.5300 22.3918 1.1778
56.5500 22.3784 1.1800
56.5700 22.3651 1.1755
56.5900 22.3517 1.1781
56.6100 22.3384 1.1745
56.6300 22.3251 1.1758
56.6500 22.3117 1.1724
56.6700 22.2984 1.1748
56.6900 22.2851 1.1707
56.7100 22.2717 1.1721
56.7300 22.2584 1.1696
56.7500 22.2450 1.1707
56.7700 22.2317 1.1680
56.7900 22.2184 1.1680
56.8100 22.2051 1.1667
56.8300 22.1917 1.1657
56.8500 22.1784 1.1658
56.8700 22.1651 1.1637
56.8900 22.1517 1.1638
56.9100 22.1384 1.1625
56.9300 22.1250 1.1630
56.9500 22.1117 1.1594
56.9700 22.0984 1.1613
56.9900 22.0851 1.1582
57.0100 22.0717 1.1594
57.0300 22.0584 1.1564
57.0500 22.0451 1.1584
57.0700 22.0317 1.1539
57.0900 22.0184 1.1564
57.1100 22.0050 1.1530
57.1300 21.9917 1.1538
57.1500 21.9784 1.1522
57.1700 21.9650 1.1510
57.1900 21.9517 1.1504
57.2100 21.9383 1.1496
57.2300 21.9250 1.1501
57.2500 21.9117 1.1461
57.2700 21.8984 1.1491
57.2900 21.8850 1.1447
57.3100 21.8717 1.1469
57.3300 21.8584 1.1431
57.3500 21.8451 1.1464
57.3700 21.8317 1.1415
57.3900 21.8184 1.1437
57.4100 21.8051 1.1403
57.4300 21.7917 1.1409
57.4500 21.7784 1.1406
57.4700 21.7650 1.1387
57.4900 21.7517 1.1390
57.5100 21.7383 1.1364
57.5300 21.7250 1.1379
57.5500 21.7116 1.1341
57.5700 21.6983 1.1369
57.5900 21.6850 1.1324
57.6100 21.6717 1.1341
57.6300 21.6584 1.1308
57.6500 21.6450 1.1334
57.6700 21.6318 1.1288
57.6900 21.6185 1.1311
57.7100 21.6051 1.1274
57.7300 21.5917 1.1293
57.7500 21.5784 1.1264
57.7700 21.5650 1.1275
57.7900 21.5517 1.1248
57.8100 21.5384 1.1251
57.8300 21.5250 1.1238
57.8500 21.5117 1.1228
57.8700 21.4984 1.1225
57.8900 21.4850 1.1214
57.9100 21.4717 1.1204
57.9300 21.4583 1.1197
57.9500 21.4450 1.1200
57.9700 21.4317 1.1165
57.9900 21.4184 1.1190
58.0100 21.4050 1.1151
58.0300 21.3917 1.1167
58.0500 21.3784 1.1133
58.0700 21.3651 1.1155
58.0900 21.3517 1.1117
58.1100 21.3384 1.1137
58.1300 21.3251 1.1106
58.1500 21.3118 1.1114
58.1700 21.2984 1.1093
58.1900 21.2850 1.1099
58.2100 21.2717 1.1081
58.2300 21.2584 1.1072
58.2500 21.2451 1.1073
58.2700 21.2317 1.1053
58.2900 21.2183 1.1058
58.3100 21.2050 1.1036
58.3300 21.1917 1.1037
58.3500 21.1784 1.1018
58.3700 21.1650 1.1033
58.3900 21.1517 1.1005
58.4100 21.1384 1.1008
58.4300 21.1251 1.0994
58.4500 21.1117 1.0983
58.4700 21.0984 1.0982
58.4900 21.0851 1.0967
58.5100 21.0718 1.0961
58.5300 21.0584 1.0954
58.5500 21.0450 1.0945
58.5700 21.0317 1.0943
58.5900 21.0184 1.0928
58.6100 21.0050 1.0931
58.6300 20.9917 1.0905
58.6500 20.9783 1.0911
58.6700 20.9650 1.0903
58.6900 20.9517 1.0885
58.7100 20.9384 1.0892
58.7300 20.9250 1.0872
58.7500 20.9117 1.0876
58.7700 20.8984 1.0854
58.7900 20.8851 1.0872
58.8100 20.8717 1.0827
58.8300 20.8584 1.0859
58.8500 20.8451 1.0808
58.8700 20.8318 1.0843
58.8900 20.8184 1.0792
58.9100 20.8050 1.0835
58.9300 20.7917 1.0780
58.9500 20.7784 1.0804
58.9700 20.7650 1.0777
58.9900 20.7517 1.0779
59.0100 20.7383 1.0769
59.0300 20.7250 1.0760
59.0500 20.7117 1.0750
59.0700 20.6984 1.0744
59.0900 20.6850 1.0744
59.1100 20.6717 1.0724
59.1300 20.6584 1.0723
59.1500 20.6451 1.0706
59.1700 20.6317 1.0712
59.1900 20.6184 1.0688
59.2100 20.6051 1.0708
59.2300 20.5918 1.0665
59.2500 20.5784 1.0682
59.2700 20.5650 1.0658
59.2900 20.5517 1.0668
59.3100 20.5383 1.0644
59.3300 20.5250 1.0657
59.3500 20.5117 1.0619
59.3700 20.4983 1.0639
59.3900 20.4850 1.0614
59.4100 20.4717 1.0620
59.4300 20.4584 1.0599
59.4500 20.4451 1.0604
59.4700 20.4317 1.0591
59.4900 20.4185 1.0571
59.5100 20.4051 1.0593
59.5300 20.3918 1.0547
59.5500 20.3784 1.0579
59.5700 20.3651 1.0536
59.5900 20.3517 1.0558
59.6100 20.3384 1.0513
59.6300 20.3250 1.0552
59.6500 20.3116 1.0498
59.6700 20.2983 1.0526
59.6900 20.2850 1.0498
59.7100 20.2717 1.0500
59.7300 20.2583 1.0487
59.7500 20.2450 1.0480
59.7700 20.2317 1.0484
59.7900 20.2184 1.0451
59.8100 20.2050 1.0481
59.8300 20.1917 1.0437
59.8500 20.1785 1.0463
59.8700 20.1651 1.0420
59.8900 20.1518 1.0450
59.9100 20.1384 1.0404
59.9300 20.1250 1.0435
59.9500 20.1117 1.0385
59.9700 20.0984 1.0408
59.9900 20.0850 1.0392
60.0100 20.0717 1.0392
60.0300 20.0583 1.0371
60.0500 20.0450 1.0375
60.0700 20.0317 1.0358
60.0900 20.0183 1.0356
60.1100 20.0050 1.0356
60.1300 19.9917 1.0337
60.1500 19.9784 1.0336
60.1700 19.9650 1.0318
60.1900 19.9517 1.0327
60.2100 19.9384 1.0303
60.2300 19.9251 1.0323
60.2500 19.9118 1.0280
60.2700 19.8984 1.0295
60.2900 19.8851 1.0268
60.3100 19.8717 1.0291
60.3300 19.8584 1.0251
60.3500 19.8450 1.0274
60.3700 19.8317 1.0240
60.3900 19.8183 1.0254
60.4100 19.8050 1.0230
60.4300 19.7917 1.0239
60.4500 19.7783 1.0220
60.4700 19.7650 1.0213
60.4900 19.7517 1.0220
60.5100 19.7384 1.0183
60.5300 19.7250 1.0217
60.5500 19.7117 1.0165
60.5700 19.6984 1.0196
60.5900 19.6851 1.0151
60.6100 19.6717 1.0184
60.6300 19.6584 1.0135
60.6500 19.6451 1.0174
60.6700 19.6318 1.0121
60.6900 19.6184 1.0143
60.7100 19.6050 1.0126
60.7300 19.5917 1.0122
60.7500 19.5784 1.0111
60.7700 19.5651 1.0104
60.7900 19.5517 1.0112
60.8100 19.5383 1.0071
60.8300 19.5250 1.0109
60.8500 19.5117 1.0057
60.8700 19.4984 1.0085
60.8900 19.4850 1.0049
60.9100 19.4717 1.0070
60.9300 19.4584 1.0028
60.9500 19.4451 1.0057
60.9700 19.4318 1.0014
60.9900 19.4184 1.0039
61.0100 19.4051 1.0001
61.0300 19.3917 1.0023
61.0500 19.3784 0.9983
61.0700 19.3650 1.0009
61.0900 19.3517 0.9977
61.1100 19.3383 0.9984
61.1300 19.3250 0.9967
61.1500 19.3117 0.9967
61.1700 19.2983 0.9955
61.1900 19.2850 0.9948
61.2100 19.2717 0.9952
61.2300 19.2584 0.9928
61.2500 19.2450 0.9947
61.2700 19.2317 0.9914
61.2900 19.2184 0.9926
61.3100 19.2051 0.9897
61.3300 19.1918 0.9924
61.3500 19.1784 0.9867
61.3700 19.1651 0.9913
61.3900 19.1517 0.9863
61.4100 19.1384 0.9884
61.4300 19.1250 0.9864
61.4500 19.1116 0.9865
61.4700 19.0983 0.9848
61.4900 19.0850 0.9848
61.5100 19.0717 0.9848
61.5300 19.0583 0.9828
61.5500 19.0450 0.9843
61.5700 19.0317 0.9811
61.5900 19.0184 0.9825
61.6100 19.0051 0.9796
61.6300 18.9917 0.9817
61.6500 18.9784 0.9773
61.6700 18.9651 0.9800
61.6900 18.9518 0.9769
61.7100 18.9384 0.9778
61.7300 18.9250 0.9757
61.7500 18.9117 0.9761
61.7700 18.8984 0.9746
61.7900 18.8850 0.9740
61.8100 18.8717 0.9742
61.8300 18.8583 0.9715
61.8500 18.8450 0.9728
61.8700 18.8317 0.9712
61.8900 18.8183 0.9705
61.9100 18.8050 0.9697
61.9300 18.7917 0.9702
61.9500 18.7784 0.9671
61.9700 18.7650 0.9695
61.9900 18.7517 0.9662
62.0100 18.7384 0.9671
62.0300 18.7251 0.9644
62.0500 18.7118 0.9669
62.0700 18.6984 0.9625
62.0900 18.6851 0.9657
62.1100 18.6717 0.9619
62.1300 18.6584 0.9630
62.1500 18.6450 0.9609
62.1700 18.6317 0.9622
62.1900 18.6183 0.9593
62.2100 18.6050 0.9600
62.2300 18.5917 0.9589
62.2500 18.5783 0.9573
62.2700 18.5650 0.9584
62.2900 18.5517 0.9559
62.3100 18.5384 0.9568
62.3300 18.5250 0.9539
62.3500 18.5117 0.9567
62.3700 18.4984 0.9519
62.3900 18.4851 0.9546
62.4100 18.4717 0.9517
62.4300 18.4584 0.9525
62.4500 18.4450 0.9505
62.4700 18.4317 0.9511
62.4900 18.4184 0.9490
62.5100 18.4050 0.9489
62.5300 18.3917 0.9489
62.5500 18.3784 0.9470
62.5700 18.3650 0.9474
62.5900 18.3517 0.9460
62.6100 18.3383 0.9456
62.6300 18.3250 0.9445
62.6500 18.3117 0.9452
62.6700 18.2984 0.9424
62.6900 18.2850 0.9442
62.7100 18.2717 0.9420
62.7300 18.2584 0.9415
62.7500 18.2451 0.9398
62.7700 18.2318 0.9409
62.7900 18.2184 0.9382
62.8100 18.2050 0.9396
62.8300 18.1917 0.9371
62.8500 18.1784 0.9377
62.8700 18.1650 0.9354
62.8900 18.1517 0.9377
62.9100 18.1383 0.9339
62.9300 18.1250 0.9353
62.9500 18.1117 0.9335
62.9700 18.0983 0.9325
62.9900 18.0850 0.9335
63.0100 18.0717 0.9317
63.0300 18.0584 0.9322
63.0500 18.0451 0.9293
63.0700 18.0317 0.9312
63.0900 18.0184 0.9279
63.1100 18.0051 0.9299
63.1300 17.9918 0.9273
63.1500 17.9784 0.9279
63.1700 17.9651 0.9251
63.1900 17.9517 0.9279
63.2100 17.9384 0.9237
63.2300 17.9250 0.9260
63.2500 17.9117 0.9233
63.2700 17.8983 0.9232
63.2900 17.8850 0.9222
63.3100 17.8717 0.9223
63.3300 17.8584 0.9216
63.3500 17.8450 0.9195
63.3700 17.8317 0.9205
63.3900 17.8184 0.9182
63.4100 17.8051 0.9190
63.4300 17.7917 0.9176
63.4500 17.7784 0.9170
63.4700 17.7651 0.9155
63.4900 17.7518 0.9167
63.5100 17.7384 0.9135
63.5300 17.7250 0.9159
63.5500 17.7117 0.9131
63.5700 17.6984 0.9129
63.5900 17.6851 0.9118
63.6100 17.6717 0.9120
63.6300 17.6583 0.9108
63.6500 17.6450 0.9099
63.6700 17.6317 0.9104
63.6900 17.6183 0.9080
63.7100 17.6050 0.9089
63.7300 17.5917 0.9077
63.7500 17.5784 0.9073
63.7700 17.5651 0.9050
63.7900 17.5517 0.9077
63.8100 17.5384 0.9028
63.8300 17.5251 0.9064
63.8500 17.5118 0.9021
63.8700 17.4984 0.9044
63.8900 17.4850 0.9009
63.9100 17.4717 0.9029
63.9300 17.4584 0.8997
63.9500 17.4451 0.9001
63.9700 17.4317 0.8997
63.9900 17.4184 0.8987
64.0100 17.4051 0.8973
64.0300 17.3917 0.8974
64.0500 17.3784 0.8971
64.0700 17.3650 0.8949
64.0900 17.3517 0.8973
64.1100 17.3384 0.8921
64.1300 17.3250 0.8961
64.1500 17.3117 0.8916
64.1700 17.2984 0.8953
64.1900 17.2851 0.8901
64.2100 17.2718 0.8934
64.2300 17.2584 0.8888
64.2500 17.2451 0.8912
64.2700 17.2317 0.8887
64.2900 17.2184 0.8892
64.3100 17.2051 0.8871
64.3300 17.1917 0.8884
64.3500 17.1783 0.8867
64.3700 17.1650 0.8855
64.3900 17.1517 0.8863
64.4100 17.1383 0.8845
64.4300 17.1250 0.8846
64.4500 17.1117 0.8836
64.4700 17.0984 0.8835
64.4900 17.0850 0.8813
64.5100 17.0717 0.8825
64.5300 17.0584 0.8806
64.5500 17.0451 0.8802
64.5700 17.0318 0.8800
64.5900 17.0184 0.8793
64.6100 17.0051 0.8776
64.6300 16.9917 0.8788
64.6500 16.9784 0.8765
64.6700 16.9651 0.8760
64.6900 16.9517 0.8757
64.7100 16.9383 0.8754
64.7300 16.9250 0.8737
64.7500 16.9117 0.8742
64.7700 16.8983 0.8732
64.7900 16.8850 0.8718
64.8100 16.8717 0.8731
64.8300 16.8584 0.8699
64.8500 16.8451 0.8716
64.8700 16.8317 0.8686
64.8900 16.8184 0.8711
64.9100 16.8051 0.8666
64.9300 16.7918 0.8692
64.9500 16.7784 0.8661
64.9700 16.7651 0.8673
64.9900 16.7517 0.8656
65.0100 16.7384 0.8660
65.0300 16.7251 0.8634
65.0500 16.7117 0.8643
65.0700 16.6984 0.8635
65.0900 16.6850 0.8616
65.1100 16.6717 0.8629
65.1300 16.6583 0.8603
65.1500 16.6450 0.8614
65.1700 16.6317 0.8591
65.1900 16.6184 0.8610
65.2100 16.6050 0.8570
65.2300 16.5917 0.8593
65.2500 16.5784 0.8570
65.2700 16.5651 0.8572
65.2900 16.5518 0.8557
65.3100 16.5384 0.8560
65.3300 16.5250 0.8539
65.3500 16.5117 0.8554
65.3700 16.4984 0.8522
65.3900 16.4851 0.8530
65.4100 16.4717 0.8521
65.4300 16.4583 0.8516
65.4500 16.4451 0.8506
65.4700 16.4317 0.8497
65.4900 16.4184 0.8501
65.5100 16.4050 0.8476
65.5300 16.3917 0.8497
65.5500 16.3784 0.8470
65.5700 16.3651 0.8471
65.5900 16.3517 0.8461
65.6100 16.3384 0.8467
65.6300 16.3251 0.8432
65.6500 16.3117 0.8458
65.6700 16.2984 0.8430
65.6900 16.2850 0.8434
65.7100 16.2717 0.8421
65.7300 16.2584 0.8418
65.7500 16.2451 0.8407
65.7700 16.2317 0.8397
65.7900 16.2183 0.8412
65.8100 16.2050 0.8378
65.8300 16.1917 0.8401
65.8500 16.1783 0.8358
65.8700 16.1650 0.8384
65.8900 16.1517 0.8349
65.9100 16.1384 0.8388
65.9300 16.1250 0.8324
65.9500 16.1117 0.8372
65.9700 16.0984 0.8320
65.9900 16.0851 0.8348
66.0100 16.0718 0.8307
66.0300 16.0584 0.8344
66.0500 16.0451 0.8298
66.0700 16.0317 0.8315
66.0900 16.0184 0.8304
66.1100 16.0051 0.8287
66.1300 15.9917 0.8301
66.1500 15.9784 0.8283
66.1700 15.9651 0.8283
66.1900 15.9517 0.8257
66.2100 15.9384 0.8282
66.2300 15.9250 0.8238
66.2500 15.9116 0.8268
66.2700 15.8983 0.8234
66.2900 15.8850 0.8251
66.3100 15.8717 0.8221
66.3300 15.8584 0.8254
66.3500 15.8451 0.8191
66.3700 15.8318 0.8236
66.3900 15.8185 0.8195
66.4100 15.8051 0.8211
66.4300 15.7918 0.8183
66.4500 15.7784 0.8208
66.4700 15.7651 0.8162
66.4900 15.7517 0.8187
66.5100 15.7383 0.8162
66.5300 15.7250 0.8168
66.5500 15.7117 0.8148
66.5700 15.6983 0.8155
66.5900 15.6850 0.8141
66.6100 15.6716 0.8128
66.6300 15.6584 0.8145
66.6500 15.6451 0.8104
66.6700 15.6317 0.8134
66.6900 15.6184 0.8102
66.7100 15.6051 0.8112
66.7300 15.5918 0.8083
66.7500 15.5784 0.8108
66.7700 15.5651 0.8071
66.7900 15.5517 0.8085
66.8100 15.5384 0.8069
66.8300 15.5251 0.8062
66.8500 15.5117 0.8057
66.8700 15.4983 0.8057
66.8900 15.4850 0.8044
66.9100 15.4717 0.8039
66.9300 15.4583 0.8040
66.9500 15.4450 0.8015
66.9700 15.4317 0.8034
66.9900 15.4184 0.8005
67.0100 15.4050 0.8017
67.0300 15.3917 0.7990
67.0500 15.3784 0.8013
67.0700 15.3651 0.7970
67.0900 15.3518 0.7999
67.1100 15.3385 0.7960
67.1300 15.3251 0.7984
67.1500 15.3117 0.7942
67.1700 15.2984 0.7975
67.1900 15.2850 0.7925
67.2100 15.2717 0.7951
67.2300 15.2583 0.7934
67.2500 15.2450 0.7932
67.2700 15.2317 0.7924
67.2900 15.2184 0.7916
67.3100 15.2050 0.7915
67.3300 15.1917 0.7893
67.3500 15.1784 0.7923
67.3700 15.1651 0.7867
67.3900 15.1517 0.7906
67.4100 15.1384 0.7864
67.4300 15.1251 0.7893
67.4500 15.1118 0.7843
67.4700 15.0985 0.7885
67.4900 15.0851 0.7834
67.5100 15.0717 0.7862
67.5300 15.0584 0.7830
67.5500 15.0451 0.7844
67.5700 15.0317 0.7817
67.5900 15.0183 0.7836
67.6100 15.0050 0.7815
67.6300 14.9917 0.7799
67.6500 14.9784 0.7819
67.6700 14.9650 0.7779
67.6900 14.9516 0.7810
67.7100 14.9383 0.7773
67.7300 14.9250 0.7791
67.7500 14.9117 0.7755
67.7700 14.8984 0.7784
67.7900 14.8851 0.7741
67.8100 14.8718 0.7768
67.8300 14.8584 0.7739
67.8500 14.8451 0.7748
67.8700 14.8318 0.7727
67.8900 14.8184 0.7737
67.9100 14.8051 0.7721
67.9300 14.7917 0.7703
67.9500 14.7783 0.7730
67.9700 14.7650 0.7687
67.9900 14.7517 0.7706
68.0100 14.7383 0.7684
68.0300 14.7250 0.7690
68.0500 14.7116 0.7672
68.0700 14.6983 0.7686
68.0900 14.6850 0.7649
68.1100 14.6717 0.7669
68.1300 14.6584 0.7647
68.1500 14.6451 0.7658
68.1700 14.6318 0.7623
68.1900 14.6185 0.7650
68.2100 14.6051 0.7615
68.2300 14.5917 0.7625
68.2500 14.5784 0.7616
68.2700 14.5651 0.7609
68.2900 14.5517 0.7597
68.3100 14.5383 0.7600
68.3300 14.5250 0.7583
68.3500 14.5117 0.7578
68.3700 14.4983 0.7583
68.3900 14.4850 0.7557
68.4100 14.4716 0.7575
68.4300 14.4583 0.7541
68.4500 14.4451 0.7558
68.4700 14.4317 0.7524
68.4900 14.4184 0.7564
68.5100 14.4051 0.7519
68.5300 14.3918 0.7525
68.5500 14.3785 0.7522
68.5700 14.3651 0.7502
68.5900 14.3518 0.7508
68.6100 14.3384 0.7500
68.6300 14.3251 0.7492
68.6500 14.3117 0.7475
68.6700 14.2983 0.7492
68.6900 14.2850 0.7462
68.7100 14.2716 0.7475
68.7300 14.2583 0.7447
68.7500 14.2450 0.7468
68.7700 14.2317 0.7427
68.7900 14.2184 0.7464
68.8100 14.2051 0.7415
68.8300 14.1918 0.7442
68.8500 14.1784 0.7414
68.8700 14.1651 0.7431
68.8900 14.1518 0.7399
68.9100 14.1385 0.7419
68.9300 14.1251 0.7387
68.9500 14.1117 0.7394
68.9700 14.0984 0.7384
68.9900 14.0851 0.7379
69.0100 14.0717 0.7367
69.0300 14.0583 0.7365
69.0500 14.0450 0.7367
69.0700 14.0317 0.7338
69.0900 14.0184 0.7363
69.1100 14.0050 0.7326
69.1300 13.9917 0.7347
69.1500 13.9783 0.7319
69.1700 13.9650 0.7338
69.1900 13.9517 0.7289
69.2100 13.9384 0.7335
69.2300 13.9250 0.7286
69.2500 13.9117 0.7307
69.2700 13.8984 0.7280
69.2900 13.8851 0.7298
69.3100 13.8717 0.7265
69.3300 13.8584 0.7278
69.3500 13.8451 0.7264
69.3700 13.8317 0.7248
69.3900 13.8183 0.7261
69.4100 13.8050 0.7237
69.4300 13.7917 0.7248
69.4500 13.7784 0.7220
69.4700 13.7650 0.7247
69.4900 13.7517 0.7199
69.5100 13.7383 0.7232
69.5300 13.7250 0.7190
69.5500 13.7117 0.7209
69.5700 13.6983 0.7194
69.5900 13.6850 0.7192
69.6100 13.6717 0.7173
69.6300 13.6584 0.7177
69.6500 13.6451 0.7173
69.6700 13.6317 0.7155
69.6900 13.6184 0.7164
69.7100 13.6051 0.7140
69.7300 13.5917 0.7140
69.7500 13.5784 0.7130
69.7700 13.5650 0.7145
69.7900 13.5517 0.7112
69.8100 13.5384 0.7126
69.8300 13.5250 0.7105
69.8500 13.5117 0.7105
69.8700 13.4984 0.7097
69.8900 13.4851 0.7099
69.9100 13.4717 0.7078
69.9300 13.4584 0.7089
69.9500 13.4451 0.7065
69.9700 13.4318 0.7072
69.9900 13.4185 0.7049
70.0100 13.4051 0.7071
70.0300 13.3917 0.7030
70.0500 13.3784 0.7050
70.0700 13.3651 0.7029
70.0900 13.3517 0.7019
70.1100 13.3384 0.7030
70.1300 13.3250 0.7012
70.1500 13.3117 0.7014
70.1700 13.2984 0.6992
70.1900 13.2850 0.7009
70.2100 13.2717 0.6974
70.2300 13.2583 0.7004
70.2500 13.2451 0.6957
70.2700 13.2318 0.6984
70.2900 13.2184 0.6947
70.3100 13.2051 0.6979
70.3300 13.1918 0.6931
70.3500 13.1785 0.6955
70.3700 13.1651 0.6935
70.3900 13.1517 0.6928
70.4100 13.1384 0.6927
70.4300 13.1251 0.6912
70.4500 13.1117 0.6920
70.4700 13.0983 0.6899
70.4900 13.0850 0.6911
70.5100 13.0717 0.6884
70.5300 13.0584 0.6893
70.5500 13.0450 0.6875
70.5700 13.0317 0.6877
70.5900 13.0184 0.6872
70.6100 13.0051 0.6871
70.6300 12.9917 0.6841
70.6500 12.9784 0.6857
70.6700 12.9651 0.6845
70.6900 12.9518 0.6833
70.7100 12.9384 0.6834
70.7300 12.9251 0.6826
70.7500 12.9117 0.6814
70.7700 12.8984 0.6810
70.7900 12.8851 0.6807
70.8100 12.8717 0.6796
70.8300 12.8584 0.6797
70.8500 12.8450 0.6791
70.8700 12.8317 0.6776
70.8900 12.8184 0.6767
70.9100 12.8050 0.6780
70.9300 12.7916 0.6743
70.9500 12.7783 0.6774
70.9700 12.7650 0.6731
70.9900 12.7517 0.6750
71.0100 12.7384 0.6721
71.0300 12.7251 0.6751
71.0500 12.7118 0.6705
71.0700 12.6984 0.6725
71.0900 12.6851 0.6706
71.1100 12.6717 0.6701
71.1300 12.6584 0.6696
71.1500 12.6451 0.6690
71.1700 12.6317 0.6679
71.1900 12.6184 0.6666
71.2100 12.6050 0.6691
71.2300 12.5917 0.6645
71.2500 12.5784 0.6673
71.2700 12.5650 0.6637
71.2900 12.5517 0.6650
71.3100 12.5384 0.6629
71.3300 12.5251 0.6653
71.3500 12.5117 0.6609
71.3700 12.4984 0.6628
71.3900 12.4850 0.6606
71.4100 12.4717 0.6608
71.4300 12.4584 0.6595
71.4500 12.4451 0.6603
71.4700 12.4318 0.6575
71.4900 12.4184 0.6586
71.5100 12.4051 0.6575
71.5300 12.3918 0.6567
71.5500 12.3784 0.6555
71.5700 12.3650 0.6556
71.5900 12.3517 0.6550
71.6100 12.3384 0.6527
71.6300 12.3250 0.6549
71.6500 12.3116 0.6513
71.6700 12.2983 0.6540
71.6900 12.2850 0.6501
71.7100 12.2717 0.6524
71.7300 12.2584 0.6486
71.7500 12.2450 0.6524
71.7700 12.2317 0.6468
71.7900 12.2184 0.6501
71.8100 12.2051 0.6465
71.8300 12.1917 0.6483
71.8500 12.1784 0.6455
71.8700 12.1651 0.6465
71.8900 12.1518 0.6456
71.9100 12.1384 0.6431
71.9300 12.1250 0.6458
71.9500 12.1116 0.6410
71.9700 12.0983 0.6448
71.9900 12.0850 0.6399
72.0100 12.0716 0.6435
72.0300 12.0583 0.6388
72.0500 12.0450 0.6423
72.0700 12.0317 0.6377
72.0900 12.0184 0.6396
72.1100 12.0050 0.6377
72.1300 11.9917 0.6382
72.1500 11.9784 0.6361
72.1700 11.9651 0.6371
72.1900 11.9517 0.6351
72.2100 11.9384 0.6351
72.2300 11.9251 0.6348
72.2500 11.9117 0.6327
72.2700 11.8984 0.6336
72.2900 11.8850 0.6324
72.3100 11.8717 0.6320
72.3300 11.8584 0.6308
72.3500 11.8450 0.6315
72.3700 11.8317 0.6290
72.3900 11.8183 0.6299
72.4100 11.8050 0.6276
72.4300 11.7917 0.6290
72.4500 11.7784 0.6254
72.4700 11.7650 0.6289
72.4900 11.7517 0.6240
72.5100 11.7384 0.6265
72.5300 11.7251 0.6235
72.5500 11.7117 0.6250
72.5700 11.6984 0.6227
72.5900 11.6851 0.6235
72.6100 11.6718 0.6223
72.6300 11.6584 0.6198
72.6500 11.6450 0.6222
72.6700 11.6317 0.6190
72.6900 11.6184 0.6203
72.7100 11.6051 0.6169
72.7300 11.5917 0.6194
72.7500 11.5783 0.6145
72.7700 11.5650 0.6198
72.7900 11.5517 0.6129
72.8100 11.5384 0.6178
72.8300 11.5251 0.6134
72.8500 11.5117 0.6147
72.8700 11.4984 0.6126
72.8900 11.4851 0.6132
72.9100 11.4717 0.6124
72.9300 11.4584 0.6104
72.9500 11.4451 0.6120
72.9700 11.4318 0.6091
72.9900 11.4184 0.6100
73.0100 11.4050 0.6082
73.0300 11.3917 0.6092
73.0500 11.3784 0.6057
73.0700 11.3651 0.6085
73.0900 11.3517 0.6044
73.1100 11.3383 0.6069
73.1300 11.3250 0.6039
73.1500 11.3117 0.6056
73.1700 11.2983 0.6026
73.1900 11.2850 0.6048
73.2100 11.2717 0.6014
73.2300 11.2584 0.6020
73.2500 11.2451 0.6008
73.2700 11.2318 0.6010
73.2900 11.2184 0.5991
73.3100 11.2051 0.6000
73.3300 11.1917 0.5976
73.3500 11.1784 0.5973
73.3700 11.1650 0.5986
73.3900 11.1517 0.5954
73.4100 11.1384 0.5959
73.4300 11.1251 0.5942
73.4500 11.1117 0.5951
73.4700 11.0983 0.5924
73.4900 11.0850 0.5947
73.5100 11.0717 0.5911
73.5300 11.0583 0.5922
73.5500 11.0450 0.5910
73.5700 11.0317 0.5912
73.5900 11.0184 0.5891
73.6100 11.0051 0.5896
73.6300 10.9918 0.5887
73.6500 10.9784 0.5876
73.6700 10.9651 0.5881
73.6900 10.9518 0.5852
73.7100 10.9384 0.5871
73.7300 10.9250 0.5835
73.7500 10.9117 0.5873
73.7700 10.8983 0.5816
73.7900 10.8850 0.5851
73.8100 10.8717 0.5814
73.8300 10.8583 0.5828
73.8500 10.8450 0.5806
73.8700 10.8317 0.5815
73.8900 10.8184 0.5789
73.9100 10.8051 0.5797
73.9300 10.7917 0.5789
73.9500 10.7784 0.5774
73.9700 10.7651 0.5776
73.9900 10.7518 0.5764
74.0100 10.7384 0.5762
74.0300 10.7251 0.5752
74.0500 10.7117 0.5749
74.0700 10.6984 0.5730
74.0900 10.6850 0.5745
74.1100 10.6717 0.5718
74.1300 10.6583 0.5731
74.1500 10.6450 0.5703
74.1700 10.6317 0.5723
74.1900 10.6183 0.5685
74.2100 10.6050 0.5712
74.2300 10.5917 0.5678
74.2500 10.5784 0.5688
74.2700 10.5650 0.5664
74.2900 10.5517 0.5685
74.3100 10.5384 0.5644
74.3300 10.5251 0.5663
74.3500 10.5118 0.5643
74.3700 10.4984 0.5638
74.3900 10.4850 0.5643
74.4100 10.4717 0.5615
74.4300 10.4584 0.5635
74.4500 10.4450 0.5600
74.4700 10.4317 0.5631
74.4900 10.4184 0.5575
74.5100 10.4050 0.5614
74.5300 10.3917 0.5570
74.5500 10.3783 0.5594
74.5700 10.3650 0.5566
74.5900 10.3517 0.5581
74.6100 10.3384 0.5547
74.6300 10.3250 0.5567
74.6500 10.3117 0.5548
74.6700 10.2984 0.5546
74.6900 10.2851 0.5543
74.7100 10.2718 0.5524
74.7300 10.2584 0.5528
74.7500 10.2450 0.5513
74.7700 10.2317 0.5518
74.7900 10.2184 0.5487
74.8100 10.2050 0.5503
74.8300 10.1917 0.5484
74.8500 10.1783 0.5482
74.8700 10.1650 0.5466
74.8900 10.1517 0.5479
74.9100 10.1383 0.5443
74.9300 10.1250 0.5472
74.9500 10.1117 0.5427
74.9700 10.0984 0.5457
74.9900 10.0850 0.5418
75.0100 10.0717 0.5446
75.0300 10.0584 0.5404
75.0500 10.0451 0.5430
75.0700 10.0318 0.5404
75.0900 10.0184 0.5403
75.1100 10.0051 0.5394
75.1300 9.9918 0.5390
75.1500 9.9784 0.5379
75.1700 9.9650 0.5371
75.1900 9.9517 0.5384
75.2100 9.9383 0.5345
75.2300 9.9250 0.5376
75.2500 9.9116 0.5325
75.2700 9.8983 0.5364
75.2900 9.8850 0.5316
75.3100 9.8717 0.5350
75.3300 9.8584 0.5301
75.3500 9.8451 0.5331
75.3700 9.8317 0.5299
75.3900 9.8184 0.5306
75.4100 9.8051 0.5287
75.4300 9.7918 0.5294
75.4500 9.7784 0.5282
75.4700 9.7651 0.5273
75.4900 9.7517 0.5276
75.5100 9.7384 0.5250
75.5300 9.7250 0.5262
75.5500 9.7117 0.5244
75.5700 9.6983 0.5249
75.5900 9.6850 0.5223
75.6100 9.6717 0.5236
75.6300 9.6583 0.5214
75.6500 9.6450 0.5219
75.6700 9.6317 0.5207
75.6900 9.6184 0.5203
75.7100 9.6051 0.5188
75.7300 9.5917 0.5197
75.7500 9.5784 0.5172
75.7700 9.5651 0.5179
75.7900 9.5518 0.5162
75.8100 9.5384 0.5167
75.8300 9.5251 0.5149
75.8500 9.5118 0.5156
75.8700 9.4984 0.5139
75.8900 9.4850 0.5124
75.9100 9.4716 0.5137
75.9300 9.4583 0.5104
75.9500 9.4450 0.5119
75.9700 9.4317 0.5095
75.9900 9.4183 0.5105
76.0100 9.4050 0.5073
76.0300 9.3917 0.5097
76.0500 9.3784 0.5057
76.0700 9.3651 0.5078
76.0900 9.3517 0.5057
76.1100 9.3384 0.5059
76.1300 9.3251 0.5040
76.1500 9.3118 0.5041
76.1700 9.2984 0.5036
76.1900 9.2850 0.5024
76.2100 9.2717 0.5034
76.2300 9.2584 0.5005
76.2500 9.2450 0.5018
76.2700 9.2317 0.4987
76.2900 9.2183 0.5017
76.3100 9.2050 0.4971
76.3300 9.1917 0.4996
76.3500 9.1783 0.4956
76.3700 9.1650 0.4978
76.3900 9.1517 0.4953
76.4100 9.1384 0.4965
76.4300 9.1250 0.4939
76.4500 9.1117 0.4948
76.4700 9.0984 0.4928
76.4900 9.0851 0.4926
76.5100 9.0718 0.4918
76.5300 9.0584 0.4908
76.5500 9.0450 0.4908
76.5700 9.0317 0.4892
76.5900 9.0184 0.4896
76.6100 9.0051 0.4874
76.6300 8.9917 0.4892
76.6500 8.9783 0.4863
76.6700 8.9650 0.4868
76.6900 8.9517 0.4855
76.7100 8.9383 0.4858
76.7300 8.9250 0.4841
76.7500 8.9117 0.4847
76.7700 8.8984 0.4822
76.7900 8.8850 0.4837
76.8100 8.8717 0.4813
76.8300 8.8584 0.4822
76.8500 8.8451 0.4793
76.8700 8.8318 0.4804
76.8900 8.8184 0.4788
76.9100 8.8050 0.4772
76.9300 8.7917 0.4785
76.9500 8.7784 0.4756
76.9700 8.7651 0.4763
76.9900 8.7517 0.4747
77.0100 8.7384 0.4754
77.0300 8.7251 0.4724
77.0500 8.7117 0.4745
77.0700 8.6983 0.4709
77.0900 8.6850 0.4727
77.1100 8.6717 0.4703
77.1300 8.6584 0.4713
77.1500 8.6450 0.4689
77.1700 8.6317 0.4696
77.1900 8.6184 0.4679
77.2100 8.6051 0.4673
77.2300 8.5918 0.4672
77.2500 8.5784 0.4661
77.2700 8.5650 0.4655
77.2900 8.5517 0.4647
77.3100 8.5384 0.4638
77.3300 8.5251 0.4630
77.3500 8.5117 0.4628
77.3700 8.4983 0.4616
77.3900 8.4850 0.4608
77.4100 8.4717 0.4592
77.4300 8.4584 0.4607
77.4500 8.4450 0.4576
77.4700 8.4317 0.4592
77.4900 8.4184 0.4567
77.5100 8.4051 0.4574
77.5300 8.3917 0.4552
77.5500 8.3784 0.4568
77.5700 8.3651 0.4536
77.5900 8.3518 0.4550
77.6100 8.3384 0.4524
77.6300 8.3251 0.4530
77.6500 8.3117 0.4517
77.6700 8.2984 0.4510
77.6900 8.2850 0.4502
77.7100 8.2717 0.4490
77.7300 8.2583 0.4500
77.7500 8.2450 0.4469
77.7700 8.2317 0.4489
77.7900 8.2184 0.4453
77.8100 8.2050 0.4470
77.8300 8.1917 0.4442
77.8500 8.1784 0.4458
77.8700 8.1651 0.4427
77.8900 8.1517 0.4442
77.9100 8.1384 0.4417
77.9300 8.1251 0.4426
77.9500 8.1118 0.4405
77.9700 8.0984 0.4410
77.9900 8.0850 0.4392
78.0100 8.0717 0.4390
78.0300 8.0584 0.4388
78.0500 8.0451 0.4366
78.0700 8.0317 0.4374
78.0900 8.0183 0.4353
78.1100 8.0050 0.4360
78.1300 7.9917 0.4340
78.1500 7.9783 0.4351
78.1700 7.9650 0.4322
78.1900 7.9517 0.4337
78.2100 7.9384 0.4312
78.2300 7.9251 0.4317
78.2500 7.9117 0.4298
78.2700 7.8984 0.4312
78.2900 7.8851 0.4282
78.3100 7.8718 0.4289
78.3300 7.8584 0.4273
78.3500 7.8450 0.4271
78.3700 7.8317 0.4267
78.3900 7.8184 0.4257
78.4100 7.8051 0.4256
78.4300 7.7917 0.4233
78.4500 7.7784 0.4249
78.4700 7.7650 0.4215
78.4900 7.7517 0.4234
78.5100 7.7384 0.4208
78.5300 7.7250 0.4220
78.5500 7.7117 0.4182
78.5700 7.6984 0.4206
78.5900 7.6850 0.4173
78.6100 7.6717 0.4192
78.6300 7.6584 0.4170
78.6500 7.6451 0.4164
78.6700 7.6318 0.4150
78.6900 7.6184 0.4156
78.7100 7.6051 0.4136
78.7300 7.5917 0.4139
78.7500 7.5784 0.4130
78.7700 7.5651 0.4108
78.7900 7.5517 0.4113
78.8100 7.5383 0.4107
78.8300 7.5250 0.4095
78.8500 7.5117 0.4092
78.8700 7.4983 0.4081
78.8900 7.4850 0.4071
78.9100 7.4717 0.4072
78.9300 7.4584 0.4055
78.9500 7.4450 0.4060
78.9700 7.4317 0.4041
78.9900 7.4184 0.4050
79.0100 7.4051 0.4024
79.0300 7.3918 0.4037
79.0500 7.3784 0.4014
79.0700 7.3651 0.4017
79.0900 7.3517 0.3998
79.1100 7.3384 0.4001
79.1300 7.3251 0.3983
79.1500 7.3117 0.3984
79.1700 7.2983 0.3968
79.1900 7.2850 0.3964
79.2100 7.2717 0.3956
79.2300 7.2583 0.3944
79.2500 7.2450 0.3952
79.2700 7.2316 0.3923
79.2900 7.2183 0.3942
79.3100 7.2050 0.3906
79.3300 7.1917 0.3925
79.3500 7.1784 0.3899
79.3700 7.1651 0.3903
79.3900 7.1518 0.3885
79.4100 7.1384 0.3890
79.4300 7.1251 0.3869
79.4500 7.1117 0.3871
79.4700 7.0984 0.3862
79.4900 7.0851 0.3858
79.5100 7.0717 0.3852
79.5300 7.0584 0.3840
79.5500 7.0450 0.3843
79.5700 7.0317 0.3815
79.5900 7.0184 0.3844
79.6100 7.0050 0.3796
79.6300 6.9917 0.3825
79.6500 6.9784 0.3783
79.6700 6.9650 0.3808
79.6900 6.9517 0.3771
79.7100 6.9384 0.3799
79.7300 6.9251 0.3754
79.7500 6.9118 0.3770
79.7700 6.8984 0.3744
79.7900 6.8851 0.3760
79.8100 6.8718 0.3727
79.8300 6.8585 0.3741
79.8500 6.8451 0.3716
79.8700 6.8317 0.3713
79.8900 6.8183 0.3717
79.9100 6.8050 0.3696
79.9300 6.7917 0.3698
79.9500 6.7784 0.3682
79.9700 6.7650 0.3681
79.9900 6.7517 0.3664
80.0100 6.7384 0.3675
80.0300 6.7251 0.3648
80.0500 6.7117 0.3661
80.0700 6.6984 0.3633
80.0900 6.6851 0.3646
80.1100 6.6717 0.3615
80.1300 6.6584 0.3640
80.1500 6.6451 0.3606
80.1700 6.6317 0.3622
80.1900 6.6184 0.3598
80.2100 6.6051 0.3592
80.2300 6.5917 0.3581
80.2500 6.5784 0.3584
80.2700 6.5650 0.3574
80.2900 6.5517 0.3551
80.3100 6.5383 0.3569
80.3300 6.5250 0.3535
80.3500 6.5116 0.3560
80.3700 6.4983 0.3516
80.3900 6.4850 0.3545
80.4100 6.4717 0.3486
80.4300 6.4583 0.3537
80.4500 6.4451 0.3477
80.4700 6.4318 0.3516
80.4900 6.4184 0.3482
80.5100 6.4051 0.3493
80.5300 6.3917 0.3468
80.5500 6.3784 0.3473
80.5700 6.3651 0.3471
80.5900 6.3517 0.3441
80.6100 6.3384 0.3465
80.6300 6.3250 0.3422
80.6500 6.3117 0.3446
80.6700 6.2984 0.3404
80.6900 6.2850 0.3436
80.7100 6.2716 0.3387
80.7300 6.2583 0.3417
80.7500 6.2450 0.3373
80.7700 6.2317 0.3398
80.7900 6.2184 0.3375
80.8100 6.2051 0.3386
80.8300 6.1918 0.3355
80.8500 6.1785 0.3366
80.8700 6.1651 0.3346
80.8900 6.1518 0.3340
80.9100 6.1385 0.3332
80.9300 6.1251 0.3322
80.9500 6.1118 0.3314
80.9700 6.0984 0.3314
80.9900 6.0850 0.3301
81.0100 6.0717 0.3292
81.0300 6.0583 0.3290
81.0500 6.0450 0.3281
81.0700 6.0316 0.3282
81.0900 6.0183 0.3265
81.1100 6.0051 0.3273
81.1300 5.9917 0.3250
81.1500 5.9784 0.3258
81.1700 5.9651 0.3238
81.1900 5.9518 0.3240
81.2100 5.9385 0.3221
81.2300 5.9251 0.3219
81.2500 5.9117 0.3206
81.2700 5.8984 0.3201
81.2900 5.8851 0.3201
81.3100 5.8717 0.3173
81.3300 5.8583 0.3190
81.3500 5.8450 0.3161
81.3700 5.8317 0.3176
81.3900 5.8183 0.3146
81.4100 5.8050 0.3169
81.4300 5.7916 0.3124
81.4500 5.7783 0.3153
81.4700 5.7650 0.3104
81.4900 5.7517 0.3130
81.5100 5.7384 0.3100
81.5300 5.7251 0.3111
81.5500 5.7118 0.3087
81.5700 5.6984 0.3087
81.5900 5.6851 0.3079
81.6100 5.6717 0.3075
81.6300 5.6584 0.3066
81.6500 5.6450 0.3064
81.6700 5.6317 0.3052
81.6900 5.6183 0.3050
81.7100 5.6050 0.3049
81.7300 5.5917 0.3025
81.7500 5.5784 0.3039
81.7700 5.5650 0.3004
81.7900 5.5517 0.3019
81.8100 5.5384 0.2986
81.8300 5.5251 0.3002
81.8500 5.5117 0.2978
81.8700 5.4984 0.2984
81.8900 5.4851 0.2969
81.9100 5.4718 0.2971
81.9300 5.4585 0.2943
81.9500 5.4451 0.2961
81.9700 5.4317 0.2923
81.9900 5.4184 0.2942
82.0100 5.4051 0.2915
82.0300 5.3917 0.2913
82.0500 5.3784 0.2908
82.0700 5.3650 0.2894
82.0900 5.3517 0.2894
82.1100 5.3384 0.2881
82.1300 5.3250 0.2884
82.1500 5.3116 0.2863
82.1700 5.2983 0.2868
82.1900 5.2850 0.2852
82.2100 5.2717 0.2862
82.2300 5.2584 0.2835
82.2500 5.2451 0.2849
82.2700 5.2318 0.2818
82.2900 5.2185 0.2824
82.3100 5.2051 0.2815
82.3300 5.1918 0.2797
82.3500 5.1784 0.2804
82.3700 5.1651 0.2784
82.3900 5.1517 0.2789
82.4100 5.1383 0.2769
82.4300 5.1250 0.2775
82.4500 5.1117 0.2745
82.4700 5.0984 0.2760
82.4900 5.0850 0.2734
82.5100 5.0716 0.2740
82.5300 5.0583 0.2713
82.5500 5.0450 0.2726
82.5700 5.0317 0.2697
82.5900 5.0184 0.2714
82.6100 5.0051 0.2696
82.6300 4.9918 0.2695
82.6500 4.9785 0.2678
82.6700 4.9651 0.2688
82.6900 4.9517 0.2665
82.7100 4.9384 0.2666
82.7300 4.9251 0.2652
82.7500 4.9117 0.2649
82.7700 4.8983 0.2632
82.7900 4.8850 0.2639
82.8100 4.8717 0.2629
82.8300 4.8583 0.2617
82.8500 4.8450 0.2622
82.8700 4.8316 0.2595
82.8900 4.8183 0.2601
82.9100 4.8050 0.2575
82.9300 4.7917 0.2594
82.9500 4.7784 0.2550
82.9700 4.7650 0.2589
82.9900 4.7518 0.2530
83.0100 4.7385 0.2565
83.0300 4.7251 0.2535
83.0500 4.7118 0.2552
83.0700 4.6984 0.2519
83.0900 4.6851 0.2532
83.1100 4.6717 0.2503
83.1300 4.6583 0.2502
83.1500 4.6450 0.2498
83.1700 4.6316 0.2481
83.1900 4.6183 0.2476
83.2100 4.6050 0.2465
83.2300 4.5916 0.2466
83.2500 4.5784 0.2448
83.2700 4.5651 0.2463
83.2900 4.5517 0.2437
83.3100 4.5384 0.2439
83.3300 4.5251 0.2427
83.3500 4.5118 0.2417
83.3700 4.4985 0.2401
83.3900 4.4851 0.2405
83.4100 4.4717 0.2389
83.4300 4.4584 0.2378
83.4500 4.4451 0.2377
83.4700 4.4317 0.2390
83.4900 4.4184 0.2367
83.5100 4.4050 0.2386
83.5300 4.3917 0.2356
83.5500 4.3784 0.2346
83.5700 4.3650 0.2342
83.5900 4.3517 0.2328
83.6100 4.3383 0.2324
83.6300 4.3250 0.2306
83.6500 4.3117 0.2308
83.6700 4.2984 0.2281
83.6900 4.2850 0.2302
83.7100 4.2717 0.2259
83.7300 4.2584 0.2284
83.7500 4.2451 0.2250
83.7700 4.2317 0.2279
83.7900 4.2184 0.2223
83.8100 4.2051 0.2259
83.8300 4.1917 0.2215
83.8500 4.1784 0.2226
83.8700 4.1650 0.2215
83.8900 4.1517 0.2207
83.9100 4.1384 0.2193
83.9300 4.1250 0.2188
83.9500 4.1117 0.2200
83.9700 4.0983 0.2187
83.9900 4.0850 0.2187
84.0100 4.0717 0.2173
84.0300 4.0583 0.2171
84.0500 4.0450 0.2158
84.0700 4.0317 0.2154
84.0900 4.0184 0.2117
84.1100 4.0051 0.2138
84.1300 3.9917 0.2104
84.1500 3.9784 0.2116
84.1700 3.9651 0.2091
84.1900 3.9517 0.2099
84.2100 3.9384 0.2067
84.2300 3.9250 0.2092
84.2500 3.9117 0.2070
84.2700 3.8984 0.2078
84.2900 3.8850 0.2053
84.3100 3.8717 0.2066
84.3300 3.8583 0.2027
84.3500 3.8450 0.2042
84.3700 3.8317 0.2022
84.3900 3.8184 0.2015
84.4100 3.8050 0.2022
84.4300 3.7917 0.2002
84.4500 3.7784 0.2009
84.4700 3.7651 0.1984
84.4900 3.7517 0.1993
84.5100 3.7384 0.1954
84.5300 3.7251 0.1976
84.5500 3.7117 0.1942
84.5700 3.6984 0.1958
84.5900 3.6850 0.1952
84.6100 3.6716 0.1956
84.6300 3.6583 0.1925
84.6500 3.6450 0.1924
84.6700 3.6317 0.1919
84.6900 3.6183 0.1895
84.7100 3.6050 0.1907
84.7300 3.5917 0.1877
84.7500 3.5784 0.1892
84.7700 3.5651 0.1851
84.7900 3.5518 0.1872
84.8100 3.5385 0.1831
84.8300 3.5251 0.1855
84.8500 3.5117 0.1825
84.8700 3.4984 0.1853
84.8900 3.4850 0.1841
84.9100 3.4717 0.1856
84.9300 3.4583 0.1818
84.9500 3.4450 0.1827
84.9700 3.4317 0.1796
84.9900 3.4184 0.1794
85.0100 3.4050 0.1782
85.0300 3.3917 0.1775
85.0500 3.3783 0.1761
85.0700 3.3650 0.1751
85.0900 3.3517 0.1757
85.1100 3.3384 0.1735
85.1300 3.3251 0.1757
85.1500 3.3118 0.1729
85.1700 3.2984 0.1724
85.1900 3.2851 0.1702
85.2100 3.2717 0.1717
85.2300 3.2584 0.1669
85.2500 3.2451 0.1704
85.2700 3.2318 0.1660
85.2900 3.2184 0.1696
85.3100 3.2050 0.1673
85.3300 3.1917 0.1689
85.3500 3.1784 0.1648
85.3700 3.1650 0.1656
85.3900 3.1517 0.1643
85.4100 3.1383 0.1622
85.4300 3.1250 0.1624
85.4500 3.1118 0.1604
85.4700 3.0984 0.1607
85.4900 3.0851 0.1582
85.5100 3.0717 0.1608
85.5300 3.0584 0.1576
85.5500 3.0451 0.1592
85.5700 3.0317 0.1573
85.5900 3.0184 0.1580
85.6100 3.0050 0.1551
85.6300 2.9917 0.1558
85.6500 2.9784 0.1530
85.6700 2.9650 0.1531
85.6900 2.9517 0.1526
85.7100 2.9384 0.1505
85.7300 2.9251 0.1525
85.7500 2.9117 0.1504
85.7700 2.8984 0.1509
85.7900 2.8850 0.1492
85.8100 2.8717 0.1495
85.8300 2.8584 0.1472
85.8500 2.8450 0.1480
85.8700 2.8317 0.1467
85.8900 2.8184 0.1462
85.9100 2.8051 0.1440
85.9300 2.7918 0.1461
85.9500 2.7784 0.1417
85.9700 2.7651 0.1451
85.9900 2.7518 0.1404
86.0100 2.7384 0.1429
86.0300 2.7250 0.1381
86.0500 2.7117 0.1409
86.0700 2.6984 0.1371
86.0900 2.6850 0.1383
86.1100 2.6716 0.1369
86.1300 2.6583 0.1365
86.1500 2.6450 0.1345
86.1700 2.6317 0.1356
86.1900 2.6184 0.1331
86.2100 2.6051 0.1330
86.2300 2.5917 0.1341
86.2500 2.5784 0.1310
86.2700 2.5651 0.1326
86.2900 2.5517 0.1291
86.3100 2.5384 0.1309
86.3300 2.5251 0.1270
86.3500 2.5118 0.1287
86.3700 2.4984 0.1252
86.3900 2.4850 0.1265
86.4100 2.4717 0.1248
86.4300 2.4583 0.1247
86.4500 2.4450 0.1229
86.4700 2.4316 0.1234
86.4900 2.4183 0.1213
86.5100 2.4050 0.1212
86.5300 2.3917 0.1209
86.5500 2.3784 0.1190
86.5700 2.3651 0.1193
86.5900 2.3517 0.1174
86.6100 2.3385 0.1180
86.6300 2.3251 0.1153
86.6500 2.3118 0.1167
86.6700 2.2984 0.1133
86.6900 2.2851 0.1138
86.7100 2.2717 0.1127
86.7300 2.2584 0.1141
86.7500 2.2450 0.1120
86.7700 2.2317 0.1133
86.7900 2.2184 0.1094
86.8100 2.2050 0.1104
86.8300 2.1917 0.1075
86.8500 2.1783 0.1079
86.8700 2.1650 0.1059
86.8900 2.1517 0.1061
86.9100 2.1384 0.1060
86.9300 2.1250 0.1034
86.9500 2.1117 0.1056
86.9700 2.0984 0.1005
86.9900 2.0851 0.1031
87.0100 2.0717 0.0994
87.0300 2.0584 0.1015
87.0500 2.0451 0.0965
87.0700 2.0318 0.1009
87.0900 2.0184 0.0958
87.1100 2.0050 0.0989
87.1300 1.9917 0.0953
87.1500 1.9784 0.0958
87.1700 1.9651 0.0924
87.1900 1.9517 0.0931
87.2100 1.9383 0.0931
87.2300 1.9250 0.0928
87.2500 1.9117 0.0941
87.2700 1.8984 0.0903
87.2900 1.8850 0.0910
87.3100 1.8717 0.0889
87.3300 1.8584 0.0890
87.3500 1.8451 0.0867
87.3700 1.8317 0.0883
87.3900 1.8184 0.0865
87.4100 1.8051 0.0868
87.4300 1.7918 0.0847
87.4500 1.7784 0.0847
87.4700 1.7650 0.0822
87.4900 1.7517 0.0828
87.5100 1.7384 0.0809
87.5300 1.7250 0.0812
87.5500 1.7117 0.0800
87.5700 1.6983 0.0799
87.5900 1.6850 0.0768
87.6100 1.6717 0.0773
87.6300 1.6584 0.0750
87.6500 1.6450 0.0753
87.6700 1.6317 0.0768
87.6900 1.6184 0.0749
87.7100 1.6051 0.0736
87.7300 1.5918 0.0720
87.7500 1.5784 0.0736
87.7700 1.5651 0.0693
87.7900 1.5518 0.0726
87.8100 1.5384 0.0686
87.8300 1.5250 0.0696
87.8500 1.5117 0.0671
87.8700 1.4984 0.0677
87.8900 1.4851 0.0644
87.9100 1.4717 0.0650
87.9300 1.4583 0.0650
87.9500 1.4450 0.0630
87.9700 1.4317 0.0634
87.9900 1.4183 0.0611
88.0100 1.4050 0.0605
88.0300 1.3917 0.0591
88.0500 1.3784 0.0595
88.0700 1.3651 0.0572
88.0900 1.3518 0.0598
88.1100 1.3384 0.0583
88.1300 1.3251 0.0577
88.1500 1.3118 0.0574
88.1700 1.2984 0.0571
88.1900 1.2850 0.0545
88.2100 1.2717 0.0540
88.2300 1.2583 0.0521
88.2500 1.2450 0.0515
88.2700 1.2317 0.0517
88.2900 1.2183 0.0516
88.3100 1.2050 0.0478
88.3300 1.1917 0.0500
88.3500 1.1784 0.0458
88.3700 1.1651 0.0479
88.3900 1.1517 0.0465
88.4100 1.1384 0.0462
88.4300 1.1251 0.0436
88.4500 1.1118 0.0444
88.4700 1.0984 0.0429
88.4900 1.0851 0.0407
88.5100 1.0717 0.0413
88.5300 1.0584 0.0396
88.5500 1.0450 0.0396
88.5700 1.0316 0.0379
88.5900 1.0183 0.0379
88.6100 1.0050 0.0348
88.6300 0.9917 0.0373
88.6500 0.9783 0.0338
88.6700 0.9650 0.0340
88.6900 0.9517 0.0320
88.7100 0.9384 0.0318
88.7300 0.9251 0.0309
88.7500 0.9117 0.0298
88.7700 0.8984 0.0300
88.7900 0.8851 0.0264
88.8100 0.8718 0.0284
88.8300 0.8584 0.0252
88.8500 0.8450 0.0259
88.8700 0.8317 0.0231
88.8900 0.8184 0.0248
88.9100 0.8050 0.0206
88.9300 0.7916 0.0233
88.9500 0.7783 0.0194
88.9700 0.7650 0.0200
88.9900 0.7517 0.0173
89.0100 0.7384 0.0188
89.0300 0.7250 0.0157
89.0500 0.7117 0.0159
89.0700 0.6984 0.0154
89.0900 0.6851 0.0122
89.1100 0.6717 0.0145
89.1300 0.6584 0.0108
89.1500 0.6451 0.0113
89.1700 0.6318 0.0084
89.1900 0.6184 0.0107
89.2100 0.6050 0.0061
89.2300 0.5917 0.0087
89.2500 0.5784 0.0041
89.2700 0.5650 0.0068
89.2900 0.5517 0.0022
89.3100 0.5383 0.0061
89.3300 0.5250 -0.0006
89.3500 0.5117 0.0033
89.3700 0.4983 -0.0007
89.3900 0.4850 0.0021
89.4100 0.4717 0.0012
89.4300 0.4584 0.0024
89.4500 0.4450 -0.0020
89.4700 0.4317 -0.0011
89.4900 0.4184 -0.0023
89.5100 0.4051 -0.0054
89.5300 0.3918 -0.0049
89.5500 0.3784 -0.0077
89.5700 0.3651 -0.0065
89.5900 0.3518 -0.0113
89.6100 0.3384 -0.0077
89.6300 0.3250 -0.0139
89.6500 0.3117 -0.0105
89.6700 0.2983 -0.0145
89.6900 0.2850 -0.0143
89.7100 0.2717 -0.0154
89.7300 0.2583 -0.0158
89.7500 0.2450 -0.0178
89.7700 0.2317 -0.0183
89.7900 0.2184 -0.0178
89.8100 0.2050 -0.0202
89.8300 0.1917 -0.0190
89.8500 0.1784 -0.0214
89.8700 0.1651 -0.0218
89.8900 0.1518 -0.0237
89.9100 0.1384 -0.0219
89.9300 0.1250 -0.0254
89.9500 0.1117 -0.0242
89.9700 0.0984 -0.0264
89.9900 0.0850 -0.0260
90.0100 0.0716 -0.0276
90.0300 0.0583 -0.0261
90.0500 0.0450 -0.0299
90.0700 0.0317 -0.0277
90.0900 0.0183 -0.0296
90.1100 0.0050 -0.0282
90.1180 -0.0002 -0.0253
