Raw Data
Time Displacement Force
(s) (mm) (N)
0.0000 0.0000 -0.0022
0.0200 0.0001 0.0032
0.0400 0.0018 0.0130
0.0600 0.0089 0.0155
0.0800 0.0204 0.0051
0.1000 0.0327 0.0105
0.1200 0.0453 0.0106
0.1400 0.0587 0.0172
0.1600 0.0728 0.0181
0.1800 0.0871 0.0189
0.2000 0.1011 0.0225
0.2200 0.1147 0.0223
0.2400 0.1281 0.0275
0.2600 0.1414 0.0288
0.2800 0.1547 0.0323
0.3000 0.1680 0.0296
0.3200 0.1814 0.0363
0.3400 0.1948 0.0349
0.3600 0.2081 0.0399
0.3800 0.2214 0.0398
0.4000 0.2347 0.0441
0.4200 0.2481 0.0419
0.4400 0.2614 0.0479
0.4600 0.2747 0.0479
0.4800 0.2881 0.0496
0.5000 0.3014 0.0519
0.5200 0.3148 0.0538
0.5400 0.3282 0.0564
0.5600 0.3415 0.0577
0.5800 0.3548 0.0617
0.6000 0.3682 0.0595
0.6200 0.3815 0.0652
0.6400 0.3948 0.0644
0.6600 0.4081 0.0684
0.6800 0.4214 0.0681
0.7000 0.4347 0.0723
0.7200 0.4481 0.0713
0.7400 0.4614 0.0754
0.7600 0.4747 0.0768
0.7800 0.4881 0.0775
0.8000 0.5014 0.0810
0.8200 0.5148 0.0808
0.8400 0.5281 0.0843
0.8600 0.5415 0.0840
0.8800 0.5549 0.0895
0.9000 0.5682 0.0865
0.9200 0.5815 0.0929
0.9400 0.5948 0.0912
0.9600 0.6082 0.0950
0.9800 0.6215 0.0950
1.0000 0.6348 0.0994
1.0200 0.6480 0.0982
1.0400 0.6614 0.1021
1.0600 0.6747 0.1025
1.0800 0.6880 0.1046
1.1000 0.7014 0.1064
1.1200 0.7147 0.1080
1.1400 0.7280 0.1095
1.1600 0.7414 0.1108
1.1800 0.7547 0.1140
1.2000 0.7681 0.1135
1.2200 0.7815 0.1167
1.2400 0.7948 0.1174
1.2600 0.8081 0.1196
1.2800 0.8214 0.1211
1.3000 0.8348 0.1245
1.3200 0.8481 0.1228
1.3400 0.8615 0.1278
1.3600 0.8748 0.1271
1.3800 0.8881 0.1303
1.4000 0.9015 0.1304
1.4200 0.9148 0.1340
1.4400 0.9281 0.1325
1.4600 0.9414 0.1365
1.4800 0.9547 0.1382
1.5000 0.9680 0.1382
1.5200 0.9814 0.1417
1.5400 0.9947 0.1420
1.5600 1.0080 0.1447
1.5800 1.0214 0.1441
1.6000 1.0348 0.1485
1.6200 1.0482 0.1472
1.6400 1.0615 0.1515
1.6600 1.0748 0.1506
1.6800 1.0882 0.1538
1.7000 1.1015 0.1539
1.7200 1.1148 0.1580
1.7400 1.1281 0.1569
1.7600 1.1414 0.1605
1.7800 1.1548 0.1609
1.8000 1.1681 0.1623
1.8200 1.1814 0.1642
1.8400 1.1947 0.1663
1.8600 1.2080 0.1661
1.8800 1.2214 0.1686
1.9000 1.2347 0.1704
1.9200 1.2481 0.1710
1.9400 1.2615 0.1735
1.9600 1.2748 0.1737
1.9800 1.2882 0.1764
2.0000 1.3015 0.1762
2.0200 1.3148 0.1810
2.0400 1.3282 0.1783
2.0600 1.3415 0.1833
2.0800 1.3548 0.1820
2.1000 1.3681 0.1859
2.1200 1.3814 0.1844
2.1400 1.3948 0.1897
2.1600 1.4081 0.1869
2.1800 1.4214 0.1913
2.2000 1.4347 0.1914
2.2200 1.4480 0.1931
2.2400 1.4614 0.1935
2.2600 1.4747 0.1960
2.2800 1.4881 0.1972
2.3000 1.5014 0.1981
2.3200 1.5148 0.2012
2.3400 1.5282 0.1995
2.3600 1.5415 0.2041
2.3800 1.5548 0.2036
2.4000 1.5682 0.2065
2.4200 1.5815 0.2053
2.4400 1.5948 0.2100
2.4600 1.6081 0.2081
2.4800 1.6214 0.2114
2.5000 1.6347 0.2123
2.5200 1.6481 0.2141
2.5400 1.6613 0.2145
2.5600 1.6747 0.2167
2.5800 1.6880 0.2179
2.6000 1.7014 0.2177
2.6200 1.7148 0.2217
2.6400 1.7281 0.2199
2.6600 1.7414 0.2238
2.6800 1.7548 0.2228
2.7000 1.7682 0.2268
2.7200 1.7815 0.2241
2.7400 1.7948 0.2311
2.7600 1.8082 0.2276
2.7800 1.8215 0.2316
2.8000 1.8348 0.2320
2.8200 1.8481 0.2344
2.8400 1.8614 0.2343
2.8600 1.8748 0.2370
2.8800 1.8881 0.2368
2.9000 1.9014 0.2388
2.9200 1.9147 0.2412
2.9400 1.9281 0.2401
2.9600 1.9414 0.2437
2.9800 1.9548 0.2431
3.0000 1.9681 0.2471
3.0200 1.9814 0.2443
3.0400 1.9948 0.2496
3.0600 2.0082 0.2478
3.0800 2.0214 0.2509
3.1000 2.0347 0.2517
3.1200 2.0481 0.2537
3.1400 2.0615 0.2538
3.1600 2.0748 0.2556
3.1800 2.0881 0.2571
3.2000 2.1014 0.2578
3.2200 2.1148 0.2607
3.2400 2.1282 0.2588
3.2600 2.1415 0.2624
3.2800 2.1548 0.2614
3.3000 2.1681 0.2663
3.3200 2.1814 0.2626
3.3400 2.1948 0.2694
3.3600 2.2081 0.2664
3.3800 2.2214 0.2702
3.4000 2.2348 0.2698
3.4200 2.2482 0.2720
3.4400 2.2615 0.2722
3.4600 2.2748 0.2750
3.4800 2.2881 0.2751
3.5000 2.3015 0.2762
3.5200 2.3148 0.2785
3.5400 2.3281 0.2785
3.5600 2.3414 0.2810
3.5800 2.3548 0.2804
3.6000 2.3681 0.2841
3.6200 2.3814 0.2820
3.6400 2.3947 0.2870
3.6600 2.4080 0.2848
3.6800 2.4214 0.2881
3.7000 2.4347 0.2879
3.7200 2.4481 0.2905
3.7400 2.4614 0.2902
3.7600 2.4748 0.2928
3.7800 2.4882 0.2935
3.8000 2.5015 0.2936
3.8200 2.5149 0.2972
3.8400 2.5282 0.2958
3.8600 2.5415 0.2994
3.8800 2.5548 0.2978
3.9000 2.5681 0.3027
3.9200 2.5814 0.2993
3.9400 2.5947 0.3050
3.9600 2.6081 0.3005
3.9800 2.6214 0.3062
4.0000 2.6347 0.3046
4.0200 2.6480 0.3091
4.0400 2.6614 0.3067
4.0600 2.6748 0.3111
4.0800 2.6881 0.3090
4.1000 2.7015 0.3116
4.1200 2.7148 0.3131
4.1400 2.7282 0.3144
4.1600 2.7415 0.3148
4.1800 2.7548 0.3168
4.2000 2.7681 0.3182
4.2200 2.7815 0.3171
4.2400 2.7948 0.3214
4.2600 2.8081 0.3194
4.2800 2.8214 0.3234
4.3000 2.8348 0.3219
4.3200 2.8481 0.3255
4.3400 2.8614 0.3238
4.3600 2.8747 0.3285
4.3800 2.8880 0.3267
4.4000 2.9014 0.3288
4.4200 2.9148 0.3293
4.4400 2.9281 0.3314
4.4600 2.9414 0.3318
4.4800 2.9548 0.3336
4.5000 2.9682 0.3349
4.5200 2.9815 0.3342
4.5400 2.9948 0.3386
4.5600 3.0081 0.3363
4.5800 3.0215 0.3406
4.6000 3.0348 0.3383
4.6200 3.0481 0.3436
4.6400 3.0614 0.3396
4.6600 3.0748 0.3450
4.6800 3.0881 0.3429
4.7000 3.1014 0.3450
4.7200 3.1147 0.3463
4.7400 3.1281 0.3477
4.7600 3.1414 0.3480
4.7800 3.1548 0.3493
4.8000 3.1681 0.3520
4.8200 3.1814 0.3502
4.8400 3.1948 0.3545
4.8600 3.2082 0.3526
4.8800 3.2215 0.3562
4.9000 3.2348 0.3549
4.9200 3.2481 0.3592
4.9400 3.2614 0.3562
4.9600 3.2748 0.3605
4.9800 3.2881 0.3597
5.0000 3.3014 0.3627
5.0200 3.3147 0.3617
5.0400 3.3281 0.3644
5.0600 3.3414 0.3639
5.0800 3.3548 0.3663
5.1000 3.3681 0.3668
5.1200 3.3814 0.3675
5.1400 3.3948 0.3687
5.1600 3.4081 0.3696
5.1800 3.4214 0.3704
5.2000 3.4348 0.3719
5.2200 3.4481 0.3742
5.2400 3.4615 0.3718
5.2600 3.4748 0.3765
5.2800 3.4881 0.3744
5.3000 3.5015 0.3790
5.3200 3.5149 0.3753
5.3400 3.5282 0.3823
5.3600 3.5415 0.3771
5.3800 3.5548 0.3846
5.4000 3.5681 0.3796
5.4200 3.5814 0.3858
5.4400 3.5947 0.3819
5.4600 3.6081 0.3864
5.4800 3.6214 0.3837
5.5000 3.6347 0.3874
5.5200 3.6480 0.3885
5.5400 3.6614 0.3877
5.5600 3.6748 0.3916
5.5800 3.6882 0.3892
5.6000 3.7015 0.3941
5.6200 3.7148 0.3907
5.6400 3.7281 0.3974
5.6600 3.7415 0.3921
5.6800 3.7549 0.3986
5.7000 3.7682 0.3955
5.7200 3.7814 0.3992
5.7400 3.7948 0.3983
5.7600 3.8081 0.4015
5.7800 3.8214 0.3995
5.8000 3.8347 0.4032
5.8200 3.8480 0.4032
5.8400 3.8614 0.4038
5.8600 3.8747 0.4060
5.8800 3.8881 0.4046
5.9000 3.9014 0.4084
5.9200 3.9148 0.4063
5.9400 3.9282 0.4104
5.9600 3.9415 0.4081
5.9800 3.9548 0.4125
6.0000 3.9681 0.4110
6.0200 3.9815 0.4141
6.0400 3.9948 0.4121
6.0600 4.0081 0.4173
6.0800 4.0214 0.4135
6.1000 4.0347 0.4193
6.1200 4.0481 0.4168
6.1400 4.0614 0.4199
6.1600 4.0747 0.4185
6.1800 4.0880 0.4221
6.2000 4.1014 0.4215
6.2200 4.1148 0.4229
6.2400 4.1281 0.4247
6.2600 4.1415 0.4234
6.2800 4.1548 0.4269
6.3000 4.1682 0.4255
6.3200 4.1815 0.4290
6.3400 4.1948 0.4262
6.3600 4.2081 0.4317
6.3800 4.2214 0.4269
6.4000 4.2348 0.4332
6.4200 4.2481 0.4302
6.4400 4.2614 0.4351
6.4600 4.2748 0.4327
6.4800 4.2881 0.4364
6.5000 4.3015 0.4350
6.5200 4.3147 0.4366
6.5400 4.3280 0.4401
6.5600 4.3414 0.4372
6.5800 4.3547 0.4410
6.6000 4.3681 0.4399
6.6200 4.3814 0.4433
6.6400 4.3948 0.4411
6.6600 4.4081 0.4454
6.6800 4.4215 0.4430
6.7000 4.4348 0.4467
6.7200 4.4481 0.4454
6.7400 4.4615 0.4483
6.7600 4.4749 0.4473
6.7800 4.4882 0.4501
6.8000 4.5015 0.4496
6.8200 4.5148 0.4506
6.8400 4.5281 0.4531
6.8600 4.5414 0.4513
6.8800 4.5547 0.4550
6.9000 4.5680 0.4535
6.9200 4.5814 0.4570
6.9400 4.5947 0.4540
6.9600 4.6081 0.4600
6.9800 4.6214 0.4558
7.0000 4.6347 0.4615
7.0200 4.6481 0.4577
7.0400 4.6615 0.4627
7.0600 4.6748 0.4599
7.0800 4.6882 0.4650
7.1000 4.7015 0.4618
7.1200 4.7148 0.4652
7.1400 4.7282 0.4655
7.1600 4.7415 0.4667
7.1800 4.7548 0.4671
7.2000 4.7681 0.4677
7.2200 4.7815 0.4705
7.2400 4.7947 0.4679
7.2600 4.8080 0.4735
7.2800 4.8214 0.4697
7.3000 4.8348 0.4740
7.3200 4.8481 0.4720
7.3400 4.8614 0.4747
7.3600 4.8747 0.4724
7.3800 4.8881 0.4767
7.4000 4.9015 0.4751
7.4200 4.9148 0.4779
7.4400 4.9281 0.4785
7.4600 4.9415 0.4794
7.4800 4.9549 0.4796
7.5000 4.9682 0.4814
7.5200 4.9815 0.4835
7.5400 4.9948 0.4813
7.5600 5.0081 0.4860
7.5800 5.0215 0.4829
7.6000 5.0347 0.4879
7.6200 5.0480 0.4856
7.6400 5.0614 0.4898
7.6600 5.0747 0.4863
7.6800 5.0881 0.4918
7.7000 5.1014 0.4881
7.7200 5.1148 0.4926
7.7400 5.1282 0.4906
7.7600 5.1415 0.4938
7.7800 5.1548 0.4928
7.8000 5.1681 0.4951
7.8200 5.1815 0.4961
7.8400 5.1948 0.4949
7.8600 5.2082 0.4991
7.8800 5.2214 0.4965
7.9000 5.2347 0.5007
7.9200 5.2480 0.4979
7.9400 5.2614 0.5023
7.9600 5.2747 0.4998
7.9800 5.2880 0.5044
8.0000 5.3014 0.5020
8.0200 5.3148 0.5052
8.0400 5.3281 0.5037
8.0600 5.3414 0.5069
8.0800 5.3548 0.5044
8.1000 5.3682 0.5085
8.1200 5.3815 0.5083
8.1400 5.3948 0.5082
8.1600 5.4081 0.5110
8.1800 5.4215 0.5100
8.2000 5.4348 0.5116
8.2200 5.4481 0.5119
8.2400 5.4614 0.5141
8.2600 5.4747 0.5130
8.2800 5.4881 0.5157
8.3000 5.5014 0.5148
8.3200 5.5147 0.5172
8.3400 5.5280 0.5163
8.3600 5.5414 0.5182
8.3800 5.5547 0.5163
8.4000 5.5681 0.5202
8.4200 5.5814 0.5194
8.4400 5.5948 0.5201
8.4600 5.6081 0.5225
8.4800 5.6215 0.5221
8.5000 5.6348 0.5244
8.5200 5.6481 0.5242
8.5400 5.6614 0.5261
8.5600 5.6748 0.5246
8.5800 5.6882 0.5282
8.6000 5.7015 0.5267
8.6200 5.7148 0.5294
8.6400 5.7282 0.5281
8.6600 5.7415 0.5312
8.6800 5.7548 0.5291
8.7000 5.7681 0.5340
8.7200 5.7814 0.5318
8.7400 5.7947 0.5333
8.7600 5.8081 0.5345
8.7800 5.8214 0.5344
8.8000 5.8347 0.5358
8.8200 5.8481 0.5362
8.8400 5.8615 0.5376
8.8600 5.8749 0.5365
8.8800 5.8882 0.5401
8.9000 5.9015 0.5391
8.9200 5.9149 0.5408
8.9400 5.9282 0.5407
8.9600 5.9415 0.5430
8.9800 5.9548 0.5420
9.0000 5.9681 0.5450
9.0200 5.9814 0.5439
9.0400 5.9947 0.5459
9.0600 6.0080 0.5461
9.0800 6.0213 0.5478
9.1000 6.0347 0.5476
9.1200 6.0481 0.5493
9.1400 6.0614 0.5500
9.1600 6.0748 0.5494
9.1800 6.0881 0.5521
9.2000 6.1015 0.5507
9.2200 6.1148 0.5540
9.2400 6.1281 0.5525
9.2600 6.1415 0.5560
9.2800 6.1548 0.5530
9.3000 6.1682 0.5582
9.3200 6.1815 0.5546
9.3400 6.1948 0.5590
9.3600 6.2081 0.5573
9.3800 6.2214 0.5612
9.4000 6.2347 0.5579
9.4200 6.2480 0.5617
9.4400 6.2614 0.5608
9.4600 6.2747 0.5619
9.4800 6.2881 0.5631
9.5000 6.3014 0.5637
9.5200 6.3147 0.5645
9.5400 6.3281 0.5645
9.5600 6.3415 0.5669
9.5800 6.3549 0.5653
9.6000 6.3682 0.5691
9.6200 6.3815 0.5668
9.6400 6.3948 0.5698
9.6600 6.4082 0.5685
9.6800 6.4215 0.5720
9.7000 6.4348 0.5699
9.7200 6.4481 0.5730
9.7400 6.4614 0.5720
9.7600 6.4747 0.5723
9.7800 6.4880 0.5728
9.8000 6.5013 0.5735
9.8200 6.5147 0.5753
9.8400 6.5281 0.5746
9.8600 6.5414 0.5779
9.8800 6.5548 0.5768
9.9000 6.5681 0.5787
9.9200 6.5815 0.5791
9.9400 6.5949 0.5801
9.9600 6.6082 0.5803
9.9800 6.6215 0.5827
10.0000 6.6348 0.5807
10.0200 6.6482 0.5845
10.0400 6.6615 0.5829
10.0600 6.6748 0.5864
10.0800 6.6881 0.5839
10.1000 6.7015 0.5879
10.1200 6.7148 0.5850
10.1400 6.7281 0.5892
10.1600 6.7414 0.5873
10.1800 6.7548 0.5904
10.2000 6.7681 0.5884
10.2200 6.7814 0.5915
10.2400 6.7947 0.5908
10.2600 6.8081 0.5916
10.2800 6.8215 0.5936
10.3000 6.8348 0.5920
10.3200 6.8481 0.5967
10.3400 6.8614 0.5932
10.3600 6.8748 0.5975
10.3800 6.8882 0.5949
10.4000 6.9015 0.5986
10.4200 6.9148 0.5976
10.4400 6.9281 0.5983
10.4600 6.9414 0.6007
10.4800 6.9548 0.5991
10.5000 6.9681 0.6020
10.5200 6.9814 0.6011
10.5400 6.9947 0.6035
10.5600 7.0081 0.6019
10.5800 7.0214 0.6050
10.6000 7.0347 0.6036
10.6200 7.0481 0.6065
10.6400 7.0615 0.6051
10.6600 7.0748 0.6073
10.6800 7.0881 0.6074
10.7000 7.1014 0.6095
10.7200 7.1148 0.6089
10.7400 7.1282 0.6107
10.7600 7.1415 0.6109
10.7800 7.1548 0.6119
10.8000 7.1681 0.6122
10.8200 7.1815 0.6131
10.8400 7.1948 0.6114
10.8600 7.2081 0.6144
10.8800 7.2214 0.6138
10.9000 7.2347 0.6150
10.9200 7.2481 0.6155
10.9400 7.2614 0.6165
10.9600 7.2747 0.6182
10.9800 7.2881 0.6172
11.0000 7.3015 0.6206
11.0200 7.3149 0.6190
11.0400 7.3282 0.6214
11.0600 7.3415 0.6214
11.0800 7.3549 0.6232
11.1000 7.3682 0.6219
11.1200 7.3815 0.6251
11.1400 7.3947 0.6235
11.1600 7.4081 0.6261
11.1800 7.4214 0.6261
11.2000 7.4347 0.6262
11.2200 7.4480 0.6276
11.2400 7.4614 0.6269
11.2600 7.4747 0.6298
11.2800 7.4881 0.6276
11.3000 7.5015 0.6320
11.3200 7.5148 0.6290
11.3400 7.5282 0.6332
11.3600 7.5415 0.6305
11.3800 7.5549 0.6345
11.4000 7.5682 0.6316
11.4200 7.5815 0.6355
11.4400 7.5948 0.6345
11.4600 7.6082 0.6351
11.4800 7.6215 0.6368
11.5000 7.6348 0.6367
11.5200 7.6481 0.6381
11.5400 7.6614 0.6383
11.5600 7.6748 0.6397
11.5800 7.6881 0.6393
11.6000 7.7014 0.6419
11.6200 7.7147 0.6402
11.6400 7.7281 0.6423
11.6600 7.7414 0.6422
11.6800 7.7548 0.6439
11.7000 7.7681 0.6427
11.7200 7.7815 0.6461
11.7400 7.7948 0.6443
11.7600 7.8081 0.6467
11.7800 7.8215 0.6461
11.8000 7.8348 0.6487
11.8200 7.8482 0.6469
11.8400 7.8615 0.6502
11.8600 7.8748 0.6491
11.8800 7.8881 0.6511
11.9000 7.9014 0.6511
11.9200 7.9148 0.6521
11.9400 7.9281 0.6531
11.9600 7.9414 0.6530
11.9800 7.9547 0.6561
12.0000 7.9681 0.6525
12.0200 7.9815 0.6582
12.0400 7.9948 0.6545
12.0600 8.0081 0.6581
12.0800 8.0215 0.6565
12.1000 8.0348 0.6597
12.1200 8.0481 0.6575
12.1400 8.0614 0.6609
12.1600 8.0748 0.6597
12.1800 8.0881 0.6612
12.2000 8.1015 0.6624
12.2200 8.1148 0.6617
12.2400 8.1281 0.6640
12.2600 8.1415 0.6619
12.2800 8.1548 0.6654
12.3000 8.1681 0.6619
12.3200 8.1814 0.6669
12.3400 8.1947 0.6641
12.3600 8.2081 0.6678
12.3800 8.2214 0.6659
12.4000 8.2347 0.6694
12.4200 8.2481 0.6675
12.4400 8.2615 0.6711
12.4600 8.2748 0.6689
12.4800 8.2881 0.6715
12.5000 8.3015 0.6716
12.5200 8.3148 0.6734
12.5400 8.3282 0.6722
12.5600 8.3415 0.6740
12.5800 8.3548 0.6750
12.6000 8.3681 0.6749
12.6200 8.3815 0.6763
12.6400 8.3948 0.6763
12.6600 8.4081 0.6776
12.6800 8.4214 0.6771
12.7000 8.4347 0.6795
12.7200 8.4481 0.6782
12.7400 8.4614 0.6813
12.7600 8.4747 0.6788
12.7800 8.4881 0.6823
12.8000 8.5015 0.6801
12.8200 8.5148 0.6847
12.8400 8.5281 0.6814
12.8600 8.5414 0.6849
12.8800 8.5548 0.6835
12.9000 8.5682 0.6852
12.9200 8.5815 0.6865
12.9400 8.5948 0.6860
12.9600 8.6081 0.6886
12.9800 8.6214 0.6865
13.0000 8.6348 0.6903
13.0200 8.6481 0.6872
13.0400 8.6614 0.6926
13.0600 8.6747 0.6882
13.0800 8.6881 0.6930
13.1000 8.7014 0.6904
13.1200 8.7147 0.6949
13.1400 8.7281 0.6913
13.1600 8.7415 0.6958
13.1800 8.7548 0.6935
13.2000 8.7682 0.6962
13.2200 8.7815 0.6959
13.2400 8.7948 0.6977
13.2600 8.8081 0.6968
13.2800 8.8215 0.6980
13.3000 8.8348 0.6994
13.3200 8.8481 0.6977
13.3400 8.8614 0.6993
13.3600 8.8748 0.6992
13.3800 8.8881 0.7016
13.4000 8.9014 0.7004
13.4200 8.9147 0.7042
13.4400 8.9281 0.7009
13.4600 8.9415 0.7054
13.4800 8.9548 0.7030
13.5000 8.9681 0.7065
13.5200 8.9815 0.7045
13.5400 8.9948 0.7076
13.5600 9.0081 0.7064
13.5800 9.0214 0.7090
13.6000 9.0348 0.7084
13.6200 9.0481 0.7095
13.6400 9.0615 0.7103
13.6600 9.0748 0.7108
13.6800 9.0881 0.7119
13.7000 9.1015 0.7109
13.7200 9.1148 0.7138
13.7400 9.1281 0.7113
13.7600 9.1414 0.7157
13.7800 9.1547 0.7128
13.8000 9.1681 0.7171
13.8200 9.1814 0.7135
13.8400 9.1947 0.7192
13.8600 9.2081 0.7160
13.8800 9.2214 0.7193
13.9000 9.2348 0.7173
13.9200 9.2481 0.7197
13.9400 9.2615 0.7196
13.9600 9.2748 0.7209
13.9800 9.2882 0.7214
14.0000 9.3015 0.7204
14.0200 9.3148 0.7244
14.0400 9.3281 0.7212
14.0600 9.3415 0.7262
14.0800 9.3548 0.7222
14.1000 9.3681 0.7274
14.1200 9.3814 0.7236
14.1400 9.3947 0.7286
14.1600 9.4081 0.7256
14.1800 9.4214 0.7292
14.2000 9.4347 0.7282
14.2200 9.4481 0.7294
14.2400 9.4614 0.7302
14.2600 9.4748 0.7289
14.2800 9.4882 0.7308
14.3000 9.5015 0.7294
14.3200 9.5148 0.7333
14.3400 9.5281 0.7306
14.3600 9.5415 0.7339
14.3800 9.5548 0.7325
14.4000 9.5681 0.7361
14.4200 9.5815 0.7338
14.4400 9.5948 0.7378
14.4600 9.6081 0.7347
14.4800 9.6214 0.7387
14.5000 9.6347 0.7377
14.5200 9.6481 0.7392
14.5400 9.6614 0.7381
14.5600 9.6747 0.7408
14.5800 9.6880 0.7409
14.6000 9.7014 0.7405
14.6200 9.7148 0.7425
14.6400 9.7281 0.7419
14.6600 9.7415 0.7439
14.6800 9.7548 0.7434
14.7000 9.7682 0.7454
14.7200 9.7815 0.7425
14.7400 9.7948 0.7478
14.7600 9.8081 0.7437
14.7800 9.8214 0.7491
14.8000 9.8348 0.7455
14.8200 9.8481 0.7497
14.8400 9.8614 0.7474
14.8600 9.8747 0.7505
14.8800 9.8880 0.7499
14.9000 9.9014 0.7502
14.9200 9.9147 0.7514
14.9400 9.9281 0.7513
14.9600 9.9415 0.7530
14.9800 9.9549 0.7522
15.0000 9.9682 0.7553
15.0200 9.9815 0.7521
15.0400 9.9948 0.7579
15.0600 10.0082 0.7536
15.0800 10.0215 0.7584
15.1000 10.0348 0.7556
15.1200 10.0481 0.7598
15.1400 10.0614 0.7575
15.1600 10.0747 0.7600
15.1800 10.0881 0.7602
15.2000 10.1014 0.7605
15.2200 10.1147 0.7622
15.2400 10.1281 0.7618
15.2600 10.1414 0.7634
15.2800 10.1548 0.7630
15.3000 10.1681 0.7655
15.3200 10.1815 0.7627
15.3400 10.1948 0.7673
15.3600 10.2082 0.7646
15.3800 10.2215 0.7686
15.4000 10.2348 0.7661
15.4200 10.2482 0.7694
15.4400 10.2615 0.7668
15.4600 10.2748 0.7699
15.4800 10.2881 0.7683
15.5000 10.3014 0.7712
15.5200 10.3148 0.7701
15.5400 10.3281 0.7716
15.5600 10.3414 0.7711
15.5800 10.3547 0.7734
15.6000 10.3681 0.7730
15.6200 10.3814 0.7723
15.6400 10.3947 0.7750
15.6600 10.4081 0.7730
15.6800 10.4214 0.7765
15.7000 10.4348 0.7739
15.7200 10.4482 0.7789
15.7400 10.4615 0.7751
15.7600 10.4748 0.7800
15.7800 10.4881 0.7765
15.8000 10.5015 0.7802
15.8200 10.5148 0.7781
15.8400 10.5281 0.7821
15.8600 10.5415 0.7799
15.8800 10.5548 0.7821
15.9000 10.5682 0.7828
15.9200 10.5814 0.7823
15.9400 10.5947 0.7838
15.9600 10.6080 0.7815
15.9800 10.6214 0.7843
16.0000 10.6347 0.7822
16.0200 10.6481 0.7878
16.0400 10.6614 0.7831
16.0600 10.6748 0.7889
16.0800 10.6882 0.7849
16.1000 10.7015 0.7891
16.1200 10.7148 0.7876
16.1400 10.7282 0.7912
16.1600 10.7415 0.7884
16.1800 10.7548 0.7918
16.2000 10.7681 0.7903
16.2200 10.7814 0.7928
16.2400 10.7948 0.7922
16.2600 10.8081 0.7942
16.2800 10.8214 0.7928
16.3000 10.8347 0.7943
16.3200 10.8480 0.7955
16.3400 10.8614 0.7950
16.3600 10.8747 0.7967
16.3800 10.8881 0.7961
16.4000 10.9014 0.7985
16.4200 10.9148 0.7967
16.4400 10.9282 0.8002
16.4600 10.9415 0.7972
16.4800 10.9548 0.8018
16.5000 10.9682 0.7994
16.5200 10.9815 0.8020
16.5400 10.9948 0.8010
16.5600 11.0081 0.8040
16.5800 11.0214 0.8025
16.6000 11.0348 0.8038
16.6200 11.0481 0.8048
16.6400 11.0614 0.8039
16.6600 11.0747 0.8064
16.6800 11.0881 0.8051
16.7000 11.1014 0.8082
16.7200 11.1148 0.8058
16.7400 11.1281 0.8099
16.7600 11.1414 0.8075
16.7800 11.1548 0.8111
16.8000 11.1682 0.8093
16.8200 11.1815 0.8099
16.8400 11.1948 0.8092
16.8600 11.2082 0.8115
16.8800 11.2215 0.8109
16.9000 11.2348 0.8126
16.9200 11.2481 0.8138
16.9400 11.2614 0.8136
16.9600 11.2748 0.8154
16.9800 11.2881 0.8142
17.0000 11.3014 0.8172
17.0200 11.3147 0.8154
17.0400 11.3280 0.8190
17.0600 11.3414 0.8163
17.0800 11.3548 0.8191
17.1000 11.3681 0.8185
17.1200 11.3815 0.8207
17.1400 11.3948 0.8195
17.1600 11.4082 0.8218
17.1800 11.4215 0.8204
17.2000 11.4348 0.8228
17.2200 11.4481 0.8218
17.2400 11.4615 0.8235
17.2600 11.4748 0.8230
17.2800 11.4881 0.8248
17.3000 11.5014 0.8249
17.3200 11.5148 0.8249
17.3400 11.5281 0.8273
17.3600 11.5414 0.8256
17.3800 11.5548 0.8278
17.4000 11.5681 0.8275
17.4200 11.5814 0.8289
17.4400 11.5948 0.8270
17.4600 11.6081 0.8305
17.4800 11.6214 0.8285
17.5000 11.6348 0.8312
17.5200 11.6482 0.8301
17.5400 11.6614 0.8321
17.5600 11.6747 0.8319
17.5800 11.6881 0.8337
17.6000 11.7015 0.8336
17.6200 11.7148 0.8324
17.6400 11.7281 0.8368
17.6600 11.7414 0.8332
17.6800 11.7548 0.8380
17.7000 11.7681 0.8348
17.7200 11.7814 0.8390
17.7400 11.7947 0.8366
17.7600 11.8080 0.8397
17.7800 11.8214 0.8366
17.8000 11.8347 0.8401
17.8200 11.8481 0.8382
17.8400 11.8614 0.8416
17.8600 11.8748 0.8398
17.8800 11.8881 0.8435
17.9000 11.9015 0.8416
17.9200 11.9148 0.8435
17.9400 11.9281 0.8441
17.9600 11.9415 0.8445
17.9800 11.9548 0.8452
18.0000 11.9681 0.8463
18.0200 11.9814 0.8465
18.0400 11.9948 0.8469
18.0600 12.0081 0.8493
18.0800 12.0214 0.8476
18.1000 12.0347 0.8496
18.1200 12.0480 0.8495
18.1400 12.0614 0.8516
18.1600 12.0747 0.8494
18.1800 12.0880 0.8531
18.2000 12.1014 0.8513
18.2200 12.1148 0.8533
18.2400 12.1282 0.8532
18.2600 12.1415 0.8543
18.2800 12.1549 0.8543
18.3000 12.1682 0.8549
18.3200 12.1816 0.8565
18.3400 12.1949 0.8546
18.3600 12.2081 0.8592
18.3800 12.2214 0.8561
18.4000 12.2347 0.8599
18.4200 12.2481 0.8568
18.4400 12.2614 0.8617
18.4600 12.2747 0.8576
18.4800 12.2880 0.8631
18.5000 12.3014 0.8589
18.5200 12.3148 0.8628
18.5400 12.3281 0.8611
18.5600 12.3414 0.8639
18.5800 12.3548 0.8629
18.6000 12.3682 0.8648
18.6200 12.3815 0.8645
18.6400 12.3948 0.8642
18.6600 12.4081 0.8670
18.6800 12.4215 0.8657
18.7000 12.4348 0.8677
18.7200 12.4481 0.8668
18.7400 12.4614 0.8693
18.7600 12.4748 0.8671
18.7800 12.4881 0.8716
18.8000 12.5014 0.8683
18.8200 12.5147 0.8721
18.8400 12.5280 0.8701
18.8600 12.5414 0.8736
18.8800 12.5548 0.8703
18.9000 12.5681 0.8748
18.9200 12.5814 0.8741
18.9400 12.5948 0.8733
18.9600 12.6082 0.8751
18.9800 12.6215 0.8730
19.0000 12.6348 0.8759
19.0200 12.6481 0.8749
19.0400 12.6615 0.8781
19.0600 12.6748 0.8756
19.0800 12.6881 0.8793
19.1000 12.7014 0.8778
19.1200 12.7147 0.8805
19.1400 12.7281 0.8788
19.1600 12.7414 0.8822
19.1800 12.7547 0.8795
19.2000 12.7680 0.8833
19.2200 12.7814 0.8821
19.2400 12.7948 0.8834
19.2600 12.8081 0.8839
19.2800 12.8214 0.8841
19.3000 12.8348 0.8850
19.3200 12.8482 0.8848
19.3400 12.8615 0.8867
19.3600 12.8748 0.8854
19.3800 12.8881 0.8885
19.4000 12.9015 0.8876
19.4200 12.9148 0.8889
19.4400 12.9281 0.8886
19.4600 12.9414 0.8915
19.4800 12.9547 0.8886
19.5000 12.9681 0.8934
19.5200 12.9814 0.8904
19.5400 12.9948 0.8943
19.5600 13.0081 0.8922
19.5800 13.0214 0.8952
19.6000 13.0348 0.8935
19.6200 13.0481 0.8960
19.6400 13.0614 0.8961
19.6600 13.0748 0.8959
19.6800 13.0882 0.8975
19.7000 13.1015 0.8971
19.7200 13.1148 0.8989
19.7400 13.1281 0.8982
19.7600 13.1415 0.9011
19.7800 13.1549 0.8973
19.8000 13.1682 0.9027
19.8200 13.1815 0.8997
19.8400 13.1948 0.9030
19.8600 13.2081 0.9012
19.8800 13.2214 0.9035
19.9000 13.2347 0.9014
19.9200 13.2481 0.9027
19.9400 13.2614 0.9040
19.9600 13.2747 0.9027
19.9800 13.2880 0.9060
20.0000 13.3013 0.9055
20.0200 13.3147 0.9072
20.0400 13.3282 0.9065
20.0600 13.3415 0.9086
20.0800 13.3548 0.9073
20.1000 13.3681 0.9114
20.1200 13.3815 0.9088
20.1400 13.3949 0.9119
20.1600 13.4082 0.9098
20.1800 13.4215 0.9142
20.2000 13.4348 0.9109
20.2200 13.4481 0.9147
20.2400 13.4614 0.9132
20.2600 13.4747 0.9151
20.2800 13.4880 0.9139
20.3000 13.5014 0.9176
20.3200 13.5147 0.9147
20.3400 13.5280 0.9172
20.3600 13.5414 0.9172
20.3800 13.5547 0.9177
20.4000 13.5681 0.9190
20.4200 13.5815 0.9182
20.4400 13.5948 0.9206
20.4600 13.6081 0.9188
20.4800 13.6215 0.9232
20.5000 13.6349 0.9190
20.5200 13.6482 0.9239
20.5400 13.6614 0.9216
20.5600 13.6747 0.9241
20.5800 13.6881 0.9225
20.6000 13.7014 0.9260
20.6200 13.7147 0.9239
20.6400 13.7281 0.9263
20.6600 13.7414 0.9267
20.6800 13.7548 0.9256
20.7000 13.7681 0.9268
20.7200 13.7815 0.9254
20.7400 13.7948 0.9280
20.7600 13.8082 0.9264
20.7800 13.8215 0.9309
20.8000 13.8348 0.9273
20.8200 13.8481 0.9326
20.8400 13.8614 0.9298
20.8600 13.8748 0.9329
20.8800 13.8881 0.9309
20.9000 13.9015 0.9357
20.9200 13.9148 0.9321
20.9400 13.9281 0.9358
20.9600 13.9415 0.9345
20.9800 13.9548 0.9368
21.0000 13.9681 0.9357
21.0200 13.9814 0.9388
21.0400 13.9948 0.9374
21.0600 14.0081 0.9396
21.0800 14.0214 0.9392
21.1000 14.0347 0.9401
21.1200 14.0481 0.9411
21.1400 14.0615 0.9414
21.1600 14.0748 0.9424
21.1800 14.0881 0.9416
21.2000 14.1015 0.9445
21.2200 14.1149 0.9432
21.2400 14.1282 0.9456
21.2600 14.1414 0.9450
21.2800 14.1548 0.9469
21.3000 14.1681 0.9454
21.3200 14.1814 0.9480
21.3400 14.1948 0.9473
21.3600 14.2081 0.9482
21.3800 14.2214 0.9496
21.4000 14.2347 0.9491
21.4200 14.2481 0.9509
21.4400 14.2614 0.9504
21.4600 14.2747 0.9525
21.4800 14.2881 0.9501
21.5000 14.3015 0.9546
21.5200 14.3148 0.9516
21.5400 14.3281 0.9544
21.5600 14.3415 0.9538
21.5800 14.3548 0.9553
21.6000 14.3682 0.9550
21.6200 14.3815 0.9576
21.6400 14.3948 0.9568
21.6600 14.4081 0.9581
21.6800 14.4215 0.9580
21.7000 14.4348 0.9577
21.7200 14.4481 0.9582
21.7400 14.4614 0.9584
21.7600 14.4747 0.9604
21.7800 14.4881 0.9589
21.8000 14.5014 0.9625
21.8200 14.5147 0.9606
21.8400 14.5281 0.9634
21.8600 14.5415 0.9630
21.8800 14.5548 0.9646
21.9000 14.5681 0.9630
21.9200 14.5815 0.9671
21.9400 14.5949 0.9644
21.9600 14.6082 0.9679
21.9800 14.6215 0.9659
22.0000 14.6348 0.9694
22.0200 14.6481 0.9671
22.0400 14.6615 0.9703
22.0600 14.6748 0.9696
22.0800 14.6881 0.9700
22.1000 14.7014 0.9719
22.1200 14.7148 0.9702
22.1400 14.7281 0.9725
22.1600 14.7414 0.9723
22.1800 14.7548 0.9741
22.2000 14.7681 0.9720
22.2200 14.7815 0.9758
22.2400 14.7948 0.9731
22.2600 14.8081 0.9770
22.2800 14.8215 0.9744
22.3000 14.8348 0.9786
22.3200 14.8482 0.9761
22.3400 14.8615 0.9792
22.3600 14.8748 0.9782
22.3800 14.8881 0.9791
22.4000 14.9014 0.9808
22.4200 14.9147 0.9801
22.4400 14.9281 0.9817
22.4600 14.9414 0.9816
22.4800 14.9547 0.9835
22.5000 14.9681 0.9819
22.5200 14.9814 0.9858
22.5400 14.9948 0.9827
22.5600 15.0082 0.9857
22.5800 15.0215 0.9822
22.6000 15.0348 0.9875
22.6200 15.0481 0.9839
22.6400 15.0615 0.9891
22.6600 15.0748 0.9859
22.6800 15.0882 0.9899
22.7000 15.1015 0.9889
22.7200 15.1147 0.9913
22.7400 15.1281 0.9895
22.7600 15.1414 0.9925
22.7800 15.1547 0.9924
22.8000 15.1681 0.9925
22.8200 15.1814 0.9946
22.8400 15.1947 0.9936
22.8600 15.2081 0.9954
22.8800 15.2214 0.9953
22.9000 15.2347 0.9979
22.9200 15.2481 0.9955
22.9400 15.2615 0.9991
22.9600 15.2748 0.9964
22.9800 15.2881 1.0000
23.0000 15.3014 0.9982
23.0200 15.3148 1.0014
23.0400 15.3281 0.9995
23.0600 15.3415 1.0024
23.0800 15.3548 1.0026
23.1000 15.3681 1.0026
23.1200 15.3815 1.0038
23.1400 15.3948 1.0035
23.1600 15.4081 1.0056
23.1800 15.4213 1.0044
23.2000 15.4347 1.0081
23.2200 15.4480 1.0034
23.2400 15.4614 1.0094
23.2600 15.4747 1.0056
23.2800 15.4881 1.0102
23.3000 15.5015 1.0066
23.3200 15.5149 1.0126
23.3400 15.5282 1.0076
23.3600 15.5415 1.0133
23.3800 15.5549 1.0112
23.4000 15.5682 1.0122
23.4200 15.5815 1.0131
23.4400 15.5948 1.0120
23.4600 15.6081 1.0129
23.4800 15.6214 1.0131
23.5000 15.6347 1.0151
23.5200 15.6480 1.0137
23.5400 15.6614 1.0172
23.5600 15.6747 1.0160
23.5800 15.6881 1.0178
23.6000 15.7014 1.0175
23.6200 15.7148 1.0199
23.6400 15.7281 1.0186
23.6600 15.7415 1.0210
23.6800 15.7549 1.0220
23.7000 15.7682 1.0210
23.7200 15.7815 1.0238
23.7400 15.7948 1.0232
23.7600 15.8082 1.0242
23.7800 15.8215 1.0245
23.8000 15.8348 1.0266
23.8200 15.8481 1.0253
23.8400 15.8614 1.0280
23.8600 15.8748 1.0273
23.8800 15.8881 1.0291
23.9000 15.9014 1.0283
23.9200 15.9147 1.0315
23.9400 15.9281 1.0287
23.9600 15.9414 1.0329
23.9800 15.9547 1.0303
24.0000 15.9681 1.0315
24.0200 15.9815 1.0299
24.0400 15.9949 1.0329
24.0600 16.0082 1.0310
24.0800 16.0215 1.0348
24.1000 16.0348 1.0342
24.1200 16.0482 1.0353
24.1400 16.0615 1.0366
24.1600 16.0748 1.0372
24.1800 16.0881 1.0380
24.2000 16.1014 1.0379
24.2200 16.1147 1.0417
24.2400 16.1280 1.0379
24.2600 16.1413 1.0435
24.2800 16.1547 1.0403
24.3000 16.1681 1.0438
24.3200 16.1814 1.0416
24.3400 16.1948 1.0457
24.3600 16.2081 1.0424
24.3800 16.2215 1.0457
24.4000 16.2348 1.0453
24.4200 16.2482 1.0457
24.4400 16.2615 1.0467
24.4600 16.2748 1.0471
24.4800 16.2882 1.0472
24.5000 16.3015 1.0478
24.5200 16.3148 1.0509
24.5400 16.3281 1.0485
24.5600 16.3414 1.0519
24.5800 16.3548 1.0509
24.6000 16.3681 1.0525
24.6200 16.3814 1.0523
24.6400 16.3948 1.0543
24.6600 16.4081 1.0527
24.6800 16.4214 1.0554
24.7000 16.4347 1.0550
24.7200 16.4481 1.0568
24.7400 16.4615 1.0557
24.7600 16.4748 1.0576
24.7800 16.4881 1.0552
24.8000 16.5014 1.0581
24.8200 16.5148 1.0581
24.8400 16.5281 1.0584
24.8600 16.5415 1.0607
24.8800 16.5548 1.0604
24.9000 16.5681 1.0622
24.9200 16.5815 1.0614
24.9400 16.5948 1.0646
24.9600 16.6081 1.0621
24.9800 16.6214 1.0664
25.0000 16.6347 1.0643
25.0200 16.6481 1.0673
25.0400 16.6614 1.0655
25.0600 16.6748 1.0696
25.0800 16.6881 1.0665
25.1000 16.7015 1.0703
25.1200 16.7148 1.0698
25.1400 16.7281 1.0705
25.1600 16.7414 1.0712
25.1800 16.7548 1.0722
25.2000 16.7682 1.0723
25.2200 16.7815 1.0730
25.2400 16.7948 1.0759
25.2600 16.8081 1.0738
25.2800 16.8214 1.0763
25.3000 16.8348 1.0757
25.3200 16.8480 1.0775
25.3400 16.8613 1.0770
25.3600 16.8747 1.0795
25.3800 16.8880 1.0773
25.4000 16.9014 1.0797
25.4200 16.9147 1.0797
25.4400 16.9281 1.0796
25.4600 16.9415 1.0792
25.4800 16.9549 1.0799
25.5000 16.9682 1.0801
25.5200 16.9815 1.0812
25.5400 16.9948 1.0832
25.5600 17.0082 1.0834
25.5800 17.0215 1.0848
25.6000 17.0347 1.0858
25.6200 17.0481 1.0873
25.6400 17.0614 1.0865
25.6600 17.0747 1.0894
25.6800 17.0880 1.0877
25.7000 17.1014 1.0909
25.7200 17.1147 1.0895
25.7400 17.1281 1.0929
25.7600 17.1414 1.0896
25.7800 17.1548 1.0953
25.8000 17.1681 1.0914
25.8200 17.1815 1.0951
25.8400 17.1949 1.0940
25.8600 17.2082 1.0958
25.8800 17.2215 1.0965
25.9000 17.2348 1.0974
25.9200 17.2482 1.0991
25.9400 17.2615 1.0970
25.9600 17.2748 1.1018
25.9800 17.2881 1.0986
26.0000 17.3014 1.1023
26.0200 17.3148 1.0996
26.0400 17.3281 1.1028
26.0600 17.3414 1.1009
26.0800 17.3547 1.1042
26.1000 17.3681 1.1029
26.1200 17.3814 1.1025
26.1400 17.3948 1.1032
26.1600 17.4081 1.1029
26.1800 17.4215 1.1063
26.2000 17.4348 1.1045
26.2200 17.4481 1.1089
26.2400 17.4615 1.1049
26.2600 17.4748 1.1116
26.2800 17.4882 1.1075
26.3000 17.5015 1.1118
26.3200 17.5148 1.1102
26.3400 17.5281 1.1137
26.3600 17.5414 1.1110
26.3800 17.5548 1.1156
26.4000 17.5681 1.1134
26.4200 17.5814 1.1166
26.4400 17.5947 1.1155
26.4600 17.6081 1.1178
26.4800 17.6214 1.1168
26.5000 17.6348 1.1197
26.5200 17.6481 1.1188
26.5400 17.6615 1.1200
26.5600 17.6748 1.1207
26.5800 17.6882 1.1221
26.6000 17.7015 1.1215
26.6200 17.7148 1.1234
26.6400 17.7281 1.1240
26.6600 17.7415 1.1226
26.6800 17.7548 1.1265
26.7000 17.7681 1.1226
26.7200 17.7814 1.1269
26.7400 17.7948 1.1232
26.7600 17.8081 1.1295
26.7800 17.8214 1.1256
26.8000 17.8347 1.1305
26.8200 17.8481 1.1287
26.8400 17.8614 1.1295
26.8600 17.8747 1.1308
26.8800 17.8881 1.1339
26.9000 17.9014 1.1315
26.9200 17.9148 1.1352
26.9400 17.9281 1.1342
26.9600 17.9415 1.1344
26.9800 17.9548 1.1372
27.0000 17.9682 1.1358
27.0200 17.9815 1.1384
27.0400 17.9948 1.1378
27.0600 18.0081 1.1402
27.0800 18.0214 1.1386
27.1000 18.0347 1.1418
27.1200 18.0481 1.1396
27.1400 18.0614 1.1424
27.1600 18.0747 1.1409
27.1800 18.0881 1.1449
27.2000 18.1014 1.1412
27.2200 18.1147 1.1467
27.2400 18.1281 1.1438
27.2600 18.1415 1.1469
27.2800 18.1549 1.1447
27.3000 18.1682 1.1468
27.3200 18.1815 1.1450
27.3400 18.1948 1.1494
27.3600 18.2082 1.1482
27.3800 18.2215 1.1493
27.4000 18.2348 1.1518
27.4200 18.2481 1.1513
27.4400 18.2615 1.1540
27.4600 18.2748 1.1522
27.4800 18.2881 1.1566
27.5000 18.3014 1.1527
27.5200 18.3147 1.1588
27.5400 18.3280 1.1552
27.5600 18.3414 1.1590
27.5800 18.3547 1.1577
27.6000 18.3681 1.1611
27.6200 18.3814 1.1584
27.6400 18.3948 1.1616
27.6600 18.4082 1.1616
27.6800 18.4215 1.1615
27.7000 18.4348 1.1644
27.7200 18.4482 1.1631
27.7400 18.4615 1.1656
27.7600 18.4748 1.1649
27.7800 18.4881 1.1680
27.8000 18.5014 1.1636
27.8200 18.5148 1.1679
27.8400 18.5281 1.1654
27.8600 18.5414 1.1689
27.8800 18.5547 1.1686
27.9000 18.5681 1.1713
27.9200 18.5814 1.1701
27.9400 18.5948 1.1723
27.9600 18.6081 1.1735
27.9800 18.6215 1.1730
28.0000 18.6348 1.1750
28.0200 18.6481 1.1754
28.0400 18.6614 1.1766
28.0600 18.6748 1.1760
28.0800 18.6881 1.1792
28.1000 18.7015 1.1769
28.1200 18.7148 1.1805
28.1400 18.7281 1.1793
28.1600 18.7415 1.1804
28.1800 18.7548 1.1794
28.2000 18.7681 1.1824
28.2200 18.7814 1.1800
28.2400 18.7947 1.1849
28.2600 18.8081 1.1813
28.2800 18.8214 1.1834
28.3000 18.8347 1.1829
28.3200 18.8480 1.1854
28.3400 18.8614 1.1852
28.3600 18.8748 1.1862
28.3800 18.8881 1.1885
28.4000 18.9015 1.1872
28.4200 18.9148 1.1905
28.4400 18.9282 1.1906
28.4600 18.9415 1.1917
28.4800 18.9548 1.1912
28.5000 18.9681 1.1951
28.5200 18.9814 1.1923
28.5400 18.9948 1.1970
28.5600 19.0081 1.1945
28.5800 19.0214 1.1970
28.6000 19.0347 1.1971
28.6200 19.0480 1.1988
28.6400 19.0614 1.1991
28.6600 19.0747 1.1991
28.6800 19.0881 1.2011
28.7000 19.1014 1.1979
28.7200 19.1148 1.2018
28.7400 19.1282 1.2009
28.7600 19.1415 1.2037
28.7800 19.1548 1.2030
28.8000 19.1682 1.2068
28.8200 19.1815 1.2040
28.8400 19.1948 1.2090
28.8600 19.2081 1.2067
28.8800 19.2214 1.2106
28.9000 19.2348 1.2085
28.9200 19.2481 1.2121
28.9400 19.2614 1.2103
28.9600 19.2747 1.2132
28.9800 19.2881 1.2133
29.0000 19.3014 1.2126
29.0200 19.3148 1.2144
29.0400 19.3281 1.2147
29.0600 19.3414 1.2153
29.0800 19.3548 1.2156
29.1000 19.3681 1.2166
29.1200 19.3815 1.2155
29.1400 19.3948 1.2181
29.1600 19.4082 1.2180
29.1800 19.4215 1.2191
29.2000 19.4348 1.2166
29.2200 19.4481 1.2215
29.2400 19.4615 1.2182
29.2600 19.4748 1.2230
29.2800 19.4881 1.2223
29.3000 19.5014 1.2243
29.3200 19.5147 1.2241
29.3400 19.5280 1.2266
29.3600 19.5414 1.2255
29.3800 19.5548 1.2277
29.4000 19.5681 1.2294
29.4200 19.5815 1.2282
29.4400 19.5949 1.2316
29.4600 19.6082 1.2300
29.4800 19.6215 1.2336
29.5000 19.6348 1.2307
29.5200 19.6481 1.2366
29.5400 19.6615 1.2315
29.5600 19.6748 1.2372
29.5800 19.6881 1.2352
29.6000 19.7014 1.2374
29.6200 19.7147 1.2352
29.6400 19.7281 1.2377
29.6600 19.7414 1.2365
29.6800 19.7547 1.2387
29.7000 19.7681 1.2405
29.7200 19.7814 1.2401
29.7400 19.7947 1.2424
29.7600 19.8081 1.2424
29.7800 19.8214 1.2448
29.8000 19.8348 1.2435
29.8200 19.8482 1.2475
29.8400 19.8615 1.2449
29.8600 19.8748 1.2488
29.8800 19.8882 1.2475
29.9000 19.9015 1.2495
29.9200 19.9148 1.2488
29.9400 19.9281 1.2512
29.9600 19.9414 1.2509
29.9800 19.9547 1.2514
30.0000 19.9681 1.2532
30.0200 19.9814 1.2531
30.0400 19.9947 1.2537
30.0600 20.0081 1.2539
30.0800 20.0214 1.2548
30.1000 20.0348 1.2550
30.1200 20.0481 1.2580
30.1400 20.0614 1.2566
30.1600 20.0748 1.2602
30.1800 20.0881 1.2587
30.2000 20.1014 1.2624
30.2200 20.1148 1.2602
30.2400 20.1281 1.2654
30.2600 20.1415 1.2619
30.2800 20.1548 1.2674
30.3000 20.1681 1.2653
30.3200 20.1815 1.2688
30.3400 20.1948 1.2666
30.3600 20.2082 1.2700
30.3800 20.2215 1.2693
30.4000 20.2347 1.2704
30.4200 20.2480 1.2726
30.4400 20.2614 1.2701
30.4600 20.2747 1.2724
30.4800 20.2880 1.2714
30.5000 20.3014 1.2757
30.5200 20.3148 1.2718
30.5400 20.3282 1.2770
30.5600 20.3415 1.2748
30.5800 20.3548 1.2776
30.6000 20.3682 1.2777
30.6200 20.3815 1.2796
30.6400 20.3949 1.2793
30.6600 20.4081 1.2803
30.6800 20.4214 1.2810
30.7000 20.4347 1.2811
30.7200 20.4481 1.2833
30.7400 20.4614 1.2836
30.7600 20.4747 1.2853
30.7800 20.4880 1.2854
30.8000 20.5014 1.2885
30.8200 20.5148 1.2858
30.8400 20.5281 1.2893
30.8600 20.5414 1.2873
30.8800 20.5548 1.2906
30.9000 20.5682 1.2896
30.9200 20.5815 1.2934
30.9400 20.5948 1.2916
30.9600 20.6082 1.2961
30.9800 20.6215 1.2940
31.0000 20.6348 1.2969
31.0200 20.6481 1.2968
31.0400 20.6614 1.2996
31.0600 20.6748 1.2981
31.0800 20.6881 1.3009
31.1000 20.7014 1.3010
31.1200 20.7147 1.3010
31.1400 20.7280 1.3052
31.1600 20.7414 1.3019
31.1800 20.7547 1.3044
31.2000 20.7681 1.3021
31.2200 20.7814 1.3067
31.2400 20.7948 1.3041
31.2600 20.8082 1.3100
31.2800 20.8215 1.3074
31.3000 20.8348 1.3103
31.3200 20.8482 1.3102
31.3400 20.8615 1.3125
31.3600 20.8748 1.3115
31.3800 20.8881 1.3146
31.4000 20.9014 1.3149
31.4200 20.9148 1.3150
31.4400 20.9281 1.3180
31.4600 20.9414 1.3164
31.4800 20.9547 1.3172
31.5000 20.9680 1.3159
31.5200 20.9814 1.3180
31.5400 20.9947 1.3175
31.5600 21.0081 1.3204
31.5800 21.0214 1.3201
31.6000 21.0348 1.3215
31.6200 21.0482 1.3215
31.6400 21.0615 1.3242
31.6600 21.0748 1.3220
31.6800 21.0881 1.3263
31.7000 21.1015 1.3248
31.7200 21.1149 1.3277
31.7400 21.1281 1.3281
31.7600 21.1415 1.3283
31.7800 21.1548 1.3316
31.8000 21.1681 1.3308
31.8200 21.1814 1.3326
31.8400 21.1947 1.3325
31.8600 21.2081 1.3332
31.8800 21.2214 1.3337
31.9000 21.2348 1.3356
31.9200 21.2481 1.3351
31.9400 21.2614 1.3393
31.9600 21.2748 1.3367
31.9800 21.2882 1.3417
32.0000 21.3015 1.3399
32.0200 21.3147 1.3427
32.0400 21.3281 1.3425
32.0600 21.3415 1.3452
32.0800 21.3548 1.3445
32.1000 21.3681 1.3468
32.1200 21.3814 1.3477
32.1400 21.3948 1.3483
32.1600 21.4081 1.3499
32.1800 21.4214 1.3501
32.2000 21.4347 1.3510
32.2200 21.4481 1.3530
32.2400 21.4614 1.3528
32.2600 21.4748 1.3524
32.2800 21.4881 1.3525
32.3000 21.5014 1.3528
32.3200 21.5148 1.3536
32.3400 21.5281 1.3551
32.3600 21.5415 1.3566
32.3800 21.5548 1.3566
32.4000 21.5681 1.3582
32.4200 21.5815 1.3592
32.4400 21.5948 1.3600
32.4600 21.6081 1.3618
32.4800 21.6214 1.3629
32.5000 21.6348 1.3628
32.5200 21.6481 1.3645
32.5400 21.6614 1.3656
32.5600 21.6747 1.3655
32.5800 21.6880 1.3686
32.6000 21.7014 1.3679
32.6200 21.7147 1.3688
32.6400 21.7280 1.3686
32.6600 21.7414 1.3725
32.6800 21.7548 1.3702
32.7000 21.7682 1.3749
32.7200 21.7815 1.3734
32.7400 21.7949 1.3769
32.7600 21.8082 1.3762
32.7800 21.8215 1.3797
32.8000 21.8349 1.3780
32.8200 21.8481 1.3817
32.8400 21.8614 1.3809
32.8600 21.8747 1.3830
32.8800 21.8881 1.3821
32.9000 21.9014 1.3841
32.9200 21.9147 1.3837
32.9400 21.9280 1.3855
32.9600 21.9414 1.3875
32.9800 21.9548 1.3857
33.0000 21.9681 1.3904
33.0200 21.9815 1.3895
33.0400 21.9948 1.3925
33.0600 22.0082 1.3919
33.0800 22.0215 1.3948
33.1000 22.0348 1.3950
33.1200 22.0481 1.3962
33.1400 22.0615 1.3977
33.1600 22.0748 1.3977
33.1800 22.0881 1.3988
33.2000 22.1014 1.3983
33.2200 22.1148 1.4010
33.2400 22.1281 1.3954
33.2600 22.1414 1.4033
33.2800 22.1547 1.3975
33.3000 22.1680 1.4062
33.3200 22.1814 1.4007
33.3400 22.1947 1.4077
33.3600 22.2081 1.4041
33.3800 22.2214 1.4094
33.4000 22.2348 1.4070
33.4200 22.2482 1.4112
33.4400 22.2615 1.4103
33.4600 22.2748 1.4126
33.4800 22.2881 1.4134
33.5000 22.3015 1.4133
33.5200 22.3148 1.4136
33.5400 22.3281 1.4132
33.5600 22.3414 1.4172
33.5800 22.3548 1.4156
33.6000 22.3681 1.4203
33.6200 22.3814 1.4180
33.6400 22.3947 1.4225
33.6600 22.4080 1.4204
33.6800 22.4214 1.4251
33.7000 22.4348 1.4222
33.7200 22.4481 1.4269
33.7400 22.4614 1.4256
33.7600 22.4748 1.4278
33.7800 22.4882 1.4263
33.8000 22.5015 1.4279
33.8200 22.5148 1.4271
33.8400 22.5281 1.4286
33.8600 22.5415 1.4303
33.8800 22.5548 1.4293
33.9000 22.5681 1.4315
33.9200 22.5814 1.4312
33.9400 22.5948 1.4353
33.9600 22.6081 1.4331
33.9800 22.6214 1.4383
34.0000 22.6347 1.4353
34.0200 22.6481 1.4401
34.0400 22.6614 1.4387
34.0600 22.6748 1.4424
34.0800 22.6881 1.4410
34.1000 22.7014 1.4449
34.1200 22.7148 1.4426
34.1400 22.7282 1.4450
34.1600 22.7415 1.4450
34.1800 22.7548 1.4464
34.2000 22.7681 1.4486
34.2200 22.7815 1.4488
34.2400 22.7948 1.4514
34.2600 22.8082 1.4506
34.2800 22.8215 1.4541
34.3000 22.8348 1.4530
34.3200 22.8481 1.4563
34.3400 22.8615 1.4552
34.3600 22.8748 1.4577
34.3800 22.8881 1.4559
34.4000 22.9014 1.4601
34.4200 22.9147 1.4571
34.4400 22.9280 1.4604
34.4600 22.9414 1.4594
34.4800 22.9547 1.4633
34.5000 22.9682 1.4625
34.5200 22.9815 1.4655
34.5400 22.9948 1.4661
34.5600 23.0081 1.4670
34.5800 23.0215 1.4695
34.6000 23.0349 1.4686
34.6200 23.0482 1.4727
34.6400 23.0614 1.4717
34.6600 23.0747 1.4749
34.6800 23.0881 1.4715
34.7000 23.1014 1.4744
34.7200 23.1147 1.4727
34.7400 23.1280 1.4752
34.7600 23.1414 1.4766
34.7800 23.1547 1.4801
34.8000 23.1681 1.4780
34.8200 23.1814 1.4826
34.8400 23.1947 1.4816
34.8600 23.2081 1.4845
34.8800 23.2215 1.4838
34.9000 23.2348 1.4866
34.9200 23.2481 1.4857
34.9400 23.2615 1.4876
34.9600 23.2748 1.4875
34.9800 23.2881 1.4878
35.0000 23.3014 1.4899
35.0200 23.3147 1.4883
35.0400 23.3281 1.4905
35.0600 23.3414 1.4915
35.0800 23.3547 1.4924
35.1000 23.3680 1.4927
35.1200 23.3814 1.4959
35.1400 23.3948 1.4956
35.1600 23.4081 1.4961
35.1800 23.4215 1.4960
35.2000 23.4348 1.4984
35.2200 23.4482 1.5002
35.2400 23.4615 1.5001
35.2600 23.4748 1.5027
35.2800 23.4881 1.5032
35.3000 23.5015 1.5055
35.3200 23.5148 1.5058
35.3400 23.5282 1.5079
35.3600 23.5415 1.5084
35.3800 23.5548 1.5106
35.4000 23.5682 1.5096
35.4200 23.5815 1.5138
35.4400 23.5948 1.5124
35.4600 23.6081 1.5147
35.4800 23.6214 1.5139
35.5000 23.6348 1.5144
35.5200 23.6481 1.5125
35.5400 23.6614 1.5173
35.5600 23.6747 1.5158
35.5800 23.6881 1.5189
35.6000 23.7015 1.5189
35.6200 23.7148 1.5221
35.6400 23.7281 1.5217
35.6600 23.7415 1.5241
35.6800 23.7549 1.5245
35.7000 23.7682 1.5264
35.7200 23.7815 1.5278
35.7400 23.7948 1.5278
35.7600 23.8081 1.5316
35.7800 23.8215 1.5279
35.8000 23.8348 1.5331
35.8200 23.8481 1.5291
35.8400 23.8614 1.5354
35.8600 23.8747 1.5328
35.8800 23.8881 1.5368
35.9000 23.9014 1.5355
35.9200 23.9147 1.5392
35.9400 23.9281 1.5373
35.9600 23.9415 1.5407
35.9800 23.9548 1.5396
36.0000 23.9681 1.5415
36.0200 23.9815 1.5424
36.0400 23.9948 1.5406
36.0600 24.0082 1.5426
36.0800 24.0215 1.5423
36.1000 24.0348 1.5460
36.1200 24.0481 1.5443
36.1400 24.0615 1.5483
36.1600 24.0748 1.5471
36.1800 24.0881 1.5490
36.2000 24.1014 1.5499
36.2200 24.1147 1.5521
36.2400 24.1281 1.5526
36.2600 24.1414 1.5551
36.2800 24.1547 1.5554
36.3000 24.1681 1.5568
36.3200 24.1815 1.5588
36.3400 24.1948 1.5591
36.3600 24.2081 1.5608
36.3800 24.2215 1.5613
36.4000 24.2348 1.5643
36.4200 24.2482 1.5626
36.4400 24.2615 1.5667
36.4600 24.2748 1.5650
36.4800 24.2881 1.5690
36.5000 24.3015 1.5651
36.5200 24.3148 1.5679
36.5400 24.3281 1.5643
36.5600 24.3414 1.5697
36.5800 24.3547 1.5658
36.6000 24.3681 1.5723
36.6200 24.3814 1.5698
36.6400 24.3948 1.5747
36.6600 24.4081 1.5728
36.6800 24.4215 1.5757
36.7000 24.4349 1.5756
36.7200 24.4482 1.5779
36.7400 24.4615 1.5789
36.7600 24.4748 1.5799
36.7800 24.4882 1.5803
36.8000 24.5015 1.5823
36.8200 24.5147 1.5828
36.8400 24.5280 1.5832
36.8600 24.5414 1.5849
36.8800 24.5547 1.5851
36.9000 24.5680 1.5871
36.9200 24.5814 1.5853
36.9400 24.5947 1.5881
36.9600 24.6081 1.5871
36.9800 24.6214 1.5905
37.0000 24.6348 1.5910
37.0200 24.6482 1.5926
37.0400 24.6615 1.5934
37.0600 24.6749 1.5952
37.0800 24.6882 1.5965
37.1000 24.7015 1.5979
37.1200 24.7148 1.5987
37.1400 24.7282 1.5990
37.1600 24.7415 1.6030
37.1800 24.7547 1.6011
37.2000 24.7681 1.6053
37.2200 24.7814 1.6028
37.2400 24.7947 1.6082
37.2600 24.8080 1.6055
37.2800 24.8214 1.6098
37.3000 24.8347 1.6078
37.3200 24.8481 1.6122
37.3400 24.8614 1.6095
37.3600 24.8747 1.6144
37.3800 24.8881 1.6106
37.4000 24.9015 1.6119
37.4200 24.9148 1.6127
37.4400 24.9281 1.6126
37.4600 24.9414 1.6144
37.4800 24.9548 1.6148
37.5000 24.9682 1.6168
37.5200 24.9815 1.6155
37.5400 24.9948 1.6201
37.5600 25.0081 1.6177
37.5800 25.0215 1.6218
37.6000 25.0348 1.6189
37.6200 25.0481 1.6246
37.6400 25.0614 1.6207
37.6600 25.0747 1.6278
37.6800 25.0880 1.6246
37.7000 25.1014 1.6290
37.7200 25.1147 1.6280
37.7400 25.1281 1.6304
37.7600 25.1415 1.6308
37.7800 25.1549 1.6323
37.8000 25.1682 1.6326
37.8200 25.1815 1.6327
37.8400 25.1949 1.6347
37.8600 25.2082 1.6354
37.8800 25.2215 1.6387
37.9000 25.2348 1.6382
37.9200 25.2481 1.6417
37.9400 25.2614 1.6395
37.9600 25.2747 1.6443
37.9800 25.2880 1.6427
38.0000 25.3013 1.6459
38.0200 25.3147 1.6454
38.0400 25.3281 1.6474
38.0600 25.3414 1.6457
38.0800 25.3547 1.6488
38.1000 25.3681 1.6480
38.1200 25.3815 1.6499
38.1400 25.3949 1.6493
38.1600 25.4082 1.6521
38.1800 25.4215 1.6528
38.2000 25.4348 1.6536
38.2200 25.4482 1.6563
38.2400 25.4615 1.6546
38.2600 25.4748 1.6597
38.2800 25.4881 1.6558
38.3000 25.5014 1.6595
38.3200 25.5148 1.6576
38.3400 25.5281 1.6633
38.3600 25.5414 1.6594
38.3800 25.5547 1.6658
38.4000 25.5681 1.6633
38.4200 25.5814 1.6671
38.4400 25.5947 1.6670
38.4600 25.6081 1.6690
38.4800 25.6215 1.6703
38.5000 25.6349 1.6704
38.5200 25.6482 1.6739
38.5400 25.6615 1.6714
38.5600 25.6748 1.6773
38.5800 25.6882 1.6726
38.6000 25.7015 1.6806
38.6200 25.7148 1.6753
38.6400 25.7281 1.6815
38.6600 25.7414 1.6766
38.6800 25.7547 1.6809
38.7000 25.7680 1.6779
38.7200 25.7813 1.6813
38.7400 25.7947 1.6810
38.7600 25.8081 1.6829
38.7800 25.8214 1.6828
38.8000 25.8348 1.6837
38.8200 25.8481 1.6872
38.8400 25.8615 1.6850
38.8600 25.8748 1.6906
38.8800 25.8881 1.6891
38.9000 25.9015 1.6928
38.9200 25.9148 1.6922
38.9400 25.9282 1.6956
38.9600 25.9415 1.6950
38.9800 25.9548 1.6982
39.0000 25.9681 1.6979
39.0200 25.9815 1.6991
39.0400 25.9948 1.6973
39.0600 26.0081 1.6990
39.0800 26.0214 1.6993
39.1000 26.0348 1.7025
39.1200 26.0481 1.7031
39.1400 26.0614 1.7047
39.1600 26.0747 1.7055
39.1800 26.0881 1.7079
39.2000 26.1015 1.7084
39.2200 26.1148 1.7090
39.2400 26.1281 1.7113
39.2600 26.1414 1.7098
39.2800 26.1548 1.7131
39.3000 26.1682 1.7123
39.3200 26.1815 1.7145
39.3400 26.1948 1.7134
39.3600 26.2081 1.7166
39.3800 26.2214 1.7152
39.4000 26.2348 1.7187
39.4200 26.2481 1.7182
39.4400 26.2614 1.7205
39.4600 26.2747 1.7208
39.4800 26.2881 1.7210
39.5000 26.3014 1.7230
39.5200 26.3148 1.7233
39.5400 26.3281 1.7273
39.5600 26.3415 1.7256
39.5800 26.3548 1.7293
39.6000 26.3681 1.7285
39.6200 26.3814 1.7318
39.6400 26.3948 1.7316
39.6600 26.4082 1.7344
39.6800 26.4215 1.7341
39.7000 26.4348 1.7367
39.7200 26.4481 1.7373
39.7400 26.4614 1.7384
39.7600 26.4748 1.7392
39.7800 26.4881 1.7416
39.8000 26.5014 1.7411
39.8200 26.5147 1.7437
39.8400 26.5281 1.7438
39.8600 26.5414 1.7454
39.8800 26.5547 1.7440
39.9000 26.5681 1.7452
39.9200 26.5815 1.7450
39.9400 26.5949 1.7470
39.9600 26.6082 1.7477
39.9800 26.6215 1.7484
40.0000 26.6349 1.7502
40.0200 26.6482 1.7516
40.0400 26.6615 1.7531
40.0600 26.6748 1.7530
40.0800 26.6881 1.7570
40.1000 26.7014 1.7562
40.1200 26.7147 1.7593
40.1400 26.7280 1.7593
40.1600 26.7414 1.7613
40.1800 26.7547 1.7622
40.2000 26.7681 1.7630
40.2200 26.7814 1.7652
40.2400 26.7948 1.7638
40.2600 26.8081 1.7671
40.2800 26.8215 1.7640
40.3000 26.8349 1.7692
40.3200 26.8482 1.7675
40.3400 26.8615 1.7727
40.3600 26.8748 1.7696
40.3800 26.8881 1.7751
40.4000 26.9015 1.7718
40.4200 26.9148 1.7775
40.4400 26.9281 1.7758
40.4600 26.9414 1.7790
40.4800 26.9548 1.7788
40.5000 26.9681 1.7803
40.5200 26.9814 1.7814
40.5400 26.9947 1.7811
40.5600 27.0081 1.7827
40.5800 27.0214 1.7817
40.6000 27.0348 1.7811
40.6200 27.0481 1.7831
40.6400 27.0615 1.7827
40.6600 27.0748 1.7853
40.6800 27.0882 1.7871
40.7000 27.1015 1.7882
40.7200 27.1148 1.7901
40.7400 27.1282 1.7911
40.7600 27.1415 1.7924
40.7800 27.1548 1.7913
40.8000 27.1681 1.7950
40.8200 27.1814 1.7936
40.8400 27.1948 1.7972
40.8600 27.2081 1.7972
40.8800 27.2214 1.8006
40.9000 27.2347 1.7991
40.9200 27.2481 1.8030
40.9400 27.2614 1.8026
40.9600 27.2748 1.8049
40.9800 27.2881 1.8065
41.0000 27.3015 1.8060
41.0200 27.3148 1.8097
41.0400 27.3282 1.8079
41.0600 27.3415 1.8127
41.0800 27.3548 1.8106
41.1000 27.3682 1.8156
41.1200 27.3815 1.8128
41.1400 27.3948 1.8159
41.1600 27.4081 1.8149
41.1800 27.4214 1.8153
41.2000 27.4348 1.8148
41.2200 27.4481 1.8174
41.2400 27.4614 1.8178
41.2600 27.4747 1.8190
41.2800 27.4881 1.8211
41.3000 27.5014 1.8219
41.3200 27.5148 1.8234
41.3400 27.5281 1.8246
41.3600 27.5414 1.8266
41.3800 27.5548 1.8275
41.4000 27.5681 1.8295
41.4200 27.5815 1.8298
41.4400 27.5948 1.8310
41.4600 27.6082 1.8333
41.4800 27.6215 1.8335
41.5000 27.6348 1.8347
41.5200 27.6481 1.8367
41.5400 27.6615 1.8367
41.5600 27.6748 1.8389
41.5800 27.6881 1.8389
41.6000 27.7014 1.8418
41.6200 27.7147 1.8402
41.6400 27.7281 1.8436
41.6600 27.7414 1.8431
41.6800 27.7547 1.8437
41.7000 27.7680 1.8444
41.7200 27.7814 1.8437
41.7400 27.7948 1.8448
41.7600 27.8082 1.8444
41.7800 27.8215 1.8475
41.8000 27.8348 1.8461
41.8200 27.8482 1.8519
41.8400 27.8615 1.8493
41.8600 27.8748 1.8543
41.8800 27.8881 1.8529
41.9000 27.9014 1.8573
41.9200 27.9148 1.8549
41.9400 27.9281 1.8594
41.9600 27.9414 1.8584
41.9800 27.9547 1.8582
42.0000 27.9680 1.8584
42.0200 27.9814 1.8586
42.0400 27.9947 1.8621
42.0600 28.0080 1.8614
42.0800 28.0214 1.8658
42.1000 28.0348 1.8638
42.1200 28.0482 1.8692
42.1400 28.0615 1.8680
42.1600 28.0748 1.8713
42.1800 28.0882 1.8715
42.2000 28.1015 1.8744
42.2200 28.1148 1.8734
42.2400 28.1281 1.8773
42.2600 28.1414 1.8765
42.2800 28.1547 1.8790
42.3000 28.1681 1.8783
42.3200 28.1814 1.8794
42.3400 28.1947 1.8784
42.3600 28.2081 1.8810
42.3800 28.2215 1.8822
42.4000 28.2348 1.8834
42.4200 28.2482 1.8859
42.4400 28.2615 1.8869
42.4600 28.2749 1.8883
42.4800 28.2882 1.8887
42.5000 28.3014 1.8931
42.5200 28.3148 1.8907
42.5400 28.3281 1.8961
42.5600 28.3415 1.8934
42.5800 28.3548 1.8986
42.6000 28.3681 1.8963
42.6200 28.3815 1.9016
42.6400 28.3948 1.8987
42.6600 28.4082 1.9026
42.6800 28.4214 1.9027
42.7000 28.4347 1.9041
42.7200 28.4481 1.9058
42.7400 28.4614 1.9065
42.7600 28.4747 1.9087
42.7800 28.4880 1.9088
42.8000 28.5014 1.9122
42.8200 28.5148 1.9095
42.8400 28.5282 1.9153
42.8600 28.5415 1.9102
42.8800 28.5548 1.9138
42.9000 28.5682 1.9111
42.9200 28.5815 1.9151
42.9400 28.5948 1.9134
42.9600 28.6081 1.9160
42.9800 28.6214 1.9160
43.0000 28.6348 1.9161
43.0200 28.6481 1.9187
43.0400 28.6614 1.9193
43.0600 28.6747 1.9223
43.0800 28.6880 1.9216
43.1000 28.7014 1.9260
43.1200 28.7147 1.9238
43.1400 28.7280 1.9282
43.1600 28.7414 1.9272
43.1800 28.7548 1.9310
43.2000 28.7681 1.9291
43.2200 28.7815 1.9347
43.2400 28.7948 1.9321
43.2600 28.8082 1.9365
43.2800 28.8215 1.9358
43.3000 28.8348 1.9388
43.3200 28.8481 1.9388
43.3400 28.8614 1.9414
43.3600 28.8748 1.9401
43.3800 28.8881 1.9411
43.4000 28.9014 1.9426
43.4200 28.9147 1.9428
43.4400 28.9281 1.9456
43.4600 28.9414 1.9451
43.4800 28.9547 1.9480
43.5000 28.9681 1.9469
43.5200 28.9814 1.9519
43.5400 28.9948 1.9485
43.5600 29.0082 1.9550
43.5800 29.0215 1.9522
43.6000 29.0348 1.9570
43.6200 29.0482 1.9556
43.6400 29.0615 1.9598
43.6600 29.0749 1.9588
43.6800 29.0881 1.9618
43.7000 29.1015 1.9634
43.7200 29.1148 1.9635
43.7400 29.1281 1.9659
43.7600 29.1414 1.9664
43.7800 29.1547 1.9690
43.8000 29.1681 1.9681
43.8200 29.1814 1.9729
43.8400 29.1948 1.9697
43.8600 29.2081 1.9749
43.8800 29.2214 1.9726
43.9000 29.2348 1.9762
43.9200 29.2482 1.9732
43.9400 29.2615 1.9763
43.9600 29.2748 1.9733
43.9800 29.2881 1.9770
44.0000 29.3015 1.9762
44.0200 29.3148 1.9791
44.0400 29.3281 1.9794
44.0600 29.3414 1.9823
44.0800 29.3547 1.9827
44.1000 29.3680 1.9852
44.1200 29.3814 1.9869
44.1400 29.3947 1.9873
44.1600 29.4081 1.9899
44.1800 29.4214 1.9902
44.2000 29.4348 1.9934
44.2200 29.4481 1.9923
44.2400 29.4614 1.9974
44.2600 29.4748 1.9943
44.2800 29.4882 1.9994
44.3000 29.5015 1.9979
44.3200 29.5148 2.0023
44.3400 29.5281 2.0000
44.3600 29.5415 2.0054
44.3800 29.5548 2.0029
44.4000 29.5681 2.0066
44.4200 29.5814 2.0066
44.4400 29.5947 2.0088
44.4600 29.6081 2.0096
44.4800 29.6214 2.0108
44.5000 29.6347 2.0129
44.5200 29.6480 2.0119
44.5400 29.6614 2.0160
44.5600 29.6747 2.0132
44.5800 29.6881 2.0158
44.6000 29.7014 2.0136
44.6200 29.7148 2.0155
44.6400 29.7282 2.0150
44.6600 29.7415 2.0198
44.6800 29.7548 2.0193
44.7000 29.7681 2.0215
44.7200 29.7815 2.0230
44.7400 29.7948 2.0245
44.7600 29.8081 2.0255
44.7800 29.8215 2.0275
44.8000 29.8348 2.0294
44.8200 29.8482 2.0296
44.8400 29.8615 2.0334
44.8600 29.8748 2.0322
44.8800 29.8881 2.0358
44.9000 29.9014 2.0349
44.9200 29.9147 2.0395
44.9400 29.9280 2.0371
44.9600 29.9414 2.0420
44.9800 29.9548 2.0401
45.0000 29.9682 2.0444
45.0200 29.9815 2.0438
45.0400 29.9948 2.0463
45.0480 30.0001 2.0430
45.0490 30.0007 2.0424
45.0500 30.0013 2.0417
45.0700 30.0118 2.0249
45.0900 30.0141 2.0132
45.1100 30.0058 2.0135
45.1300 29.9931 2.0152
45.1500 29.9802 1.9986
45.1700 29.9673 1.9895
45.1900 29.9539 1.9752
45.2100 29.9399 1.9696
45.2300 29.9258 1.9569
45.2500 29.9119 1.9511
45.2700 29.8984 1.9396
45.2900 29.8851 1.9297
45.3100 29.8718 1.9232
45.3300 29.8585 1.9139
45.3500 29.8451 1.9085
45.3700 29.8318 1.8981
45.3900 29.8185 1.8947
45.4100 29.8051 1.8830
45.4300 29.7917 1.8802
45.4500 29.7784 1.8699
45.4700 29.7650 1.8670
45.4900 29.7517 1.8551
45.5100 29.7384 1.8541
45.5300 29.7250 1.8428
45.5500 29.7116 1.8425
45.5700 29.6983 1.8327
45.5900 29.6850 1.8293
45.6100 29.6717 1.8211
45.6300 29.6583 1.8177
45.6500 29.6450 1.8106
45.6700 29.6317 1.8062
45.6900 29.6183 1.8010
45.7100 29.6050 1.7948
45.7300 29.5917 1.7912
45.7500 29.5784 1.7848
45.7700 29.5651 1.7818
45.7900 29.5518 1.7748
45.8100 29.5384 1.7728
45.8300 29.5251 1.7647
45.8500 29.5117 1.7625
45.8700 29.4984 1.7570
45.8900 29.4850 1.7538
45.9100 29.4717 1.7477
45.9300 29.4584 1.7452
45.9500 29.4450 1.7395
45.9700 29.4317 1.7356
45.9900 29.4183 1.7325
46.0100 29.4050 1.7262
46.0300 29.3917 1.7240
46.0500 29.3784 1.7197
46.0700 29.3650 1.7161
46.0900 29.3517 1.7111
46.1100 29.3384 1.7086
46.1300 29.3251 1.7032
46.1500 29.3118 1.7013
46.1700 29.2984 1.6964
46.1900 29.2851 1.6942
46.2100 29.2718 1.6874
46.2300 29.2584 1.6874
46.2500 29.2450 1.6806
46.2700 29.2317 1.6799
46.2900 29.2183 1.6745
46.3100 29.2050 1.6727
46.3300 29.1916 1.6672
46.3500 29.1783 1.6664
46.3700 29.1650 1.6613
46.3900 29.1517 1.6590
46.4100 29.1384 1.6557
46.4300 29.1250 1.6516
46.4500 29.1117 1.6498
46.4700 29.0984 1.6456
46.4900 29.0851 1.6437
46.5100 29.0717 1.6378
46.5300 29.0584 1.6386
46.5500 29.0450 1.6316
46.5700 29.0317 1.6316
46.5900 29.0183 1.6263
46.6100 29.0049 1.6247
46.6300 28.9916 1.6208
46.6500 28.9783 1.6191
46.6700 28.9650 1.6149
46.6900 28.9516 1.6130
46.7100 28.9383 1.6098
46.7300 28.9250 1.6071
46.7500 28.9117 1.6039
46.7700 28.8983 1.6015
46.7900 28.8850 1.5996
46.8100 28.8717 1.5950
46.8300 28.8584 1.5949
46.8500 28.8451 1.5895
46.8700 28.8317 1.5884
46.8900 28.8184 1.5853
46.9100 28.8051 1.5829
46.9300 28.7917 1.5791
46.9500 28.7783 1.5784
46.9700 28.7649 1.5735
46.9900 28.7516 1.5735
47.0100 28.7383 1.5689
47.0300 28.7250 1.5680
47.0500 28.7116 1.5631
47.0700 28.6983 1.5628
47.0900 28.6850 1.5605
47.1100 28.6717 1.5562
47.1300 28.6584 1.5560
47.1500 28.6450 1.5517
47.1700 28.6317 1.5506
47.1900 28.6184 1.5463
47.2100 28.6051 1.5471
47.2300 28.5917 1.5402
47.2500 28.5784 1.5431
47.2700 28.5651 1.5355
47.2900 28.5517 1.5372
47.3100 28.5384 1.5327
47.3300 28.5250 1.5320
47.3500 28.5116 1.5274
47.3700 28.4983 1.5274
47.3900 28.4850 1.5231
47.4100 28.4716 1.5224
47.4300 28.4583 1.5195
47.4500 28.4450 1.5181
47.4700 28.4317 1.5150
47.4900 28.4183 1.5128
47.5100 28.4050 1.5122
47.5300 28.3917 1.5075
47.5500 28.3784 1.5079
47.5700 28.3651 1.5043
47.5900 28.3517 1.5015
47.6100 28.3384 1.5006
47.6300 28.3250 1.4992
47.6500 28.3117 1.4941
47.6700 28.2984 1.4956
47.6900 28.2850 1.4906
47.7100 28.2716 1.4906
47.7300 28.2583 1.4875
47.7500 28.2450 1.4858
47.7700 28.2317 1.4828
47.7900 28.2183 1.4828
47.8100 28.2050 1.4791
47.8300 28.1917 1.4782
47.8500 28.1783 1.4760
47.8700 28.1650 1.4731
47.8900 28.1516 1.4729
47.9100 28.1384 1.4693
47.9300 28.1250 1.4694
47.9500 28.1117 1.4642
47.9700 28.0983 1.4661
47.9900 28.0850 1.4606
48.0100 28.0717 1.4618
48.0300 28.0584 1.4564
48.0500 28.0450 1.4586
48.0700 28.0316 1.4525
48.0900 28.0183 1.4546
48.1100 28.0050 1.4501
48.1300 27.9916 1.4487
48.1500 27.9783 1.4473
48.1700 27.9650 1.4463
48.1900 27.9517 1.4426
48.2100 27.9384 1.4422
48.2300 27.9250 1.4405
48.2500 27.9117 1.4368
48.2700 27.8984 1.4380
48.2900 27.8851 1.4331
48.3100 27.8717 1.4341
48.3300 27.8583 1.4295
48.3500 27.8450 1.4306
48.3700 27.8317 1.4259
48.3900 27.8184 1.4267
48.4100 27.8050 1.4230
48.4300 27.7916 1.4233
48.4500 27.7783 1.4196
48.4700 27.7650 1.4202
48.4900 27.7517 1.4158
48.5100 27.7383 1.4153
48.5300 27.7250 1.4140
48.5500 27.7117 1.4117
48.5700 27.6984 1.4106
48.5900 27.6850 1.4087
48.6100 27.6717 1.4073
48.6300 27.6584 1.4047
48.6500 27.6451 1.4054
48.6700 27.6318 1.3995
48.6900 27.6184 1.4027
48.7100 27.6050 1.3970
48.7300 27.5917 1.3986
48.7500 27.5783 1.3939
48.7700 27.5650 1.3960
48.7900 27.5516 1.3904
48.8100 27.5383 1.3925
48.8300 27.5250 1.3878
48.8500 27.5117 1.3883
48.8700 27.4983 1.3855
48.8900 27.4850 1.3851
48.9100 27.4717 1.3822
48.9300 27.4584 1.3812
48.9500 27.4450 1.3805
48.9700 27.4317 1.3764
48.9900 27.4184 1.3781
49.0100 27.4051 1.3733
49.0300 27.3917 1.3740
49.0500 27.3784 1.3705
49.0700 27.3650 1.3713
49.0900 27.3517 1.3670
49.1100 27.3384 1.3677
49.1300 27.3250 1.3646
49.1500 27.3116 1.3640
49.1700 27.2983 1.3620
49.1900 27.2850 1.3609
49.2100 27.2717 1.3590
49.2300 27.2583 1.3571
49.2500 27.2450 1.3578
49.2700 27.2317 1.3529
49.2900 27.2184 1.3545
49.3100 27.2050 1.3503
49.3300 27.1917 1.3520
49.3500 27.1784 1.3473
49.3700 27.1651 1.3491
49.3900 27.1517 1.3434
49.4100 27.1383 1.3458
49.4300 27.1250 1.3422
49.4500 27.1117 1.3426
49.4700 27.0984 1.3385
49.4900 27.0850 1.3406
49.5100 27.0717 1.3353
49.5300 27.0583 1.3374
49.5500 27.0450 1.3340
49.5700 27.0317 1.3327
49.5900 27.0183 1.3315
49.6100 27.0050 1.3304
49.6300 26.9917 1.3292
49.6500 26.9784 1.3263
49.6700 26.9650 1.3275
49.6900 26.9517 1.3231
49.7100 26.9384 1.3247
49.7300 26.9251 1.3209
49.7500 26.9117 1.3212
49.7700 26.8984 1.3170
49.7900 26.8850 1.3201
49.8100 26.8717 1.3142
49.8300 26.8584 1.3164
49.8500 26.8450 1.3124
49.8700 26.8316 1.3128
49.8900 26.8183 1.3100
49.9100 26.8050 1.3104
49.9300 26.7917 1.3073
49.9500 26.7783 1.3061
49.9700 26.7650 1.3068
49.9900 26.7516 1.3025
50.0100 26.7383 1.3046
50.0300 26.7250 1.2998
50.0500 26.7117 1.3024
50.0700 26.6984 1.2963
50.0900 26.6851 1.3003
50.1100 26.6717 1.2931
50.1300 26.6584 1.2969
50.1500 26.6450 1.2925
50.1700 26.6317 1.2933
50.1900 26.6184 1.2893
50.2100 26.6051 1.2901
50.2300 26.5917 1.2880
50.2500 26.5783 1.2861
50.2700 26.5650 1.2867
50.2900 26.5516 1.2818
50.3100 26.5383 1.2846
50.3300 26.5250 1.2804
50.3500 26.5117 1.2814
50.3700 26.4984 1.2768
50.3900 26.4850 1.2798
50.4100 26.4717 1.2741
50.4300 26.4584 1.2768
50.4500 26.4451 1.2721
50.4700 26.4318 1.2742
50.4900 26.4184 1.2682
50.5100 26.4051 1.2724
50.5300 26.3917 1.2668
50.5500 26.3784 1.2688
50.5700 26.3650 1.2651
50.5900 26.3516 1.2649
50.6100 26.3383 1.2633
50.6300 26.3250 1.2625
50.6500 26.3117 1.2609
50.6700 26.2983 1.2584
50.6900 26.2850 1.2607
50.7100 26.2716 1.2552
50.7300 26.2583 1.2579
50.7500 26.2450 1.2527
50.7700 26.2317 1.2562
50.7900 26.2184 1.2498
50.8100 26.2051 1.2540
50.8300 26.1917 1.2479
50.8500 26.1784 1.2505
50.8700 26.1650 1.2467
50.8900 26.1517 1.2468
50.9100 26.1384 1.2447
50.9300 26.1250 1.2439
50.9500 26.1116 1.2434
50.9700 26.0983 1.2400
50.9900 26.0850 1.2419
51.0100 26.0717 1.2371
51.0300 26.0583 1.2395
51.0500 26.0450 1.2352
51.0700 26.0316 1.2381
51.0900 26.0183 1.2322
51.1100 26.0050 1.2354
51.1300 25.9917 1.2304
51.1500 25.9783 1.2325
51.1700 25.9650 1.2293
51.1900 25.9517 1.2293
51.2100 25.9384 1.2272
51.2300 25.9250 1.2275
51.2500 25.9117 1.2253
51.2700 25.8984 1.2236
51.2900 25.8850 1.2234
51.3100 25.8717 1.2215
51.3300 25.8583 1.2205
51.3500 25.8450 1.2198
51.3700 25.8317 1.2188
51.3900 25.8183 1.2162
51.4100 25.8050 1.2178
51.4300 25.7916 1.2139
51.4500 25.7783 1.2153
51.4700 25.7650 1.2115
51.4900 25.7517 1.2134
51.5100 25.7383 1.2084
51.5300 25.7251 1.2113
51.5500 25.7117 1.2070
51.5700 25.6984 1.2077
51.5900 25.6850 1.2055
51.6100 25.6717 1.2057
51.6300 25.6584 1.2029
51.6500 25.6451 1.2032
51.6700 25.6317 1.2014
51.6900 25.6183 1.1997
51.7100 25.6050 1.2005
51.7300 25.5917 1.1967
51.7500 25.5783 1.1986
51.7700 25.5649 1.1947
51.7900 25.5516 1.1971
51.8100 25.5383 1.1911
51.8300 25.5250 1.1952
51.8500 25.5116 1.1895
51.8700 25.4983 1.1923
51.8900 25.4851 1.1883
51.9100 25.4718 1.1895
51.9300 25.4584 1.1857
51.9500 25.4450 1.1879
51.9700 25.4317 1.1842
51.9900 25.4184 1.1841
52.0100 25.4051 1.1835
52.0300 25.3917 1.1815
52.0500 25.3783 1.1809
52.0700 25.3650 1.1791
52.0900 25.3516 1.1798
52.1100 25.3383 1.1762
52.1300 25.3249 1.1781
52.1500 25.3116 1.1746
52.1700 25.2983 1.1748
52.1900 25.2850 1.1735
52.2100 25.2717 1.1737
52.2300 25.2583 1.1698
52.2500 25.2451 1.1724
52.2700 25.2318 1.1682
52.2900 25.2184 1.1686
52.3100 25.2050 1.1671
52.3300 25.1917 1.1675
52.3500 25.1784 1.1637
52.3700 25.1650 1.1650
52.3900 25.1516 1.1637
52.4100 25.1383 1.1615
52.4300 25.1250 1.1621
52.4500 25.1117 1.1591
52.4700 25.0983 1.1600
52.4900 25.0849 1.1571
52.5100 25.0716 1.1591
52.5300 25.0583 1.1535
52.5500 25.0450 1.1573
52.5700 25.0317 1.1529
52.5900 25.0183 1.1547
52.6100 25.0051 1.1506
52.6300 24.9918 1.1533
52.6500 24.9784 1.1479
52.6700 24.9650 1.1513
52.6900 24.9517 1.1474
52.7100 24.9384 1.1476
52.7300 24.9250 1.1458
52.7500 24.9116 1.1454
52.7700 24.8983 1.1434
52.7900 24.8850 1.1439
52.8100 24.8716 1.1427
52.8300 24.8583 1.1405
52.8500 24.8450 1.1410
52.8700 24.8316 1.1398
52.8900 24.8183 1.1381
52.9100 24.8050 1.1371
52.9300 24.7917 1.1370
52.9500 24.7783 1.1350
52.9700 24.7651 1.1347
52.9900 24.7518 1.1335
53.0100 24.7384 1.1322
53.0300 24.7250 1.1317
53.0500 24.7117 1.1308
53.0700 24.6984 1.1296
53.0900 24.6850 1.1285
53.1100 24.6717 1.1280
53.1300 24.6583 1.1262
53.1500 24.6450 1.1259
53.1700 24.6317 1.1255
53.1900 24.6183 1.1229
53.2100 24.6050 1.1235
53.2300 24.5916 1.1219
53.2500 24.5783 1.1200
53.2700 24.5650 1.1211
53.2900 24.5517 1.1187
53.3100 24.5383 1.1190
53.3300 24.5251 1.1157
53.3500 24.5117 1.1180
53.3700 24.4984 1.1134
53.3900 24.4851 1.1164
53.4100 24.4717 1.1131
53.4300 24.4584 1.1129
53.4500 24.4451 1.1104
53.4700 24.4317 1.1121
53.4900 24.4183 1.1089
53.5100 24.4050 1.1097
53.5300 24.3916 1.1078
53.5500 24.3783 1.1062
53.5700 24.3649 1.1067
53.5900 24.3516 1.1048
53.6100 24.3383 1.1048
53.6300 24.3250 1.1027
53.6500 24.3117 1.1032
53.6700 24.2983 1.1008
53.6900 24.2850 1.1009
53.7100 24.2717 1.1000
53.7300 24.2584 1.0984
53.7500 24.2450 1.0978
53.7700 24.2317 1.0979
53.7900 24.2184 1.0948
53.8100 24.2050 1.0955
53.8300 24.1917 1.0939
53.8500 24.1783 1.0934
53.8700 24.1649 1.0924
53.8900 24.1516 1.0912
53.9100 24.1383 1.0908
53.9300 24.1250 1.0892
53.9500 24.1116 1.0902
53.9700 24.0983 1.0870
53.9900 24.0850 1.0878
54.0100 24.0717 1.0852
54.0300 24.0583 1.0867
54.0500 24.0451 1.0828
54.0700 24.0318 1.0863
54.0900 24.0184 1.0806
54.1100 24.0051 1.0835
54.1300 23.9917 1.0798
54.1500 23.9784 1.0815
54.1700 23.9651 1.0771
54.1900 23.9517 1.0808
54.2100 23.9383 1.0760
54.2300 23.9249 1.0773
54.2500 23.9116 1.0760
54.2700 23.8983 1.0735
54.2900 23.8850 1.0756
54.3100 23.8716 1.0722
54.3300 23.8584 1.0739
54.3500 23.8451 1.0693
54.3700 23.8317 1.0734
54.3900 23.8184 1.0668
54.4100 23.8051 1.0712
54.4300 23.7918 1.0657
54.4500 23.7784 1.0691
54.4700 23.7651 1.0645
54.4900 23.7517 1.0673
54.5100 23.7384 1.0634
54.5300 23.7250 1.0638
54.5500 23.7117 1.0635
54.5700 23.6983 1.0614
54.5900 23.6850 1.0616
54.6100 23.6717 1.0602
54.6300 23.6583 1.0603
54.6500 23.6450 1.0571
54.6700 23.6316 1.0599
54.6900 23.6183 1.0559
54.7100 23.6050 1.0571
54.7300 23.5917 1.0546
54.7500 23.5783 1.0555
54.7700 23.5650 1.0527
54.7900 23.5517 1.0540
54.8100 23.5384 1.0504
54.8300 23.5250 1.0527
54.8500 23.5117 1.0487
54.8700 23.4984 1.0506
54.8900 23.4850 1.0468
54.9100 23.4717 1.0493
54.9300 23.4583 1.0463
54.9500 23.4450 1.0454
54.9700 23.4317 1.0465
54.9900 23.4183 1.0431
55.0100 23.4050 1.0443
55.0300 23.3916 1.0419
55.0500 23.3783 1.0433
55.0700 23.3650 1.0378
55.0900 23.3517 1.0438
55.1100 23.3383 1.0362
55.1300 23.3250 1.0410
55.1500 23.3117 1.0356
55.1700 23.2984 1.0382
55.1900 23.2850 1.0346
55.2100 23.2717 1.0366
55.2300 23.2584 1.0339
55.2500 23.2451 1.0332
55.2700 23.2317 1.0334
55.2900 23.2183 1.0313
55.3100 23.2050 1.0318
55.3300 23.1917 1.0301
55.3500 23.1783 1.0300
55.3700 23.1650 1.0282
55.3900 23.1516 1.0289
55.4100 23.1383 1.0263
55.4300 23.1250 1.0272
55.4500 23.1117 1.0249
55.4700 23.0983 1.0264
55.4900 23.0850 1.0229
55.5100 23.0717 1.0238
55.5300 23.0584 1.0225
55.5500 23.0450 1.0212
55.5700 23.0317 1.0213
55.5900 23.0184 1.0201
55.6100 23.0051 1.0185
55.6300 22.9917 1.0188
55.6500 22.9783 1.0176
55.6700 22.9649 1.0159
55.6900 22.9516 1.0176
55.7100 22.9383 1.0140
55.7300 22.9250 1.0158
55.7500 22.9116 1.0131
55.7700 22.8983 1.0148
55.7900 22.8850 1.0102
55.8100 22.8717 1.0142
55.8300 22.8584 1.0089
55.8500 22.8451 1.0114
55.8700 22.8318 1.0077
55.8900 22.8184 1.0098
55.9100 22.8051 1.0063
55.9300 22.7917 1.0083
55.9500 22.7784 1.0054
55.9700 22.7650 1.0062
55.9900 22.7517 1.0046
56.0100 22.7383 1.0037
56.0300 22.7249 1.0038
56.0500 22.7116 1.0008
56.0700 22.6983 1.0034
56.0900 22.6850 0.9980
56.1100 22.6716 1.0028
56.1300 22.6583 0.9971
56.1500 22.6450 0.9991
56.1700 22.6317 0.9970
56.1900 22.6183 0.9976
56.2100 22.6050 0.9952
56.2300 22.5917 0.9960
56.2500 22.5784 0.9944
56.2700 22.5650 0.9928
56.2900 22.5517 0.9943
56.3100 22.5384 0.9912
56.3300 22.5250 0.9925
56.3500 22.5117 0.9898
56.3700 22.4983 0.9914
56.3900 22.4850 0.9879
56.4100 22.4717 0.9902
56.4300 22.4583 0.9867
56.4500 22.4450 0.9878
56.4700 22.4316 0.9861
56.4900 22.4183 0.9868
56.5100 22.4050 0.9833
56.5300 22.3917 0.9856
56.5500 22.3784 0.9824
56.5700 22.3650 0.9839
56.5900 22.3517 0.9809
56.6100 22.3384 0.9822
56.6300 22.3250 0.9791
56.6500 22.3117 0.9805
56.6700 22.2983 0.9788
56.6900 22.2850 0.9776
56.7100 22.2717 0.9781
56.7300 22.2584 0.9756
56.7500 22.2450 0.9774
56.7700 22.2317 0.9734
56.7900 22.2184 0.9765
56.8100 22.2050 0.9710
56.8300 22.1916 0.9755
56.8500 22.1783 0.9707
56.8700 22.1650 0.9721
56.8900 22.1517 0.9698
56.9100 22.1383 0.9712
56.9300 22.1250 0.9684
56.9500 22.1117 0.9690
56.9700 22.0984 0.9686
56.9900 22.0851 0.9658
57.0100 22.0717 0.9677
57.0300 22.0584 0.9646
57.0500 22.0451 0.9661
57.0700 22.0317 0.9626
57.0900 22.0184 0.9656
57.1100 22.0050 0.9599
57.1300 21.9917 0.9640
57.1500 21.9783 0.9592
57.1700 21.9650 0.9619
57.1900 21.9516 0.9583
57.2100 21.9383 0.9608
57.2300 21.9250 0.9565
57.2500 21.9117 0.9588
57.2700 21.8983 0.9559
57.2900 21.8850 0.9576
57.3100 21.8717 0.9539
57.3300 21.8584 0.9555
57.3500 21.8451 0.9530
57.3700 21.8317 0.9534
57.3900 21.8184 0.9528
57.4100 21.8051 0.9512
57.4300 21.7917 0.9507
57.4500 21.7783 0.9502
57.4700 21.7650 0.9501
57.4900 21.7516 0.9485
57.5100 21.7383 0.9492
57.5300 21.7250 0.9462
57.5500 21.7116 0.9481
57.5700 21.6983 0.9453
57.5900 21.6850 0.9468
57.6100 21.6717 0.9442
57.6300 21.6583 0.9455
57.6500 21.6450 0.9422
57.6700 21.6317 0.9435
57.6900 21.6184 0.9420
57.7100 21.6051 0.9403
57.7300 21.5917 0.9416
57.7500 21.5783 0.9390
57.7700 21.5650 0.9402
57.7900 21.5517 0.9368
57.8100 21.5383 0.9393
57.8300 21.5250 0.9361
57.8500 21.5117 0.9373
57.8700 21.4983 0.9342
57.8900 21.4850 0.9361
57.9100 21.4716 0.9332
57.9300 21.4583 0.9349
57.9500 21.4450 0.9317
57.9700 21.4317 0.9327
57.9900 21.4183 0.9316
58.0100 21.4050 0.9305
58.0300 21.3917 0.9302
58.0500 21.3784 0.9294
58.0700 21.3650 0.9287
58.0900 21.3517 0.9275
58.1100 21.3384 0.9275
58.1300 21.3251 0.9264
58.1500 21.3117 0.9253
58.1700 21.2983 0.9250
58.1900 21.2850 0.9248
58.2100 21.2717 0.9232
58.2300 21.2584 0.9236
58.2500 21.2451 0.9214
58.2700 21.2317 0.9226
58.2900 21.2183 0.9211
58.3100 21.2050 0.9207
58.3300 21.1917 0.9198
58.3500 21.1783 0.9189
58.3700 21.1650 0.9189
58.3900 21.1517 0.9178
58.4100 21.1384 0.9172
58.4300 21.1251 0.9162
58.4500 21.1117 0.9155
58.4700 21.0984 0.9158
58.4900 21.0851 0.9145
58.5100 21.0717 0.9129
58.5300 21.0584 0.9145
58.5500 21.0450 0.9110
58.5700 21.0316 0.9127
58.5900 21.0183 0.9107
58.6100 21.0050 0.9111
58.6300 20.9916 0.9091
58.6500 20.9783 0.9100
58.6700 20.9650 0.9083
58.6900 20.9517 0.9083
58.7100 20.9383 0.9072
58.7300 20.9250 0.9072
58.7500 20.9117 0.9054
58.7700 20.8984 0.9057
58.7900 20.8851 0.9051
58.8100 20.8717 0.9029
58.8300 20.8584 0.9054
58.8500 20.8451 0.9006
58.8700 20.8317 0.9036
58.8900 20.8184 0.8998
58.9100 20.8050 0.9026
58.9300 20.7917 0.8981
58.9500 20.7784 0.9012
58.9700 20.7650 0.8972
58.9900 20.7516 0.8996
59.0100 20.7383 0.8964
59.0300 20.7250 0.8985
59.0500 20.7116 0.8942
59.0700 20.6983 0.8974
59.0900 20.6850 0.8938
59.1100 20.6717 0.8954
59.1300 20.6584 0.8931
59.1500 20.6451 0.8934
59.1700 20.6317 0.8916
59.1900 20.6184 0.8926
59.2100 20.6051 0.8906
59.2300 20.5917 0.8897
59.2500 20.5784 0.8906
59.2700 20.5650 0.8881
59.2900 20.5516 0.8894
59.3100 20.5383 0.8867
59.3300 20.5250 0.8883
59.3500 20.5116 0.8842
59.3700 20.4983 0.8881
59.3900 20.4850 0.8832
59.4100 20.4717 0.8864
59.4300 20.4584 0.8826
59.4500 20.4450 0.8848
59.4700 20.4317 0.8814
59.4900 20.4184 0.8830
59.5100 20.4051 0.8805
59.5300 20.3917 0.8803
59.5500 20.3784 0.8810
59.5700 20.3650 0.8782
59.5900 20.3517 0.8792
59.6100 20.3384 0.8771
59.6300 20.3250 0.8784
59.6500 20.3116 0.8753
59.6700 20.2983 0.8775
59.6900 20.2850 0.8739
59.7100 20.2716 0.8758
59.7300 20.2583 0.8733
59.7500 20.2450 0.8749
59.7700 20.2317 0.8715
59.7900 20.2183 0.8731
59.8100 20.2050 0.8715
59.8300 20.1917 0.8711
59.8500 20.1784 0.8704
59.8700 20.1651 0.8694
59.8900 20.1517 0.8694
59.9100 20.1383 0.8685
59.9300 20.1250 0.8685
59.9500 20.1117 0.8664
59.9700 20.0983 0.8669
59.9900 20.0850 0.8659
60.0100 20.0716 0.8658
60.0300 20.0583 0.8642
60.0500 20.0450 0.8655
60.0700 20.0316 0.8622
60.0900 20.0183 0.8642
60.1100 20.0050 0.8616
60.1300 19.9917 0.8623
60.1500 19.9784 0.8604
60.1700 19.9650 0.8612
60.1900 19.9517 0.8591
60.2100 19.9384 0.8596
60.2300 19.9251 0.8586
60.2500 19.9117 0.8576
60.2700 19.8983 0.8575
60.2900 19.8850 0.8565
60.3100 19.8717 0.8563
60.3300 19.8584 0.8548
60.3500 19.8450 0.8567
60.3700 19.8316 0.8528
60.3900 19.8183 0.8552
60.4100 19.8050 0.8514
60.4300 19.7916 0.8539
60.4500 19.7783 0.8505
60.4700 19.7650 0.8525
60.4900 19.7517 0.8498
60.5100 19.7383 0.8500
60.5300 19.7250 0.8500
60.5500 19.7117 0.8481
60.5700 19.6984 0.8482
60.5900 19.6851 0.8472
60.6100 19.6717 0.8474
60.6300 19.6584 0.8454
60.6500 19.6451 0.8466
60.6700 19.6318 0.8433
60.6900 19.6184 0.8451
60.7100 19.6050 0.8427
60.7300 19.5916 0.8437
60.7500 19.5783 0.8423
60.7700 19.5650 0.8423
60.7900 19.5516 0.8403
60.8100 19.5383 0.8404
60.8300 19.5249 0.8414
60.8500 19.5117 0.8389
60.8700 19.4983 0.8393
60.8900 19.4850 0.8378
60.9100 19.4717 0.8381
60.9300 19.4584 0.8367
60.9500 19.4451 0.8376
60.9700 19.4317 0.8342
60.9900 19.4184 0.8370
61.0100 19.4050 0.8327
61.0300 19.3917 0.8360
61.0500 19.3784 0.8312
61.0700 19.3650 0.8356
61.0900 19.3516 0.8298
61.1100 19.3383 0.8339
61.1300 19.3250 0.8289
61.1500 19.3116 0.8326
61.1700 19.2983 0.8279
61.1900 19.2850 0.8309
61.2100 19.2717 0.8271
61.2300 19.2584 0.8292
61.2500 19.2450 0.8268
61.2700 19.2317 0.8272
61.2900 19.2184 0.8265
61.3100 19.2051 0.8252
61.3300 19.1918 0.8253
61.3500 19.1784 0.8229
61.3700 19.1651 0.8256
61.3900 19.1517 0.8211
61.4100 19.1383 0.8239
61.4300 19.1249 0.8208
61.4500 19.1116 0.8225
61.4700 19.0983 0.8199
61.4900 19.0850 0.8211
61.5100 19.0716 0.8192
61.5300 19.0583 0.8194
61.5500 19.0450 0.8193
61.5700 19.0317 0.8175
61.5900 19.0184 0.8179
61.6100 19.0050 0.8165
61.6300 18.9917 0.8169
61.6500 18.9784 0.8150
61.6700 18.9651 0.8167
61.6900 18.9517 0.8131
61.7100 18.9384 0.8150
61.7300 18.9250 0.8123
61.7500 18.9117 0.8139
61.7700 18.8984 0.8102
61.7900 18.8850 0.8137
61.8100 18.8716 0.8091
61.8300 18.8583 0.8118
61.8500 18.8450 0.8085
61.8700 18.8317 0.8110
61.8900 18.8183 0.8067
61.9100 18.8050 0.8102
61.9300 18.7917 0.8056
61.9500 18.7783 0.8081
61.9700 18.7650 0.8058
61.9900 18.7517 0.8059
62.0100 18.7384 0.8054
62.0300 18.7251 0.8038
62.0500 18.7117 0.8055
62.0700 18.6984 0.8015
62.0900 18.6850 0.8050
62.1100 18.6717 0.8007
62.1300 18.6584 0.8027
62.1500 18.6450 0.8000
62.1700 18.6316 0.8019
62.1900 18.6183 0.7978
62.2100 18.6050 0.8009
62.2300 18.5917 0.7977
62.2500 18.5783 0.7986
62.2700 18.5650 0.7975
62.2900 18.5517 0.7961
62.3100 18.5383 0.7969
62.3300 18.5250 0.7949
62.3500 18.5117 0.7966
62.3700 18.4984 0.7928
62.3900 18.4851 0.7956
62.4100 18.4717 0.7922
62.4300 18.4584 0.7940
62.4500 18.4450 0.7915
62.4700 18.4317 0.7922
62.4900 18.4184 0.7895
62.5100 18.4050 0.7914
62.5300 18.3916 0.7891
62.5500 18.3783 0.7903
62.5700 18.3650 0.7877
62.5900 18.3517 0.7888
62.6100 18.3383 0.7865
62.6300 18.3250 0.7877
62.6500 18.3117 0.7863
62.6700 18.2984 0.7850
62.6900 18.2850 0.7858
62.7100 18.2717 0.7846
62.7300 18.2584 0.7841
62.7500 18.2451 0.7830
62.7700 18.2317 0.7838
62.7900 18.2183 0.7811
62.8100 18.2050 0.7835
62.8300 18.1917 0.7797
62.8500 18.1784 0.7816
62.8700 18.1650 0.7786
62.8900 18.1516 0.7811
62.9100 18.1383 0.7777
62.9300 18.1250 0.7797
62.9500 18.1117 0.7766
62.9700 18.0983 0.7774
62.9900 18.0850 0.7775
63.0100 18.0717 0.7757
63.0300 18.0584 0.7764
63.0500 18.0450 0.7739
63.0700 18.0317 0.7762
63.0900 18.0184 0.7728
63.1100 18.0051 0.7748
63.1300 17.9918 0.7714
63.1500 17.9784 0.7739
63.1700 17.9650 0.7703
63.1900 17.9517 0.7726
63.2100 17.9384 0.7689
63.2300 17.9250 0.7712
63.2500 17.9116 0.7685
63.2700 17.8983 0.7690
63.2900 17.8850 0.7685
63.3100 17.8717 0.7681
63.3300 17.8583 0.7669
63.3500 17.8450 0.7665
63.3700 17.8317 0.7665
63.3900 17.8184 0.7649
63.4100 17.8050 0.7652
63.4300 17.7917 0.7645
63.4500 17.7784 0.7639
63.4700 17.7651 0.7620
63.4900 17.7517 0.7639
63.5100 17.7384 0.7610
63.5300 17.7250 0.7638
63.5500 17.7117 0.7592
63.5700 17.6984 0.7616
63.5900 17.6850 0.7582
63.6100 17.6716 0.7607
63.6300 17.6583 0.7576
63.6500 17.6450 0.7592
63.6700 17.6317 0.7567
63.6900 17.6183 0.7573
63.7100 17.6050 0.7562
63.7300 17.5917 0.7567
63.7500 17.5784 0.7551
63.7700 17.5650 0.7548
63.7900 17.5517 0.7547
63.8100 17.5384 0.7521
63.8300 17.5251 0.7542
63.8500 17.5117 0.7516
63.8700 17.4984 0.7528
63.8900 17.4850 0.7506
63.9100 17.4717 0.7520
63.9300 17.4584 0.7487
63.9500 17.4450 0.7507
63.9700 17.4317 0.7486
63.9900 17.4183 0.7493
64.0100 17.4050 0.7468
64.0300 17.3917 0.7485
64.0500 17.3783 0.7463
64.0700 17.3650 0.7471
64.0900 17.3517 0.7461
64.1100 17.3384 0.7444
64.1300 17.3250 0.7453
64.1500 17.3117 0.7437
64.1700 17.2983 0.7442
64.1900 17.2851 0.7415
64.2100 17.2717 0.7441
64.2300 17.2584 0.7399
64.2500 17.2450 0.7429
64.2700 17.2317 0.7396
64.2900 17.2184 0.7408
64.3100 17.2050 0.7381
64.3300 17.1917 0.7405
64.3500 17.1783 0.7369
64.3700 17.1650 0.7389
64.3900 17.1516 0.7367
64.4100 17.1383 0.7373
64.4300 17.1249 0.7359
64.4500 17.1116 0.7364
64.4700 17.0983 0.7350
64.4900 17.0850 0.7346
64.5100 17.0717 0.7350
64.5300 17.0583 0.7329
64.5500 17.0451 0.7332
64.5700 17.0317 0.7324
64.5900 17.0184 0.7323
64.6100 17.0050 0.7313
64.6300 16.9917 0.7312
64.6500 16.9784 0.7302
64.6700 16.9651 0.7294
64.6900 16.9517 0.7298
64.7100 16.9383 0.7291
64.7300 16.9250 0.7275
64.7500 16.9117 0.7286
64.7700 16.8983 0.7265
64.7900 16.8849 0.7265
64.8100 16.8716 0.7264
64.8300 16.8583 0.7245
64.8500 16.8450 0.7260
64.8700 16.8317 0.7237
64.8900 16.8184 0.7248
64.9100 16.8051 0.7225
64.9300 16.7918 0.7239
64.9500 16.7784 0.7207
64.9700 16.7650 0.7233
64.9900 16.7517 0.7202
65.0100 16.7384 0.7218
65.0300 16.7250 0.7181
65.0500 16.7117 0.7209
65.0700 16.6983 0.7176
65.0900 16.6850 0.7191
65.1100 16.6717 0.7180
65.1300 16.6583 0.7177
65.1500 16.6449 0.7167
65.1700 16.6316 0.7165
65.1900 16.6183 0.7161
65.2100 16.6050 0.7151
65.2300 16.5917 0.7151
65.2500 16.5784 0.7138
65.2700 16.5651 0.7139
65.2900 16.5517 0.7128
65.3100 16.5384 0.7132
65.3300 16.5250 0.7115
65.3500 16.5117 0.7130
65.3700 16.4984 0.7092
65.3900 16.4850 0.7109
65.4100 16.4717 0.7096
65.4300 16.4583 0.7103
65.4500 16.4450 0.7074
65.4700 16.4317 0.7090
65.4900 16.4184 0.7071
65.5100 16.4050 0.7067
65.5300 16.3916 0.7068
65.5500 16.3783 0.7052
65.5700 16.3650 0.7060
65.5900 16.3517 0.7040
65.6100 16.3383 0.7053
65.6300 16.3250 0.7021
65.6500 16.3117 0.7056
65.6700 16.2984 0.7006
65.6900 16.2850 0.7040
65.7100 16.2717 0.6999
65.7300 16.2584 0.7037
65.7500 16.2450 0.6978
65.7700 16.2317 0.7024
65.7900 16.2183 0.6979
65.8100 16.2050 0.7000
65.8300 16.1917 0.6972
65.8500 16.1783 0.6986
65.8700 16.1650 0.6969
65.8900 16.1516 0.6971
65.9100 16.1383 0.6963
65.9300 16.1250 0.6948
65.9500 16.1116 0.6969
65.9700 16.0983 0.6932
65.9900 16.0850 0.6957
66.0100 16.0717 0.6918
66.0300 16.0584 0.6951
66.0500 16.0450 0.6900
66.0700 16.0317 0.6944
66.0900 16.0184 0.6899
66.1100 16.0050 0.6921
66.1300 15.9917 0.6894
66.1500 15.9783 0.6914
66.1700 15.9650 0.6873
66.1900 15.9517 0.6901
66.2100 15.9383 0.6875
66.2300 15.9250 0.6883
66.2500 15.9116 0.6870
66.2700 15.8983 0.6866
66.2900 15.8850 0.6855
66.3100 15.8717 0.6858
66.3300 15.8583 0.6860
66.3500 15.8450 0.6833
66.3700 15.8318 0.6855
66.3900 15.8184 0.6819
66.4100 15.8051 0.6845
66.4300 15.7917 0.6816
66.4500 15.7784 0.6836
66.4700 15.7651 0.6794
66.4900 15.7517 0.6827
66.5100 15.7383 0.6792
66.5300 15.7250 0.6805
66.5500 15.7116 0.6790
66.5700 15.6983 0.6791
66.5900 15.6850 0.6777
66.6100 15.6716 0.6777
66.6300 15.6584 0.6783
66.6500 15.6450 0.6741
66.6700 15.6317 0.6779
66.6900 15.6183 0.6736
66.7100 15.6050 0.6770
66.7300 15.5917 0.6723
66.7500 15.5784 0.6766
66.7700 15.5650 0.6704
66.7900 15.5517 0.6756
66.8100 15.5384 0.6704
66.8300 15.5250 0.6728
66.8500 15.5117 0.6699
66.8700 15.4983 0.6719
66.8900 15.4850 0.6686
66.9100 15.4716 0.6704
66.9300 15.4583 0.6690
66.9500 15.4450 0.6684
66.9700 15.4316 0.6685
66.9900 15.4183 0.6670
67.0100 15.4050 0.6672
67.0300 15.3917 0.6663
67.0500 15.3784 0.6664
67.0700 15.3651 0.6642
67.0900 15.3518 0.6649
67.1100 15.3384 0.6636
67.1300 15.3250 0.6643
67.1500 15.3117 0.6626
67.1700 15.2983 0.6634
67.1900 15.2850 0.6605
67.2100 15.2716 0.6626
67.2300 15.2583 0.6608
67.2500 15.2450 0.6604
67.2700 15.2317 0.6605
67.2900 15.2183 0.6582
67.3100 15.2050 0.6600
67.3300 15.1916 0.6568
67.3500 15.1783 0.6607
67.3700 15.1650 0.6542
67.3900 15.1517 0.6595
67.4100 15.1383 0.6544
67.4300 15.1250 0.6583
67.4500 15.1118 0.6526
67.4700 15.0984 0.6580
67.4900 15.0851 0.6508
67.5100 15.0717 0.6561
67.5300 15.0584 0.6517
67.5500 15.0450 0.6536
67.5700 15.0317 0.6515
67.5900 15.0183 0.6517
67.6100 15.0050 0.6516
67.6300 14.9916 0.6491
67.6500 14.9783 0.6521
67.6700 14.9650 0.6471
67.6900 14.9516 0.6511
67.7100 14.9383 0.6470
67.7300 14.9250 0.6493
67.7500 14.9117 0.6455
67.7700 14.8983 0.6489
67.7900 14.8850 0.6442
67.8100 14.8717 0.6480
67.8300 14.8584 0.6436
67.8500 14.8451 0.6464
67.8700 14.8317 0.6431
67.8900 14.8184 0.6450
67.9100 14.8051 0.6421
67.9300 14.7917 0.6431
67.9500 14.7783 0.6430
67.9700 14.7650 0.6406
67.9900 14.7516 0.6415
68.0100 14.7383 0.6406
68.0300 14.7249 0.6405
68.0500 14.7116 0.6385
68.0700 14.6983 0.6411
68.0900 14.6850 0.6361
68.1100 14.6717 0.6394
68.1300 14.6583 0.6362
68.1500 14.6450 0.6385
68.1700 14.6318 0.6346
68.1900 14.6184 0.6375
68.2100 14.6051 0.6337
68.2300 14.5917 0.6354
68.2500 14.5784 0.6347
68.2700 14.5650 0.6329
68.2900 14.5517 0.6338
68.3100 14.5383 0.6320
68.3300 14.5249 0.6328
68.3500 14.5116 0.6302
68.3700 14.4983 0.6326
68.3900 14.4850 0.6280
68.4100 14.4716 0.6326
68.4300 14.4583 0.6275
68.4500 14.4450 0.6305
68.4700 14.4317 0.6260
68.4900 14.4183 0.6305
68.5100 14.4050 0.6256
68.5300 14.3917 0.6280
68.5500 14.3784 0.6262
68.5700 14.3651 0.6255
68.5900 14.3517 0.6255
68.6100 14.3384 0.6240
68.6300 14.3250 0.6243
68.6500 14.3117 0.6225
68.6700 14.2983 0.6247
68.6900 14.2849 0.6209
68.7100 14.2716 0.6235
68.7300 14.2583 0.6205
68.7500 14.2450 0.6218
68.7700 14.2316 0.6196
68.7900 14.2183 0.6216
68.8100 14.2050 0.6183
68.8300 14.1917 0.6195
68.8500 14.1784 0.6182
68.8700 14.1650 0.6183
68.8900 14.1517 0.6174
68.9100 14.1384 0.6175
68.9300 14.1251 0.6160
68.9500 14.1117 0.6156
68.9700 14.0984 0.6160
68.9900 14.0850 0.6134
69.0100 14.0717 0.6153
69.0300 14.0583 0.6129
69.0500 14.0450 0.6150
69.0700 14.0317 0.6109
69.0900 14.0184 0.6141
69.1100 14.0050 0.6097
69.1300 13.9916 0.6129
69.1500 13.9783 0.6087
69.1700 13.9650 0.6124
69.1900 13.9517 0.6076
69.2100 13.9383 0.6110
69.2300 13.9250 0.6079
69.2500 13.9117 0.6080
69.2700 13.8984 0.6085
69.2900 13.8850 0.6063
69.3100 13.8717 0.6071
69.3300 13.8584 0.6054
69.3500 13.8450 0.6070
69.3700 13.8317 0.6027
69.3900 13.8183 0.6067
69.4100 13.8050 0.6018
69.4300 13.7917 0.6052
69.4500 13.7783 0.6006
69.4700 13.7650 0.6045
69.4900 13.7516 0.5996
69.5100 13.7383 0.6033
69.5300 13.7250 0.5998
69.5500 13.7117 0.6001
69.5700 13.6983 0.6003
69.5900 13.6850 0.5990
69.6100 13.6717 0.5986
69.6300 13.6584 0.5977
69.6500 13.6450 0.5985
69.6700 13.6317 0.5957
69.6900 13.6184 0.5986
69.7100 13.6050 0.5943
69.7300 13.5917 0.5969
69.7500 13.5783 0.5933
69.7700 13.5650 0.5959
69.7900 13.5517 0.5918
69.8100 13.5383 0.5955
69.8300 13.5250 0.5906
69.8500 13.5116 0.5932
69.8700 13.4983 0.5905
69.8900 13.4850 0.5920
69.9100 13.4717 0.5900
69.9300 13.4583 0.5900
69.9500 13.4450 0.5889
69.9700 13.4317 0.5888
69.9900 13.4184 0.5884
70.0100 13.4051 0.5880
70.0300 13.3917 0.5874
70.0500 13.3784 0.5864
70.0700 13.3651 0.5873
70.0900 13.3517 0.5834
70.1100 13.3383 0.5874
70.1300 13.3250 0.5836
70.1500 13.3116 0.5848
70.1700 13.2983 0.5828
70.1900 13.2850 0.5843
70.2100 13.2716 0.5818
70.2300 13.2583 0.5837
70.2500 13.2450 0.5808
70.2700 13.2317 0.5811
70.2900 13.2184 0.5811
70.3100 13.2051 0.5799
70.3300 13.1918 0.5808
70.3500 13.1784 0.5781
70.3700 13.1651 0.5805
70.3900 13.1517 0.5752
70.4100 13.1384 0.5805
70.4300 13.1250 0.5741
70.4500 13.1117 0.5786
70.4700 13.0983 0.5732
70.4900 13.0849 0.5784
70.5100 13.0716 0.5716
70.5300 13.0583 0.5768
70.5500 13.0450 0.5717
70.5700 13.0316 0.5742
70.5900 13.0183 0.5718
70.6100 13.0050 0.5731
70.6300 12.9917 0.5705
70.6500 12.9783 0.5720
70.6700 12.9650 0.5709
70.6900 12.9517 0.5692
70.7100 12.9384 0.5702
70.7300 12.9250 0.5689
70.7500 12.9117 0.5694
70.7700 12.8983 0.5672
70.7900 12.8850 0.5684
70.8100 12.8717 0.5651
70.8300 12.8583 0.5675
70.8500 12.8450 0.5658
70.8700 12.8317 0.5655
70.8900 12.8183 0.5644
70.9100 12.8050 0.5653
70.9300 12.7916 0.5630
70.9500 12.7783 0.5639
70.9700 12.7650 0.5630
70.9900 12.7517 0.5623
71.0100 12.7384 0.5616
71.0300 12.7250 0.5617
71.0500 12.7117 0.5609
71.0700 12.6984 0.5597
71.0900 12.6850 0.5610
71.1100 12.6717 0.5572
71.1300 12.6583 0.5609
71.1500 12.6450 0.5565
71.1700 12.6317 0.5584
71.1900 12.6184 0.5555
71.2100 12.6050 0.5590
71.2300 12.5917 0.5534
71.2500 12.5783 0.5572
71.2700 12.5650 0.5537
71.2900 12.5517 0.5548
71.3100 12.5383 0.5533
71.3300 12.5250 0.5536
71.3500 12.5117 0.5524
71.3700 12.4983 0.5518
71.3900 12.4850 0.5534
71.4100 12.4717 0.5494
71.4300 12.4584 0.5518
71.4500 12.4451 0.5492
71.4700 12.4317 0.5500
71.4900 12.4184 0.5482
71.5100 12.4051 0.5495
71.5300 12.3917 0.5467
71.5500 12.3784 0.5480
71.5700 12.3650 0.5465
71.5900 12.3516 0.5460
71.6100 12.3383 0.5454
71.6300 12.3250 0.5456
71.6500 12.3116 0.5435
71.6700 12.2983 0.5448
71.6900 12.2850 0.5437
71.7100 12.2717 0.5430
71.7300 12.2583 0.5421
71.7500 12.2450 0.5429
71.7700 12.2317 0.5412
71.7900 12.2184 0.5413
71.8100 12.2051 0.5407
71.8300 12.1917 0.5397
71.8500 12.1784 0.5401
71.8700 12.1650 0.5383
71.8900 12.1517 0.5391
71.9100 12.1384 0.5362
71.9300 12.1250 0.5397
71.9500 12.1116 0.5340
71.9700 12.0983 0.5384
71.9900 12.0850 0.5342
72.0100 12.0716 0.5365
72.0300 12.0583 0.5338
72.0500 12.0450 0.5356
72.0700 12.0317 0.5328
72.0900 12.0183 0.5329
72.1100 12.0050 0.5337
72.1300 11.9917 0.5309
72.1500 11.9784 0.5325
72.1700 11.9651 0.5300
72.1900 11.9517 0.5318
72.2100 11.9383 0.5283
72.2300 11.9250 0.5315
72.2500 11.9117 0.5266
72.2700 11.8984 0.5304
72.2900 11.8850 0.5262
72.3100 11.8717 0.5280
72.3300 11.8583 0.5260
72.3500 11.8450 0.5271
72.3700 11.8316 0.5251
72.3900 11.8183 0.5255
72.4100 11.8050 0.5250
72.4300 11.7917 0.5236
72.4500 11.7783 0.5239
72.4700 11.7650 0.5237
72.4900 11.7517 0.5223
72.5100 11.7384 0.5213
72.5300 11.7251 0.5228
72.5500 11.7117 0.5195
72.5700 11.6984 0.5226
72.5900 11.6851 0.5185
72.6100 11.6717 0.5208
72.6300 11.6584 0.5168
72.6500 11.6450 0.5204
72.6700 11.6317 0.5160
72.6900 11.6184 0.5184
72.7100 11.6051 0.5154
72.7300 11.5917 0.5173
72.7500 11.5783 0.5141
72.7700 11.5650 0.5164
72.7900 11.5517 0.5129
72.8100 11.5384 0.5146
72.8300 11.5250 0.5146
72.8500 11.5117 0.5115
72.8700 11.4984 0.5132
72.8900 11.4850 0.5106
72.9100 11.4717 0.5127
72.9300 11.4583 0.5086
72.9500 11.4450 0.5121
72.9700 11.4317 0.5075
72.9900 11.4184 0.5097
73.0100 11.4050 0.5080
73.0300 11.3917 0.5082
73.0500 11.3783 0.5064
73.0700 11.3650 0.5075
73.0900 11.3517 0.5052
73.1100 11.3383 0.5055
73.1300 11.3250 0.5066
73.1500 11.3117 0.5036
73.1700 11.2983 0.5052
73.1900 11.2850 0.5032
73.2100 11.2717 0.5039
73.2300 11.2584 0.5007
73.2500 11.2451 0.5040
73.2700 11.2317 0.5003
73.2900 11.2184 0.5021
73.3100 11.2050 0.5001
73.3300 11.1917 0.4997
73.3500 11.1784 0.4990
73.3700 11.1650 0.4998
73.3900 11.1516 0.4977
73.4100 11.1383 0.4976
73.4300 11.1250 0.4975
73.4500 11.1116 0.4963
73.4700 11.0983 0.4959
73.4900 11.0850 0.4955
73.5100 11.0717 0.4949
73.5300 11.0583 0.4941
73.5500 11.0450 0.4959
73.5700 11.0317 0.4922
73.5900 11.0184 0.4946
73.6100 11.0051 0.4916
73.6300 10.9917 0.4934
73.6500 10.9784 0.4901
73.6700 10.9651 0.4929
73.6900 10.9518 0.4886
73.7100 10.9384 0.4901
73.7300 10.9250 0.4887
73.7500 10.9116 0.4898
73.7700 10.8983 0.4872
73.7900 10.8850 0.4878
73.8100 10.8716 0.4878
73.8300 10.8583 0.4849
73.8500 10.8450 0.4876
73.8700 10.8317 0.4830
73.8900 10.8184 0.4869
73.9100 10.8050 0.4825
73.9300 10.7917 0.4867
73.9500 10.7784 0.4800
73.9700 10.7651 0.4853
73.9900 10.7517 0.4805
74.0100 10.7384 0.4827
74.0300 10.7250 0.4805
74.0500 10.7117 0.4807
74.0700 10.6984 0.4787
74.0900 10.6850 0.4803
74.1100 10.6716 0.4791
74.1300 10.6583 0.4779
74.1500 10.6450 0.4784
74.1700 10.6316 0.4761
74.1900 10.6183 0.4777
74.2100 10.6050 0.4749
74.2300 10.5917 0.4774
74.2500 10.5783 0.4734
74.2700 10.5650 0.4760
74.2900 10.5517 0.4729
74.3100 10.5384 0.4741
74.3300 10.5251 0.4725
74.3500 10.5117 0.4728
74.3700 10.4983 0.4706
74.3900 10.4850 0.4728
74.4100 10.4717 0.4690
74.4300 10.4583 0.4706
74.4500 10.4450 0.4698
74.4700 10.4316 0.4685
74.4900 10.4183 0.4686
74.5100 10.4050 0.4672
74.5300 10.3917 0.4684
74.5500 10.3783 0.4650
74.5700 10.3650 0.4684
74.5900 10.3517 0.4635
74.6100 10.3383 0.4664
74.6300 10.3250 0.4629
74.6500 10.3117 0.4661
74.6700 10.2984 0.4611
74.6900 10.2851 0.4651
74.7100 10.2717 0.4607
74.7300 10.2584 0.4631
74.7500 10.2450 0.4603
74.7700 10.2317 0.4614
74.7900 10.2184 0.4593
74.8100 10.2050 0.4590
74.8300 10.1916 0.4602
74.8500 10.1783 0.4562
74.8700 10.1650 0.4598
74.8900 10.1517 0.4556
74.9100 10.1383 0.4579
74.9300 10.1250 0.4549
74.9500 10.1117 0.4564
74.9700 10.0983 0.4532
74.9900 10.0850 0.4566
75.0100 10.0717 0.4528
75.0300 10.0584 0.4540
75.0500 10.0451 0.4522
75.0700 10.0317 0.4536
75.0900 10.0184 0.4506
75.1100 10.0051 0.4521
75.1300 9.9918 0.4505
75.1500 9.9784 0.4494
75.1700 9.9650 0.4500
75.1900 9.9516 0.4488
75.2100 9.9383 0.4487
75.2300 9.9250 0.4474
75.2500 9.9116 0.4480
75.2700 9.8982 0.4458
75.2900 9.8849 0.4479
75.3100 9.8717 0.4451
75.3300 9.8583 0.4458
75.3500 9.8450 0.4439
75.3700 9.8317 0.4458
75.3900 9.8184 0.4418
75.4100 9.8051 0.4437
75.4300 9.7917 0.4419
75.4500 9.7784 0.4425
75.4700 9.7650 0.4416
75.4900 9.7517 0.4411
75.5100 9.7384 0.4404
75.5300 9.7250 0.4391
75.5500 9.7116 0.4408
75.5700 9.6983 0.4363
75.5900 9.6850 0.4403
75.6100 9.6716 0.4359
75.6300 9.6583 0.4386
75.6500 9.6450 0.4345
75.6700 9.6317 0.4379
75.6900 9.6184 0.4329
75.7100 9.6050 0.4363
75.7300 9.5917 0.4329
75.7500 9.5784 0.4343
75.7700 9.5651 0.4315
75.7900 9.5518 0.4335
75.8100 9.5384 0.4314
75.8300 9.5251 0.4312
75.8500 9.5117 0.4315
75.8700 9.4984 0.4289
75.8900 9.4850 0.4302
75.9100 9.4716 0.4283
75.9300 9.4583 0.4285
75.9500 9.4450 0.4271
75.9700 9.4316 0.4287
75.9900 9.4183 0.4247
76.0100 9.4050 0.4274
76.0300 9.3917 0.4241
76.0500 9.3784 0.4261
76.0700 9.3650 0.4223
76.0900 9.3517 0.4259
76.1100 9.3384 0.4216
76.1300 9.3251 0.4236
76.1500 9.3118 0.4217
76.1700 9.2984 0.4215
76.1900 9.2850 0.4206
76.2100 9.2717 0.4199
76.2300 9.2584 0.4194
76.2500 9.2450 0.4183
76.2700 9.2316 0.4196
76.2900 9.2183 0.4157
76.3100 9.2050 0.4189
76.3300 9.1917 0.4148
76.3500 9.1783 0.4182
76.3700 9.1650 0.4134
76.3900 9.1517 0.4174
76.4100 9.1383 0.4116
76.4300 9.1250 0.4155
76.4500 9.1116 0.4133
76.4700 9.0983 0.4131
76.4900 9.0851 0.4120
76.5100 9.0717 0.4121
76.5300 9.0584 0.4109
76.5500 9.0450 0.4098
76.5700 9.0317 0.4108
76.5900 9.0184 0.4080
76.6100 9.0050 0.4099
76.6300 8.9916 0.4066
76.6500 8.9783 0.4091
76.6700 8.9650 0.4051
76.6900 8.9516 0.4092
76.7100 8.9383 0.4030
76.7300 8.9250 0.4075
76.7500 8.9117 0.4033
76.7700 8.8983 0.4053
76.7900 8.8850 0.4032
76.8100 8.8716 0.4046
76.8300 8.8584 0.4014
76.8500 8.8450 0.4020
76.8700 8.8317 0.4021
76.8900 8.8184 0.3999
76.9100 8.8050 0.4015
76.9300 8.7917 0.3990
76.9500 8.7784 0.4006
76.9700 8.7651 0.3965
76.9900 8.7517 0.4009
77.0100 8.7384 0.3942
77.0300 8.7250 0.3984
77.0500 8.7117 0.3951
77.0700 8.6983 0.3965
77.0900 8.6849 0.3945
77.1100 8.6716 0.3957
77.1300 8.6583 0.3932
77.1500 8.6450 0.3935
77.1700 8.6317 0.3929
77.1900 8.6184 0.3918
77.2100 8.6051 0.3914
77.2300 8.5917 0.3916
77.2500 8.5784 0.3905
77.2700 8.5650 0.3890
77.2900 8.5517 0.3908
77.3100 8.5384 0.3864
77.3300 8.5250 0.3895
77.3500 8.5116 0.3866
77.3700 8.4983 0.3888
77.3900 8.4850 0.3846
77.4100 8.4717 0.3879
77.4300 8.4583 0.3837
77.4500 8.4450 0.3861
77.4700 8.4317 0.3834
77.4900 8.4184 0.3834
77.5100 8.4051 0.3825
77.5300 8.3917 0.3833
77.5500 8.3784 0.3822
77.5700 8.3651 0.3790
77.5900 8.3518 0.3830
77.6100 8.3384 0.3770
77.6300 8.3250 0.3818
77.6500 8.3117 0.3768
77.6700 8.2984 0.3803
77.6900 8.2850 0.3748
77.7100 8.2716 0.3797
77.7300 8.2583 0.3741
77.7500 8.2450 0.3772
77.7700 8.2317 0.3743
77.7900 8.2183 0.3757
77.8100 8.2050 0.3730
77.8300 8.1917 0.3747
77.8500 8.1784 0.3727
77.8700 8.1650 0.3721
77.8900 8.1517 0.3727
77.9100 8.1383 0.3704
77.9300 8.1250 0.3713
77.9500 8.1117 0.3697
77.9700 8.0984 0.3700
77.9900 8.0850 0.3678
78.0100 8.0717 0.3698
78.0300 8.0584 0.3662
78.0500 8.0450 0.3670
78.0700 8.0316 0.3663
78.0900 8.0183 0.3668
78.1100 8.0050 0.3640
78.1300 7.9917 0.3656
78.1500 7.9783 0.3634
78.1700 7.9650 0.3632
78.1900 7.9517 0.3634
78.2100 7.9384 0.3617
78.2300 7.9250 0.3610
78.2500 7.9117 0.3616
78.2700 7.8983 0.3612
78.2900 7.8850 0.3589
78.3100 7.8717 0.3614
78.3300 7.8584 0.3572
78.3500 7.8450 0.3601
78.3700 7.8317 0.3559
78.3900 7.8184 0.3591
78.4100 7.8050 0.3542
78.4300 7.7917 0.3579
78.4500 7.7783 0.3539
78.4700 7.7650 0.3558
78.4900 7.7517 0.3529
78.5100 7.7383 0.3545
78.5300 7.7250 0.3518
78.5500 7.7117 0.3530
78.5700 7.6984 0.3513
78.5900 7.6850 0.3502
78.6100 7.6717 0.3517
78.6300 7.6583 0.3487
78.6500 7.6451 0.3509
78.6700 7.6317 0.3469
78.6900 7.6184 0.3498
78.7100 7.6050 0.3453
78.7300 7.5917 0.3492
78.7500 7.5784 0.3450
78.7700 7.5650 0.3466
78.7900 7.5517 0.3444
78.8100 7.5383 0.3457
78.8300 7.5250 0.3425
78.8500 7.5117 0.3442
78.8700 7.4983 0.3424
78.8900 7.4850 0.3413
78.9100 7.4716 0.3426
78.9300 7.4583 0.3399
78.9500 7.4450 0.3410
78.9700 7.4317 0.3383
78.9900 7.4183 0.3406
79.0100 7.4050 0.3362
79.0300 7.3917 0.3397
79.0500 7.3784 0.3355
79.0700 7.3650 0.3371
79.0900 7.3517 0.3353
79.1100 7.3384 0.3361
79.1300 7.3251 0.3332
79.1500 7.3117 0.3361
79.1700 7.2983 0.3331
79.1900 7.2849 0.3335
79.2100 7.2716 0.3322
79.2300 7.2583 0.3315
79.2500 7.2449 0.3319
79.2700 7.2316 0.3300
79.2900 7.2183 0.3310
79.3100 7.2050 0.3278
79.3300 7.1917 0.3306
79.3500 7.1784 0.3273
79.3700 7.1651 0.3291
79.3900 7.1517 0.3256
79.4100 7.1384 0.3279
79.4300 7.1250 0.3239
79.4500 7.1117 0.3268
79.4700 7.0984 0.3234
79.4900 7.0850 0.3248
79.5100 7.0717 0.3234
79.5300 7.0583 0.3230
79.5500 7.0450 0.3226
79.5700 7.0317 0.3215
79.5900 7.0183 0.3227
79.6100 7.0050 0.3178
79.6300 6.9916 0.3222
79.6500 6.9784 0.3175
79.6700 6.9650 0.3199
79.6900 6.9517 0.3163
79.7100 6.9384 0.3197
79.7300 6.9251 0.3144
79.7500 6.9118 0.3182
79.7700 6.8984 0.3136
79.7900 6.8850 0.3166
79.8100 6.8717 0.3141
79.8300 6.8584 0.3147
79.8500 6.8451 0.3121
79.8700 6.8317 0.3135
79.8900 6.8183 0.3122
79.9100 6.8050 0.3112
79.9300 6.7917 0.3111
79.9500 6.7784 0.3100
79.9700 6.7650 0.3100
79.9900 6.7516 0.3079
80.0100 6.7383 0.3091
80.0300 6.7250 0.3070
80.0500 6.7117 0.3081
80.0700 6.6983 0.3060
80.0900 6.6850 0.3062
80.1100 6.6717 0.3050
80.1300 6.6584 0.3061
80.1500 6.6450 0.3033
80.1700 6.6317 0.3041
80.1900 6.6184 0.3032
80.2100 6.6051 0.3015
80.2300 6.5917 0.3020
80.2500 6.5783 0.3008
80.2700 6.5650 0.3007
80.2900 6.5517 0.2985
80.3100 6.5383 0.3001
80.3300 6.5249 0.2967
80.3500 6.5116 0.2995
80.3700 6.4983 0.2961
80.3900 6.4850 0.2980
80.4100 6.4716 0.2943
80.4300 6.4583 0.2979
80.4500 6.4450 0.2926
80.4700 6.4317 0.2956
80.4900 6.4184 0.2924
80.5100 6.4050 0.2942
80.5300 6.3917 0.2910
80.5500 6.3784 0.2926
80.5700 6.3651 0.2902
80.5900 6.3517 0.2904
80.6100 6.3383 0.2901
80.6300 6.3250 0.2878
80.6500 6.3117 0.2885
80.6700 6.2983 0.2872
80.6900 6.2850 0.2875
80.7100 6.2716 0.2859
80.7300 6.2583 0.2871
80.7500 6.2450 0.2841
80.7700 6.2317 0.2854
80.7900 6.2183 0.2842
80.8100 6.2050 0.2835
80.8300 6.1917 0.2827
80.8500 6.1784 0.2818
80.8700 6.1651 0.2819
80.8900 6.1517 0.2800
80.9100 6.1384 0.2806
80.9300 6.1251 0.2785
80.9500 6.1117 0.2798
80.9700 6.0983 0.2786
80.9900 6.0850 0.2779
81.0100 6.0716 0.2771
81.0300 6.0583 0.2764
81.0500 6.0450 0.2752
81.0700 6.0316 0.2758
81.0900 6.0183 0.2742
81.1100 6.0050 0.2740
81.1300 5.9917 0.2729
81.1500 5.9783 0.2735
81.1700 5.9650 0.2715
81.1900 5.9518 0.2720
81.2100 5.9384 0.2705
81.2300 5.9251 0.2706
81.2500 5.9117 0.2698
81.2700 5.8984 0.2689
81.2900 5.8850 0.2686
81.3100 5.8717 0.2670
81.3300 5.8583 0.2676
81.3500 5.8449 0.2656
81.3700 5.8316 0.2668
81.3900 5.8183 0.2633
81.4100 5.8049 0.2663
81.4300 5.7916 0.2620
81.4500 5.7783 0.2656
81.4700 5.7650 0.2606
81.4900 5.7517 0.2634
81.5100 5.7383 0.2606
81.5300 5.7250 0.2614
81.5500 5.7118 0.2596
81.5700 5.6984 0.2605
81.5900 5.6850 0.2585
81.6100 5.6717 0.2585
81.6300 5.6583 0.2591
81.6500 5.6450 0.2570
81.6700 5.6316 0.2577
81.6900 5.6183 0.2557
81.7100 5.6050 0.2569
81.7300 5.5916 0.2537
81.7500 5.5783 0.2563
81.7700 5.5650 0.2531
81.7900 5.5516 0.2543
81.8100 5.5383 0.2525
81.8300 5.5250 0.2527
81.8500 5.5117 0.2512
81.8700 5.4983 0.2515
81.8900 5.4850 0.2498
81.9100 5.4717 0.2494
81.9300 5.4584 0.2492
81.9500 5.4451 0.2478
81.9700 5.4317 0.2474
81.9900 5.4184 0.2477
82.0100 5.4051 0.2470
82.0300 5.3917 0.2446
82.0500 5.3783 0.2460
82.0700 5.3650 0.2435
82.0900 5.3516 0.2442
82.1100 5.3383 0.2428
82.1300 5.3250 0.2430
82.1500 5.3116 0.2411
82.1700 5.2983 0.2425
82.1900 5.2850 0.2405
82.2100 5.2717 0.2403
82.2300 5.2583 0.2394
82.2500 5.2450 0.2394
82.2700 5.2317 0.2373
82.2900 5.2184 0.2383
82.3100 5.2051 0.2372
82.3300 5.1917 0.2353
82.3500 5.1784 0.2374
82.3700 5.1651 0.2335
82.3900 5.1517 0.2351
82.4100 5.1383 0.2327
82.4300 5.1250 0.2338
82.4500 5.1117 0.2316
82.4700 5.0983 0.2324
82.4900 5.0849 0.2310
82.5100 5.0716 0.2303
82.5300 5.0583 0.2303
82.5500 5.0450 0.2286
82.5700 5.0317 0.2292
82.5900 5.0183 0.2278
82.6100 5.0050 0.2289
82.6300 4.9917 0.2250
82.6500 4.9784 0.2278
82.6700 4.9651 0.2240
82.6900 4.9517 0.2258
82.7100 4.9384 0.2232
82.7300 4.9250 0.2246
82.7500 4.9117 0.2213
82.7700 4.8983 0.2234
82.7900 4.8849 0.2215
82.8100 4.8716 0.2216
82.8300 4.8583 0.2195
82.8500 4.8450 0.2205
82.8700 4.8316 0.2179
82.8900 4.8183 0.2194
82.9100 4.8050 0.2180
82.9300 4.7917 0.2169
82.9500 4.7783 0.2170
82.9700 4.7650 0.2162
82.9900 4.7517 0.2158
83.0100 4.7384 0.2143
83.0300 4.7251 0.2153
83.0500 4.7117 0.2119
83.0700 4.6984 0.2152
83.0900 4.6850 0.2107
83.1100 4.6717 0.2138
83.1300 4.6583 0.2095
83.1500 4.6449 0.2122
83.1700 4.6316 0.2076
83.1900 4.6183 0.2102
83.2100 4.6049 0.2075
83.2300 4.5916 0.2082
83.2500 4.5783 0.2072
83.2700 4.5651 0.2065
83.2900 4.5517 0.2062
83.3100 4.5384 0.2035
83.3300 4.5250 0.2066
83.3500 4.5117 0.2008
83.3700 4.4984 0.2057
83.3900 4.4851 0.1998
83.4100 4.4717 0.2043
83.4300 4.4584 0.1987
83.4500 4.4450 0.2025
83.4700 4.4317 0.1979
83.4900 4.4183 0.2007
83.5100 4.4050 0.1978
83.5300 4.3917 0.1982
83.5500 4.3784 0.1963
83.5700 4.3650 0.1970
83.5900 4.3516 0.1953
83.6100 4.3383 0.1955
83.6300 4.3250 0.1945
83.6500 4.3117 0.1930
83.6700 4.2983 0.1944
83.6900 4.2850 0.1919
83.7100 4.2717 0.1925
83.7300 4.2584 0.1906
83.7500 4.2450 0.1913
83.7700 4.2317 0.1886
83.7900 4.2184 0.1900
83.8100 4.2050 0.1879
83.8300 4.1917 0.1879
83.8500 4.1783 0.1862
83.8700 4.1650 0.1877
83.8900 4.1517 0.1839
83.9100 4.1383 0.1860
83.9300 4.1250 0.1837
83.9500 4.1116 0.1832
83.9700 4.0983 0.1842
83.9900 4.0850 0.1818
84.0100 4.0717 0.1830
84.0300 4.0583 0.1796
84.0500 4.0450 0.1830
84.0700 4.0317 0.1768
84.0900 4.0184 0.1811
84.1100 4.0050 0.1763
84.1300 3.9917 0.1799
84.1500 3.9783 0.1756
84.1700 3.9650 0.1786
84.1900 3.9517 0.1740
84.2100 3.9383 0.1762
84.2300 3.9250 0.1747
84.2500 3.9117 0.1731
84.2700 3.8983 0.1738
84.2900 3.8850 0.1715
84.3100 3.8716 0.1735
84.3300 3.8583 0.1691
84.3500 3.8450 0.1729
84.3700 3.8317 0.1680
84.3900 3.8183 0.1707
84.4100 3.8050 0.1679
84.4300 3.7917 0.1683
84.4500 3.7784 0.1662
84.4700 3.7650 0.1673
84.4900 3.7517 0.1649
84.5100 3.7383 0.1654
84.5300 3.7250 0.1643
84.5500 3.7117 0.1630
84.5700 3.6983 0.1634
84.5900 3.6849 0.1623
84.6100 3.6716 0.1631
84.6300 3.6583 0.1605
84.6500 3.6450 0.1615
84.6700 3.6316 0.1583
84.6900 3.6183 0.1607
84.7100 3.6050 0.1573
84.7300 3.5917 0.1584
84.7500 3.5784 0.1554
84.7700 3.5650 0.1580
84.7900 3.5517 0.1537
84.8100 3.5384 0.1560
84.8300 3.5251 0.1525
84.8500 3.5117 0.1547
84.8700 3.4984 0.1509
84.8900 3.4850 0.1540
84.9100 3.4717 0.1500
84.9300 3.4583 0.1512
84.9500 3.4449 0.1498
84.9700 3.4316 0.1482
84.9900 3.4184 0.1490
85.0100 3.4050 0.1465
85.0300 3.3917 0.1480
85.0500 3.3783 0.1441
85.0700 3.3650 0.1476
85.0900 3.3517 0.1424
85.1100 3.3384 0.1461
85.1300 3.3250 0.1418
85.1500 3.3117 0.1449
85.1700 3.2984 0.1407
85.1900 3.2851 0.1430
85.2100 3.2717 0.1398
85.2300 3.2584 0.1401
85.2500 3.2451 0.1403
85.2700 3.2317 0.1378
85.2900 3.2184 0.1402
85.3100 3.2050 0.1363
85.3300 3.1917 0.1388
85.3500 3.1784 0.1339
85.3700 3.1650 0.1377
85.3900 3.1516 0.1324
85.4100 3.1383 0.1358
85.4300 3.1250 0.1318
85.4500 3.1117 0.1335
85.4700 3.0984 0.1301
85.4900 3.0850 0.1327
85.5100 3.0717 0.1293
85.5300 3.0584 0.1307
85.5500 3.0450 0.1283
85.5700 3.0317 0.1291
85.5900 3.0183 0.1265
85.6100 3.0050 0.1272
85.6300 2.9917 0.1262
85.6500 2.9783 0.1247
85.6700 2.9650 0.1252
85.6900 2.9517 0.1234
85.7100 2.9383 0.1239
85.7300 2.9250 0.1217
85.7500 2.9117 0.1233
85.7700 2.8983 0.1189
85.7900 2.8850 0.1222
85.8100 2.8717 0.1166
85.8300 2.8583 0.1208
85.8500 2.8450 0.1162
85.8700 2.8317 0.1200
85.8900 2.8184 0.1152
85.9100 2.8051 0.1172
85.9300 2.7917 0.1149
85.9500 2.7784 0.1142
85.9700 2.7651 0.1148
85.9900 2.7517 0.1117
86.0100 2.7384 0.1138
86.0300 2.7250 0.1094
86.0500 2.7116 0.1130
86.0700 2.6983 0.1070
86.0900 2.6850 0.1115
86.1100 2.6716 0.1056
86.1300 2.6583 0.1098
86.1500 2.6450 0.1039
86.1700 2.6317 0.1074
86.1900 2.6183 0.1034
86.2100 2.6050 0.1054
86.2300 2.5917 0.1037
86.2500 2.5784 0.1028
86.2700 2.5651 0.1033
86.2900 2.5517 0.0997
86.3100 2.5383 0.1020
86.3300 2.5250 0.0985
86.3500 2.5117 0.1002
86.3700 2.4984 0.0969
86.3900 2.4850 0.0983
86.4100 2.4716 0.0954
86.4300 2.4583 0.0966
86.4500 2.4450 0.0941
86.4700 2.4316 0.0957
86.4900 2.4183 0.0927
86.5100 2.4050 0.0934
86.5300 2.3917 0.0915
86.5500 2.3783 0.0914
86.5700 2.3650 0.0906
86.5900 2.3517 0.0891
86.6100 2.3384 0.0891
86.6300 2.3251 0.0869
86.6500 2.3117 0.0885
86.6700 2.2984 0.0851
86.6900 2.2850 0.0878
86.7100 2.2717 0.0832
86.7300 2.2584 0.0863
86.7500 2.2450 0.0812
86.7700 2.2317 0.0854
86.7900 2.2183 0.0788
86.8100 2.2050 0.0835
86.8300 2.1916 0.0777
86.8500 2.1783 0.0808
86.8700 2.1650 0.0781
86.8900 2.1517 0.0784
86.9100 2.1384 0.0777
86.9300 2.1250 0.0757
86.9500 2.1117 0.0775
86.9700 2.0984 0.0736
86.9900 2.0850 0.0767
87.0100 2.0717 0.0718
87.0300 2.0583 0.0750
87.0500 2.0450 0.0694
87.0700 2.0317 0.0731
87.0900 2.0184 0.0676
87.1100 2.0050 0.0714
87.1300 1.9916 0.0681
87.1500 1.9784 0.0689
87.1700 1.9651 0.0675
87.1900 1.9517 0.0667
87.2100 1.9383 0.0661
87.2300 1.9250 0.0645
87.2500 1.9117 0.0657
87.2700 1.8984 0.0615
87.2900 1.8850 0.0643
87.3100 1.8717 0.0599
87.3300 1.8584 0.0629
87.3500 1.8451 0.0583
87.3700 1.8317 0.0619
87.3900 1.8184 0.0568
87.4100 1.8050 0.0586
87.4300 1.7917 0.0555
87.4500 1.7784 0.0566
87.4700 1.7650 0.0537
87.4900 1.7517 0.0565
87.5100 1.7383 0.0517
87.5300 1.7250 0.0538
87.5500 1.7117 0.0514
87.5700 1.6983 0.0515
87.5900 1.6850 0.0493
87.6100 1.6717 0.0499
87.6300 1.6583 0.0483
87.6500 1.6450 0.0477
87.6700 1.6317 0.0481
87.6900 1.6184 0.0447
87.7100 1.6051 0.0461
87.7300 1.5918 0.0436
87.7500 1.5784 0.0450
87.7700 1.5650 0.0408
87.7900 1.5517 0.0443
87.8100 1.5384 0.0390
87.8300 1.5250 0.0411
87.8500 1.5117 0.0395
87.8700 1.4984 0.0387
87.8900 1.4850 0.0374
87.9100 1.4717 0.0363
87.9300 1.4583 0.0373
87.9500 1.4449 0.0333
87.9700 1.4316 0.0357
87.9900 1.4183 0.0316
88.0100 1.4050 0.0339
88.0300 1.3917 0.0312
88.0500 1.3784 0.0314
88.0700 1.3651 0.0285
88.0900 1.3518 0.0297
88.1100 1.3384 0.0275
88.1300 1.3251 0.0268
88.1500 1.3117 0.0272
88.1700 1.2984 0.0248
88.1900 1.2850 0.0245
88.2100 1.2716 0.0237
88.2300 1.2583 0.0233
88.2500 1.2450 0.0208
88.2700 1.2316 0.0222
88.2900 1.2183 0.0197
88.3100 1.2050 0.0199
88.3300 1.1917 0.0184
88.3500 1.1784 0.0184
88.3700 1.1650 0.0156
88.3900 1.1517 0.0183
88.4100 1.1384 0.0129
88.4300 1.1251 0.0160
88.4500 1.1117 0.0111
88.4700 1.0984 0.0141
88.4900 1.0850 0.0101
88.5100 1.0717 0.0120
88.5300 1.0584 0.0087
88.5500 1.0450 0.0091
88.5700 1.0316 0.0086
88.5900 1.0183 0.0067
88.6100 1.0050 0.0062
88.6300 0.9916 0.0053
88.6500 0.9783 0.0052
88.6700 0.9650 0.0023
88.6900 0.9517 0.0046
88.7100 0.9384 -0.0003
88.7300 0.9250 0.0031
88.7500 0.9117 -0.0018
88.7700 0.8984 0.0018
88.7900 0.8851 -0.0039
88.8100 0.8718 0.0001
88.8300 0.8584 -0.0051
88.8500 0.8450 -0.0018
88.8700 0.8317 -0.0040
88.8900 0.8183 -0.0037
88.9100 0.8050 -0.0057
88.9300 0.7916 -0.0060
88.9500 0.7783 -0.0070
88.9700 0.7650 -0.0099
88.9900 0.7517 -0.0077
89.0100 0.7383 -0.0120
89.0300 0.7250 -0.0093
89.0500 0.7117 -0.0141
89.0700 0.6984 -0.0109
89.0900 0.6850 -0.0170
89.1100 0.6717 -0.0119
89.1300 0.6584 -0.0182
89.1500 0.6451 -0.0149
89.1700 0.6318 -0.0188
89.1900 0.6184 -0.0170
89.2100 0.6050 -0.0207
89.2300 0.5917 -0.0190
89.2500 0.5784 -0.0214
89.2700 0.5650 -0.0222
89.2900 0.5516 -0.0219
89.3100 0.5383 -0.0239
89.3300 0.5250 -0.0233
89.3500 0.5117 -0.0256
89.3700 0.4983 -0.0238
89.3900 0.4850 -0.0281
89.4100 0.4716 -0.0246
89.4300 0.4583 -0.0292
89.4500 0.4450 -0.0269
89.4700 0.4317 -0.0291
89.4900 0.4184 -0.0279
89.5100 0.4051 -0.0308
89.5300 0.3917 -0.0283
89.5500 0.3784 -0.0305
89.5700 0.3651 -0.0309
89.5900 0.3518 -0.0303
89.6100 0.3384 -0.0316
89.6300 0.3250 -0.0314
89.6500 0.3116 -0.0325
89.6700 0.2983 -0.0308
89.6900 0.2850 -0.0345
89.7100 0.2716 -0.0306
89.7300 0.2583 -0.0353
89.7500 0.2449 -0.0316
89.7700 0.2316 -0.0351
89.7900 0.2183 -0.0323
89.8100 0.2050 -0.0353
89.8300 0.1917 -0.0328
89.8500 0.1784 -0.0340
89.8700 0.1651 -0.0348
89.8900 0.1517 -0.0333
89.9100 0.1384 -0.0349
89.9300 0.1250 -0.0336
89.9500 0.1117 -0.0348
89.9700 0.0984 -0.0331
89.9900 0.0850 -0.0364
90.0100 0.0716 -0.0319
90.0300 0.0583 -0.0357
90.0500 0.0450 -0.0330
90.0700 0.0316 -0.0354
90.0900 0.0183 -0.0328
90.1100 0.0050 -0.0349
90.1180 -0.0002 -0.0317
