Raw Data
Time Displacement Force
(s) (mm) (N)
0.0000 0.0000 -0.0186
0.0200 0.0001 -0.0178
0.0400 0.0018 -0.0054
0.0600 0.0089 -0.0086
0.0800 0.0205 -0.0135
0.1000 0.0329 -0.0146
0.1200 0.0455 -0.0096
0.1400 0.0589 -0.0073
0.1600 0.0730 -0.0064
0.1800 0.0872 -0.0044
0.2000 0.1012 -0.0023
0.2200 0.1148 -0.0003
0.2400 0.1282 0.0016
0.2600 0.1415 0.0055
0.2800 0.1548 0.0056
0.3000 0.1681 0.0094
0.3200 0.1815 0.0098
0.3400 0.1948 0.0133
0.3600 0.2081 0.0137
0.3800 0.2214 0.0195
0.4000 0.2348 0.0178
0.4200 0.2481 0.0213
0.4400 0.2615 0.0232
0.4600 0.2748 0.0251
0.4800 0.2881 0.0276
0.5000 0.3015 0.0293
0.5200 0.3149 0.0321
0.5400 0.3282 0.0320
0.5600 0.3415 0.0362
0.5800 0.3549 0.0355
0.6000 0.3682 0.0403
0.6200 0.3816 0.0396
0.6400 0.3949 0.0445
0.6600 0.4081 0.0434
0.6800 0.4214 0.0494
0.7000 0.4348 0.0477
0.7200 0.4481 0.0523
0.7400 0.4615 0.0527
0.7600 0.4748 0.0560
0.7800 0.4882 0.0571
0.8000 0.5015 0.0596
0.8200 0.5148 0.0620
0.8400 0.5282 0.0626
0.8600 0.5416 0.0675
0.8800 0.5549 0.0666
0.9000 0.5682 0.0708
0.9200 0.5815 0.0712
0.9400 0.5949 0.0751
0.9600 0.6082 0.0747
0.9800 0.6216 0.0794
1.0000 0.6348 0.0785
1.0200 0.6481 0.0832
1.0400 0.6615 0.0826
1.0600 0.6748 0.0870
1.0800 0.6882 0.0865
1.1000 0.7014 0.0908
1.1200 0.7148 0.0914
1.1400 0.7281 0.0933
1.1600 0.7415 0.0961
1.1800 0.7548 0.0968
1.2000 0.7682 0.0994
1.2200 0.7815 0.1004
1.2400 0.7949 0.1041
1.2600 0.8082 0.1035
1.2800 0.8215 0.1089
1.3000 0.8348 0.1070
1.3200 0.8482 0.1121
1.3400 0.8616 0.1108
1.3600 0.8749 0.1169
1.3800 0.8882 0.1138
1.4000 0.9016 0.1202
1.4200 0.9149 0.1186
1.4400 0.9282 0.1217
1.4600 0.9415 0.1245
1.4800 0.9548 0.1253
1.5000 0.9681 0.1275
1.5200 0.9814 0.1289
1.5400 0.9948 0.1313
1.5600 1.0081 0.1312
1.5800 1.0215 0.1359
1.6000 1.0349 0.1348
1.6200 1.0482 0.1391
1.6400 1.0616 0.1385
1.6600 1.0749 0.1433
1.6800 1.0883 0.1416
1.7000 1.1016 0.1468
1.7200 1.1149 0.1461
1.7400 1.1282 0.1489
1.7600 1.1415 0.1511
1.7800 1.1548 0.1524
1.8000 1.1682 0.1539
1.8200 1.1815 0.1562
1.8400 1.1948 0.1575
1.8600 1.2081 0.1588
1.8800 1.2215 0.1618
1.9000 1.2348 0.1623
1.9200 1.2482 0.1645
1.9400 1.2615 0.1657
1.9600 1.2749 0.1683
1.9800 1.2883 0.1675
2.0000 1.3016 0.1725
2.0200 1.3149 0.1724
2.0400 1.3282 0.1750
2.0600 1.3416 0.1758
2.0800 1.3549 0.1794
2.1000 1.3682 0.1781
2.1200 1.3815 0.1826
2.1400 1.3949 0.1827
2.1600 1.4082 0.1846
2.1800 1.4215 0.1863
2.2000 1.4348 0.1887
2.2200 1.4481 0.1891
2.2400 1.4615 0.1910
2.2600 1.4748 0.1945
2.2800 1.4882 0.1930
2.3000 1.5015 0.1980
2.3200 1.5149 0.1971
2.3400 1.5283 0.2000
2.3600 1.5416 0.2002
2.3800 1.5549 0.2044
2.4000 1.5682 0.2024
2.4200 1.5816 0.2066
2.4400 1.5949 0.2072
2.4600 1.6082 0.2084
2.4800 1.6215 0.2109
2.5000 1.6348 0.2122
2.5200 1.6482 0.2141
2.5400 1.6614 0.2146
2.5600 1.6747 0.2187
2.5800 1.6881 0.2165
2.6000 1.7015 0.2212
2.6200 1.7148 0.2203
2.6400 1.7282 0.2238
2.6600 1.7415 0.2231
2.6800 1.7549 0.2278
2.7000 1.7683 0.2252
2.7200 1.7816 0.2306
2.7400 1.7949 0.2297
2.7600 1.8082 0.2326
2.7800 1.8216 0.2332
2.8000 1.8349 0.2357
2.8200 1.8482 0.2357
2.8400 1.8615 0.2391
2.8600 1.8748 0.2393
2.8800 1.8882 0.2405
2.9000 1.9015 0.2428
2.9200 1.9148 0.2444
2.9400 1.9282 0.2454
2.9600 1.9415 0.2455
2.9800 1.9548 0.2496
3.0000 1.9682 0.2481
3.0200 1.9815 0.2520
3.0400 1.9949 0.2516
3.0600 2.0082 0.2542
3.0800 2.0215 0.2547
3.1000 2.0348 0.2581
3.1200 2.0482 0.2576
3.1400 2.0616 0.2606
3.1600 2.0749 0.2617
3.1800 2.0882 0.2623
3.2000 2.1015 0.2646
3.2200 2.1148 0.2658
3.2400 2.1282 0.2673
3.2600 2.1415 0.2678
3.2800 2.1548 0.2717
3.3000 2.1681 0.2693
3.3200 2.1815 0.2751
3.3400 2.1948 0.2733
3.3600 2.2082 0.2771
3.3800 2.2215 0.2764
3.4000 2.2349 0.2798
3.4200 2.2482 0.2783
3.4400 2.2615 0.2827
3.4600 2.2748 0.2830
3.4800 2.2882 0.2838
3.5000 2.3016 0.2854
3.5200 2.3149 0.2873
3.5400 2.3282 0.2885
3.5600 2.3415 0.2893
3.5800 2.3549 0.2923
3.6000 2.3682 0.2892
3.6200 2.3815 0.2956
3.6400 2.3948 0.2934
3.6600 2.4081 0.2979
3.6800 2.4214 0.2958
3.7000 2.4348 0.3011
3.7200 2.4481 0.2988
3.7400 2.4615 0.3030
3.7600 2.4749 0.3026
3.7800 2.4883 0.3059
3.8000 2.5016 0.3048
3.8200 2.5149 0.3093
3.8400 2.5283 0.3084
3.8600 2.5416 0.3110
3.8800 2.5549 0.3118
3.9000 2.5682 0.3127
3.9200 2.5815 0.3147
3.9400 2.5948 0.3154
3.9600 2.6082 0.3167
3.9800 2.6215 0.3176
4.0000 2.6348 0.3213
4.0200 2.6481 0.3199
4.0400 2.6615 0.3228
4.0600 2.6749 0.3228
4.0800 2.6882 0.3255
4.1000 2.7015 0.3252
4.1200 2.7149 0.3291
4.1400 2.7283 0.3264
4.1600 2.7416 0.3301
4.1800 2.7549 0.3306
4.2000 2.7682 0.3318
4.2200 2.7816 0.3330
4.2400 2.7949 0.3346
4.2600 2.8082 0.3364
4.2800 2.8215 0.3356
4.3000 2.8348 0.3408
4.3200 2.8482 0.3381
4.3400 2.8615 0.3428
4.3600 2.8748 0.3411
4.3800 2.8881 0.3453
4.4000 2.9015 0.3433
4.4200 2.9148 0.3482
4.4400 2.9282 0.3457
4.4600 2.9415 0.3493
4.4800 2.9549 0.3499
4.5000 2.9682 0.3509
4.5200 2.9815 0.3521
4.5400 2.9949 0.3547
4.5600 3.0082 0.3556
4.5800 3.0216 0.3556
4.6000 3.0349 0.3585
4.6200 3.0482 0.3586
4.6400 3.0615 0.3604
4.6600 3.0748 0.3614
4.6800 3.0882 0.3637
4.7000 3.1015 0.3629
4.7200 3.1148 0.3673
4.7400 3.1281 0.3652
4.7600 3.1415 0.3686
4.7800 3.1549 0.3682
4.8000 3.1682 0.3710
4.8200 3.1815 0.3705
4.8400 3.1949 0.3739
4.8600 3.2082 0.3729
4.8800 3.2216 0.3750
4.9000 3.2349 0.3762
4.9200 3.2482 0.3764
4.9400 3.2615 0.3762
4.9600 3.2749 0.3789
4.9800 3.2882 0.3802
5.0000 3.3015 0.3808
5.0200 3.3148 0.3840
5.0400 3.3282 0.3830
5.0600 3.3415 0.3864
5.0800 3.3548 0.3864
5.1000 3.3681 0.3887
5.1200 3.3815 0.3883
5.1400 3.3948 0.3907
5.1600 3.4082 0.3919
5.1800 3.4215 0.3926
5.2000 3.4349 0.3954
5.2200 3.4482 0.3940
5.2400 3.4616 0.3977
5.2600 3.4749 0.3966
5.2800 3.4882 0.4008
5.3000 3.5016 0.3977
5.3200 3.5149 0.4032
5.3400 3.5282 0.4011
5.3600 3.5416 0.4050
5.3800 3.5549 0.4044
5.4000 3.5682 0.4068
5.4200 3.5815 0.4057
5.4400 3.5948 0.4099
5.4600 3.6081 0.4086
5.4800 3.6215 0.4112
5.5000 3.6348 0.4110
5.5200 3.6481 0.4140
5.5400 3.6615 0.4135
5.5600 3.6749 0.4166
5.5800 3.6883 0.4159
5.6000 3.7016 0.4174
5.6200 3.7149 0.4189
5.6400 3.7282 0.4196
5.6600 3.7416 0.4204
5.6800 3.7549 0.4221
5.7000 3.7682 0.4236
5.7200 3.7815 0.4227
5.7400 3.7948 0.4275
5.7600 3.8082 0.4248
5.7800 3.8215 0.4290
5.8000 3.8348 0.4259
5.8200 3.8481 0.4308
5.8400 3.8615 0.4276
5.8600 3.8748 0.4326
5.8800 3.8881 0.4303
5.9000 3.9015 0.4334
5.9200 3.9148 0.4342
5.9400 3.9282 0.4361
5.9600 3.9416 0.4362
5.9800 3.9549 0.4389
6.0000 3.9682 0.4399
6.0200 3.9816 0.4392
6.0400 3.9949 0.4437
6.0600 4.0082 0.4406
6.0800 4.0215 0.4458
6.1000 4.0348 0.4435
6.1200 4.0482 0.4473
6.1400 4.0615 0.4451
6.1600 4.0748 0.4498
6.1800 4.0881 0.4487
6.2000 4.1015 0.4500
6.2200 4.1149 0.4509
6.2400 4.1282 0.4530
6.2600 4.1416 0.4527
6.2800 4.1549 0.4557
6.3000 4.1683 0.4552
6.3200 4.1816 0.4572
6.3400 4.1949 0.4591
6.3600 4.2082 0.4590
6.3800 4.2215 0.4613
6.4000 4.2349 0.4608
6.4200 4.2482 0.4648
6.4400 4.2615 0.4616
6.4600 4.2749 0.4661
6.4800 4.2882 0.4645
6.5000 4.3015 0.4669
6.5200 4.3148 0.4667
6.5400 4.3281 0.4709
6.5600 4.3415 0.4680
6.5800 4.3548 0.4728
6.6000 4.3681 0.4710
6.6200 4.3815 0.4742
6.6400 4.3948 0.4744
6.6600 4.4082 0.4753
6.6800 4.4216 0.4755
6.7000 4.4349 0.4770
6.7200 4.4482 0.4786
6.7400 4.4616 0.4768
6.7600 4.4749 0.4798
6.7800 4.4882 0.4781
6.8000 4.5015 0.4815
6.8200 4.5149 0.4812
6.8400 4.5282 0.4848
6.8600 4.5415 0.4831
6.8800 4.5548 0.4873
6.9000 4.5681 0.4861
6.9200 4.5814 0.4877
6.9400 4.5948 0.4887
6.9600 4.6081 0.4901
6.9800 4.6215 0.4911
7.0000 4.6348 0.4912
7.0200 4.6482 0.4951
7.0400 4.6616 0.4921
7.0600 4.6749 0.4972
7.0800 4.6882 0.4954
7.1000 4.7016 0.4989
7.1200 4.7149 0.4971
7.1400 4.7282 0.5010
7.1600 4.7415 0.4995
7.1800 4.7549 0.5030
7.2000 4.7682 0.5031
7.2200 4.7815 0.5027
7.2400 4.7948 0.5043
7.2600 4.8081 0.5061
7.2800 4.8215 0.5060
7.3000 4.8348 0.5066
7.3200 4.8481 0.5090
7.3400 4.8615 0.5080
7.3600 4.8748 0.5103
7.3800 4.8882 0.5106
7.4000 4.9016 0.5128
7.4200 4.9149 0.5119
7.4400 4.9282 0.5157
7.4600 4.9416 0.5136
7.4800 4.9549 0.5183
7.5000 4.9683 0.5168
7.5200 4.9815 0.5197
7.5400 4.9948 0.5181
7.5600 5.0082 0.5230
7.5800 5.0215 0.5193
7.6000 5.0348 0.5241
7.6200 5.0481 0.5234
7.6400 5.0615 0.5253
7.6600 5.0748 0.5249
7.6800 5.0882 0.5257
7.7000 5.1015 0.5272
7.7200 5.1148 0.5264
7.7400 5.1282 0.5312
7.7600 5.1416 0.5273
7.7800 5.1549 0.5328
7.8000 5.1682 0.5303
7.8200 5.1815 0.5346
7.8400 5.1949 0.5320
7.8600 5.2082 0.5364
7.8800 5.2215 0.5321
7.9000 5.2348 0.5372
7.9200 5.2481 0.5353
7.9400 5.2615 0.5382
7.9600 5.2748 0.5383
7.9800 5.2881 0.5408
8.0000 5.3015 0.5409
8.0200 5.3148 0.5409
8.0400 5.3282 0.5454
8.0600 5.3415 0.5416
8.0800 5.3549 0.5469
8.1000 5.3682 0.5448
8.1200 5.3816 0.5477
8.1400 5.3949 0.5470
8.1600 5.4082 0.5507
8.1800 5.4216 0.5485
8.2000 5.4349 0.5522
8.2200 5.4482 0.5512
8.2400 5.4615 0.5540
8.2600 5.4748 0.5528
8.2800 5.4882 0.5563
8.3000 5.5015 0.5546
8.3200 5.5148 0.5570
8.3400 5.5281 0.5579
8.3600 5.5414 0.5573
8.3800 5.5548 0.5596
8.4000 5.5682 0.5588
8.4200 5.5815 0.5604
8.4400 5.5948 0.5608
8.4600 5.6082 0.5644
8.4800 5.6216 0.5623
8.5000 5.6349 0.5664
8.5200 5.6482 0.5644
8.5400 5.6615 0.5688
8.5600 5.6749 0.5650
8.5800 5.6882 0.5708
8.6000 5.7016 0.5680
8.6200 5.7149 0.5713
8.6400 5.7282 0.5703
8.6600 5.7416 0.5709
8.6800 5.7549 0.5728
8.7000 5.7682 0.5738
8.7200 5.7814 0.5752
8.7400 5.7948 0.5745
8.7600 5.8081 0.5780
8.7800 5.8214 0.5755
8.8000 5.8348 0.5795
8.8200 5.8482 0.5780
8.8400 5.8616 0.5816
8.8600 5.8749 0.5783
8.8800 5.8883 0.5823
8.9000 5.9016 0.5791
8.9200 5.9150 0.5813
8.9400 5.9283 0.5824
8.9600 5.9416 0.5833
8.9800 5.9549 0.5849
9.0000 5.9682 0.5852
9.0200 5.9815 0.5874
9.0400 5.9948 0.5869
9.0600 6.0081 0.5900
9.0800 6.0214 0.5887
9.1000 6.0348 0.5912
9.1200 6.0482 0.5915
9.1400 6.0615 0.5933
9.1600 6.0748 0.5922
9.1800 6.0882 0.5951
9.2000 6.1016 0.5941
9.2200 6.1149 0.5963
9.2400 6.1282 0.5970
9.2600 6.1415 0.5988
9.2800 6.1549 0.5979
9.3000 6.1683 0.5980
9.3200 6.1815 0.5963
9.3400 6.1948 0.5950
9.3600 6.2082 0.5983
9.3800 6.2215 0.5979
9.4000 6.2348 0.6013
9.4200 6.2481 0.6012
9.4400 6.2614 0.6035
9.4600 6.2748 0.6023
9.4800 6.2882 0.6071
9.5000 6.3015 0.6047
9.5200 6.3148 0.6083
9.5400 6.3282 0.6064
9.5600 6.3416 0.6094
9.5800 6.3549 0.6069
9.6000 6.3682 0.6116
9.6200 6.3816 0.6099
9.6400 6.3949 0.6124
9.6600 6.4082 0.6125
9.6800 6.4215 0.6142
9.7000 6.4348 0.6143
9.7200 6.4482 0.6157
9.7400 6.4615 0.6160
9.7600 6.4748 0.6159
9.7800 6.4881 0.6176
9.8000 6.5014 0.6173
9.8200 6.5148 0.6195
9.8400 6.5282 0.6184
9.8600 6.5415 0.6228
9.8800 6.5548 0.6201
9.9000 6.5682 0.6240
9.9200 6.5816 0.6225
9.9400 6.5949 0.6247
9.9600 6.6082 0.6255
9.9800 6.6216 0.6260
10.0000 6.6349 0.6262
10.0200 6.6482 0.6277
10.0400 6.6615 0.6288
10.0600 6.6748 0.6287
10.0800 6.6882 0.6316
10.1000 6.7015 0.6309
10.1200 6.7148 0.6324
10.1400 6.7282 0.6327
10.1600 6.7415 0.6348
10.1800 6.7548 0.6336
10.2000 6.7682 0.6364
10.2200 6.7815 0.6337
10.2400 6.7948 0.6361
10.2600 6.8082 0.6346
10.2800 6.8216 0.6376
10.3000 6.8349 0.6366
10.3200 6.8482 0.6409
10.3400 6.8615 0.6396
10.3600 6.8749 0.6417
10.3800 6.8883 0.6411
10.4000 6.9016 0.6448
10.4200 6.9149 0.6427
10.4400 6.9282 0.6457
10.4600 6.9415 0.6458
10.4800 6.9548 0.6458
10.5000 6.9681 0.6491
10.5200 6.9814 0.6472
10.5400 6.9948 0.6509
10.5600 7.0081 0.6487
10.5800 7.0215 0.6527
10.6000 7.0348 0.6498
10.6200 7.0482 0.6547
10.6400 7.0615 0.6525
10.6600 7.0749 0.6551
10.6800 7.0882 0.6547
10.7000 7.1015 0.6574
10.7200 7.1149 0.6562
10.7400 7.1282 0.6582
10.7600 7.1415 0.6588
10.7800 7.1548 0.6585
10.8000 7.1682 0.6614
10.8200 7.1815 0.6600
10.8400 7.1949 0.6625
10.8600 7.2081 0.6622
10.8800 7.2214 0.6652
10.9000 7.2348 0.6631
10.9200 7.2481 0.6657
10.9400 7.2614 0.6657
10.9600 7.2748 0.6663
10.9800 7.2882 0.6670
11.0000 7.3016 0.6684
11.0200 7.3150 0.6678
11.0400 7.3283 0.6703
11.0600 7.3416 0.6710
11.0800 7.3549 0.6713
11.1000 7.3683 0.6729
11.1200 7.3816 0.6731
11.1400 7.3948 0.6747
11.1600 7.4081 0.6744
11.1800 7.4215 0.6768
11.2000 7.4348 0.6754
11.2200 7.4481 0.6777
11.2400 7.4614 0.6759
11.2600 7.4748 0.6782
11.2800 7.4882 0.6765
11.3000 7.5015 0.6817
11.3200 7.5149 0.6783
11.3400 7.5282 0.6836
11.3600 7.5416 0.6809
11.3800 7.5549 0.6841
11.4000 7.5682 0.6829
11.4200 7.5815 0.6857
11.4400 7.5949 0.6860
11.4600 7.6082 0.6860
11.4800 7.6215 0.6885
11.5000 7.6348 0.6866
11.5200 7.6482 0.6902
11.5400 7.6615 0.6875
11.5600 7.6749 0.6907
11.5800 7.6882 0.6888
11.6000 7.7015 0.6934
11.6200 7.7148 0.6909
11.6400 7.7282 0.6943
11.6600 7.7415 0.6931
11.6800 7.7548 0.6941
11.7000 7.7682 0.6942
11.7200 7.7816 0.6966
11.7400 7.7949 0.6960
11.7600 7.8082 0.6979
11.7800 7.8215 0.6989
11.8000 7.8349 0.6987
11.8200 7.8483 0.7011
11.8400 7.8616 0.7005
11.8600 7.8749 0.7030
11.8800 7.8882 0.7020
11.9000 7.9015 0.7048
11.9200 7.9148 0.7022
11.9400 7.9281 0.7056
11.9600 7.9414 0.7047
11.9800 7.9548 0.7072
12.0000 7.9682 0.7060
12.0200 7.9815 0.7094
12.0400 7.9948 0.7073
12.0600 8.0082 0.7105
12.0800 8.0216 0.7096
12.1000 8.0349 0.7117
12.1200 8.0482 0.7108
12.1400 8.0615 0.7128
12.1600 8.0749 0.7128
12.1800 8.0882 0.7138
12.2000 8.1016 0.7153
12.2200 8.1149 0.7152
12.2400 8.1282 0.7179
12.2600 8.1415 0.7161
12.2800 8.1549 0.7197
12.3000 8.1682 0.7181
12.3200 8.1815 0.7224
12.3400 8.1948 0.7185
12.3600 8.2082 0.7230
12.3800 8.2215 0.7209
12.4000 8.2348 0.7241
12.4200 8.2482 0.7230
12.4400 8.2615 0.7255
12.4600 8.2749 0.7249
12.4800 8.2882 0.7254
12.5000 8.3015 0.7264
12.5200 8.3149 0.7255
12.5400 8.3282 0.7272
12.5600 8.3416 0.7274
12.5800 8.3549 0.7291
12.6000 8.3682 0.7289
12.6200 8.3815 0.7353
12.6400 8.3949 0.7278
12.6600 8.4082 0.7329
12.6800 8.4215 0.7325
12.7000 8.4348 0.7365
12.7200 8.4481 0.7334
12.7400 8.4614 0.7378
12.7600 8.4748 0.7344
12.7800 8.4881 0.7379
12.8000 8.5016 0.7379
12.8200 8.5149 0.7380
12.8400 8.5282 0.7394
12.8600 8.5415 0.7390
12.8800 8.5549 0.7394
12.9000 8.5683 0.7397
12.9200 8.5816 0.7435
12.9400 8.5949 0.7422
12.9600 8.6082 0.7446
12.9800 8.6215 0.7423
13.0000 8.6349 0.7462
13.0200 8.6482 0.7436
13.0400 8.6615 0.7482
13.0600 8.6748 0.7457
13.0800 8.6881 0.7477
13.1000 8.7015 0.7483
13.1200 8.7148 0.7494
13.1400 8.7282 0.7496
13.1600 8.7415 0.7505
13.1800 8.7549 0.7511
13.2000 8.7682 0.7519
13.2200 8.7815 0.7544
13.2400 8.7949 0.7526
13.2600 8.8082 0.7556
13.2800 8.8215 0.7526
13.3000 8.8348 0.7579
13.3200 8.8481 0.7536
13.3400 8.8615 0.7581
13.3600 8.8749 0.7554
13.3800 8.8882 0.7583
13.4000 8.9015 0.7579
13.4200 8.9148 0.7600
13.4400 8.9282 0.7605
13.4600 8.9415 0.7611
13.4800 8.9549 0.7621
13.5000 8.9682 0.7616
13.5200 8.9816 0.7645
13.5400 8.9949 0.7619
13.5600 9.0082 0.7658
13.5800 9.0215 0.7633
13.6000 9.0348 0.7682
13.6200 9.0482 0.7638
13.6400 9.0616 0.7689
13.6600 9.0749 0.7660
13.6800 9.0882 0.7691
13.7000 9.1015 0.7680
13.7200 9.1149 0.7713
13.7400 9.1282 0.7697
13.7600 9.1415 0.7733
13.7800 9.1548 0.7714
13.8000 9.1682 0.7744
13.8200 9.1815 0.7730
13.8400 9.1948 0.7773
13.8600 9.2081 0.7745
13.8800 9.2215 0.7781
13.9000 9.2349 0.7767
13.9200 9.2482 0.7788
13.9400 9.2615 0.7787
13.9600 9.2749 0.7797
13.9800 9.2883 0.7801
14.0000 9.3016 0.7809
14.0200 9.3149 0.7829
14.0400 9.3282 0.7824
14.0600 9.3415 0.7845
14.0800 9.3549 0.7840
14.1000 9.3682 0.7852
14.1200 9.3815 0.7857
14.1400 9.3948 0.7868
14.1600 9.4081 0.7871
14.1800 9.4215 0.7863
14.2000 9.4348 0.7889
14.2200 9.4482 0.7858
14.2400 9.4615 0.7914
14.2600 9.4749 0.7871
14.2800 9.4882 0.7929
14.3000 9.5015 0.7887
14.3200 9.5149 0.7946
14.3400 9.5282 0.7897
14.3600 9.5416 0.7960
14.3800 9.5549 0.7927
14.4000 9.5682 0.7965
14.4200 9.5815 0.7935
14.4400 9.5949 0.7975
14.4600 9.6082 0.7970
14.4800 9.6215 0.7978
14.5000 9.6348 0.7979
14.5200 9.6482 0.7992
14.5400 9.6615 0.7987
14.5600 9.6748 0.8013
14.5800 9.6881 0.7991
14.6000 9.7015 0.8009
14.6200 9.7149 0.8011
14.6400 9.7282 0.8016
14.6600 9.7415 0.8018
14.6800 9.7549 0.8021
14.7000 9.7683 0.8020
14.7200 9.7816 0.8035
14.7400 9.7949 0.8046
14.7600 9.8082 0.8055
14.7800 9.8215 0.8073
14.8000 9.8349 0.8069
14.8200 9.8482 0.8087
14.8400 9.8615 0.8086
14.8600 9.8748 0.8104
14.8800 9.8881 0.8096
14.9000 9.9015 0.8104
14.9200 9.9148 0.8127
14.9400 9.9281 0.8105
14.9600 9.9415 0.8156
14.9800 9.9549 0.8127
15.0000 9.9683 0.8165
15.0200 9.9816 0.8136
15.0400 9.9949 0.8184
15.0600 10.0082 0.8158
15.0800 10.0216 0.8201
15.1000 10.0349 0.8170
15.1200 10.0482 0.8210
15.1400 10.0615 0.8195
15.1600 10.0748 0.8220
15.1800 10.0882 0.8213
15.2000 10.1015 0.8226
15.2200 10.1148 0.8242
15.2400 10.1281 0.8218
15.2600 10.1415 0.8246
15.2800 10.1548 0.8236
15.3000 10.1682 0.8254
15.3200 10.1815 0.8250
15.3400 10.1949 0.8271
15.3600 10.2082 0.8263
15.3800 10.2215 0.8285
15.4000 10.2349 0.8285
15.4200 10.2482 0.8294
15.4400 10.2616 0.8291
15.4600 10.2749 0.8320
15.4800 10.2882 0.8307
15.5000 10.3015 0.8335
15.5200 10.3148 0.8322
15.5400 10.3282 0.8346
15.5600 10.3415 0.8337
15.5800 10.3548 0.8367
15.6000 10.3681 0.8353
15.6200 10.3815 0.8372
15.6400 10.3948 0.8369
15.6600 10.4082 0.8381
15.6800 10.4215 0.8390
15.7000 10.4349 0.8398
15.7200 10.4482 0.8410
15.7400 10.4615 0.8399
15.7600 10.4748 0.8429
15.7800 10.4882 0.8403
15.8000 10.5016 0.8429
15.8200 10.5149 0.8413
15.8400 10.5282 0.8445
15.8600 10.5416 0.8433
15.8800 10.5549 0.8460
15.9000 10.5682 0.8454
15.9200 10.5815 0.8466
15.9400 10.5948 0.8483
15.9600 10.6081 0.8476
15.9800 10.6214 0.8489
16.0000 10.6348 0.8492
16.0200 10.6481 0.8513
16.0400 10.6615 0.8493
16.0600 10.6749 0.8537
16.0800 10.6883 0.8499
16.1000 10.7016 0.8541
16.1200 10.7149 0.8523
16.1400 10.7283 0.8552
16.1600 10.7416 0.8539
16.1800 10.7549 0.8566
16.2000 10.7682 0.8550
16.2200 10.7815 0.8570
16.2400 10.7948 0.8568
16.2600 10.8082 0.8585
16.2800 10.8215 0.8582
16.3000 10.8348 0.8600
16.3200 10.8481 0.8596
16.3400 10.8615 0.8610
16.3600 10.8748 0.8614
16.3800 10.8881 0.8629
16.4000 10.9015 0.8622
16.4200 10.9149 0.8634
16.4400 10.9283 0.8633
16.4600 10.9416 0.8637
16.4800 10.9549 0.8661
16.5000 10.9682 0.8656
16.5200 10.9816 0.8672
16.5400 10.9949 0.8672
16.5600 11.0082 0.8686
16.5800 11.0215 0.8681
16.6000 11.0348 0.8698
16.6200 11.0482 0.8696
16.6400 11.0615 0.8709
16.6600 11.0748 0.8719
16.6800 11.0881 0.8713
16.7000 11.1015 0.8729
16.7200 11.1148 0.8710
16.7400 11.1282 0.8739
16.7600 11.1415 0.8716
16.7800 11.1549 0.8766
16.8000 11.1682 0.8718
16.8200 11.1816 0.8786
16.8400 11.1949 0.8750
16.8600 11.2082 0.8791
16.8800 11.2216 0.8763
16.9000 11.2349 0.8792
16.9200 11.2482 0.8792
16.9400 11.2615 0.8800
16.9600 11.2749 0.8812
16.9800 11.2882 0.8810
17.0000 11.3015 0.8824
17.0200 11.3148 0.8825
17.0400 11.3281 0.8843
17.0600 11.3415 0.8829
17.0800 11.3548 0.8858
17.1000 11.3682 0.8842
17.1200 11.3815 0.8869
17.1400 11.3949 0.8870
17.1600 11.4083 0.8880
17.1800 11.4216 0.8878
17.2000 11.4349 0.8879
17.2200 11.4482 0.8873
17.2400 11.4616 0.8879
17.2600 11.4749 0.8873
17.2800 11.4882 0.8909
17.3000 11.5015 0.8888
17.3200 11.5148 0.8927
17.3400 11.5282 0.8915
17.3600 11.5415 0.8934
17.3800 11.5548 0.8938
17.4000 11.5682 0.8942
17.4200 11.5815 0.8953
17.4400 11.5948 0.8954
17.4600 11.6081 0.8973
17.4800 11.6215 0.8961
17.5000 11.6349 0.8984
17.5200 11.6482 0.8972
17.5400 11.6615 0.8997
17.5600 11.6748 0.8988
17.5800 11.6881 0.9028
17.6000 11.7015 0.8982
17.6200 11.7149 0.9038
17.6400 11.7282 0.9010
17.6600 11.7415 0.9029
17.6800 11.7548 0.9037
17.7000 11.7682 0.9035
17.7200 11.7815 0.9050
17.7400 11.7948 0.9043
17.7600 11.8081 0.9075
17.7800 11.8215 0.9049
17.8000 11.8348 0.9084
17.8200 11.8482 0.9062
17.8400 11.8615 0.9101
17.8600 11.8748 0.9077
17.8800 11.8882 0.9114
17.9000 11.9015 0.9090
17.9200 11.9149 0.9125
17.9400 11.9282 0.9116
17.9600 11.9416 0.9130
17.9800 11.9549 0.9130
18.0000 11.9682 0.9149
18.0200 11.9815 0.9136
18.0400 11.9948 0.9160
18.0600 12.0082 0.9160
18.0800 12.0215 0.9160
18.1000 12.0348 0.9171
18.1200 12.0481 0.9174
18.1400 12.0615 0.9184
18.1600 12.0748 0.9184
18.1800 12.0881 0.9210
18.2000 12.1015 0.9190
18.2200 12.1149 0.9222
18.2400 12.1283 0.9200
18.2600 12.1416 0.9244
18.2800 12.1550 0.9212
18.3000 12.1683 0.9264
18.3200 12.1816 0.9222
18.3400 12.1949 0.9268
18.3600 12.2082 0.9254
18.3800 12.2215 0.9277
18.4000 12.2348 0.9274
18.4200 12.2482 0.9287
18.4400 12.2615 0.9297
18.4600 12.2748 0.9286
18.4800 12.2881 0.9319
18.5000 12.3015 0.9276
18.5200 12.3149 0.9315
18.5400 12.3282 0.9283
18.5600 12.3415 0.9328
18.5800 12.3549 0.9295
18.6000 12.3683 0.9345
18.6200 12.3816 0.9312
18.6400 12.3948 0.9345
18.6600 12.4082 0.9341
18.6800 12.4215 0.9350
18.7000 12.4349 0.9367
18.7200 12.4482 0.9359
18.7400 12.4615 0.9383
18.7600 12.4748 0.9365
18.7800 12.4882 0.9403
18.8000 12.5015 0.9375
18.8200 12.5148 0.9410
18.8400 12.5281 0.9393
18.8600 12.5415 0.9430
18.8800 12.5548 0.9398
18.9000 12.5682 0.9449
18.9200 12.5815 0.9417
18.9400 12.5949 0.9452
18.9600 12.6082 0.9439
18.9800 12.6215 0.9465
19.0000 12.6349 0.9443
19.0200 12.6482 0.9490
19.0400 12.6616 0.9453
19.0600 12.6749 0.9489
19.0800 12.6882 0.9482
19.1000 12.7015 0.9484
19.1200 12.7148 0.9483
19.1400 12.7282 0.9480
19.1600 12.7415 0.9499
19.1800 12.7548 0.9479
19.2000 12.7681 0.9532
19.2200 12.7815 0.9481
19.2400 12.7948 0.9539
19.2600 12.8082 0.9504
19.2800 12.8215 0.9558
19.3000 12.8349 0.9516
19.3200 12.8483 0.9570
19.3400 12.8616 0.9538
19.3600 12.8749 0.9566
19.3800 12.8882 0.9568
19.4000 12.9016 0.9571
19.4200 12.9149 0.9571
19.4400 12.9282 0.9584
19.4600 12.9415 0.9591
19.4800 12.9548 0.9593
19.5000 12.9682 0.9617
19.5200 12.9815 0.9591
19.5400 12.9948 0.9638
19.5600 13.0081 0.9604
19.5800 13.0215 0.9658
19.6000 13.0348 0.9611
19.6200 13.0482 0.9676
19.6400 13.0615 0.9625
19.6600 13.0749 0.9682
19.6800 13.0882 0.9640
19.7000 13.1016 0.9684
19.7200 13.1149 0.9643
19.7400 13.1282 0.9694
19.7600 13.1416 0.9671
19.7800 13.1549 0.9693
19.8000 13.1683 0.9695
19.8200 13.1816 0.9702
19.8400 13.1949 0.9718
19.8600 13.2082 0.9712
19.8800 13.2215 0.9742
19.9000 13.2348 0.9709
19.9200 13.2481 0.9764
19.9400 13.2615 0.9728
19.9600 13.2748 0.9770
19.9800 13.2881 0.9749
20.0000 13.3014 0.9785
20.0200 13.3148 0.9756
20.0400 13.3282 0.9800
20.0600 13.3416 0.9770
20.0800 13.3549 0.9804
20.1000 13.3682 0.9790
20.1200 13.3816 0.9816
20.1400 13.3949 0.9800
20.1600 13.4082 0.9813
20.1800 13.4215 0.9819
20.2000 13.4348 0.9813
20.2200 13.4482 0.9844
20.2400 13.4615 0.9820
20.2600 13.4748 0.9857
20.2800 13.4881 0.9841
20.3000 13.5014 0.9876
20.3200 13.5148 0.9841
20.3400 13.5281 0.9892
20.3600 13.5415 0.9860
20.3800 13.5548 0.9895
20.4000 13.5682 0.9873
20.4200 13.5816 0.9918
20.4400 13.5949 0.9874
20.4600 13.6082 0.9932
20.4800 13.6216 0.9909
20.5000 13.6349 0.9920
20.5200 13.6482 0.9927
20.5400 13.6615 0.9926
20.5600 13.6748 0.9943
20.5800 13.6881 0.9944
20.6000 13.7015 0.9965
20.6200 13.7148 0.9946
20.6400 13.7281 0.9985
20.6600 13.7415 0.9958
20.6800 13.7549 0.9988
20.7000 13.7682 0.9973
20.7200 13.7815 1.0003
20.7400 13.7949 0.9980
20.7600 13.8082 1.0015
20.7800 13.8216 0.9991
20.8000 13.8349 1.0002
20.8200 13.8482 1.0004
20.8400 13.8615 1.0015
20.8600 13.8749 1.0014
20.8800 13.8882 1.0025
20.9000 13.9015 1.0044
20.9200 13.9149 1.0036
20.9400 13.9282 1.0057
20.9600 13.9416 1.0052
20.9800 13.9548 1.0075
21.0000 13.9681 1.0063
21.0200 13.9815 1.0101
21.0400 13.9948 1.0066
21.0600 14.0082 1.0111
21.0800 14.0215 1.0086
21.1000 14.0348 1.0114
21.1200 14.0482 1.0106
21.1400 14.0616 1.0129
21.1600 14.0749 1.0114
21.1800 14.0882 1.0135
21.2000 14.1016 1.0144
21.2200 14.1149 1.0127
21.2400 14.1282 1.0162
21.2600 14.1415 1.0137
21.2800 14.1548 1.0168
21.3000 14.1682 1.0149
21.3200 14.1815 1.0183
21.3400 14.1948 1.0159
21.3600 14.2081 1.0210
21.3800 14.2214 1.0173
21.4000 14.2348 1.0216
21.4200 14.2481 1.0184
21.4400 14.2615 1.0237
21.4600 14.2748 1.0197
21.4800 14.2882 1.0239
21.5000 14.3016 1.0227
21.5200 14.3149 1.0236
21.5400 14.3282 1.0249
21.5600 14.3416 1.0246
21.5800 14.3549 1.0268
21.6000 14.3682 1.0253
21.6200 14.3815 1.0295
21.6400 14.3949 1.0257
21.6600 14.4082 1.0302
21.6800 14.4215 1.0266
21.7000 14.4348 1.0314
21.7200 14.4481 1.0289
21.7400 14.4615 1.0329
21.7600 14.4748 1.0291
21.7800 14.4882 1.0331
21.8000 14.5015 1.0306
21.8200 14.5148 1.0309
21.8400 14.5282 1.0300
21.8600 14.5416 1.0312
21.8800 14.5549 1.0307
21.9000 14.5682 1.0329
21.9200 14.5816 1.0335
21.9400 14.5949 1.0349
21.9600 14.6083 1.0351
21.9800 14.6216 1.0366
22.0000 14.6349 1.0362
22.0200 14.6482 1.0369
22.0400 14.6615 1.0391
22.0600 14.6748 1.0381
22.0800 14.6881 1.0405
22.1000 14.7014 1.0387
22.1200 14.7148 1.0410
22.1400 14.7281 1.0404
22.1600 14.7415 1.0430
22.1800 14.7548 1.0417
22.2000 14.7682 1.0442
22.2200 14.7816 1.0429
22.2400 14.7949 1.0445
22.2600 14.8082 1.0452
22.2800 14.8216 1.0462
22.3000 14.8349 1.0463
22.3200 14.8483 1.0465
22.3400 14.8616 1.0494
22.3600 14.8748 1.0470
22.3800 14.8882 1.0512
22.4000 14.9015 1.0485
22.4200 14.9148 1.0519
22.4400 14.9281 1.0500
22.4600 14.9415 1.0533
22.4800 14.9548 1.0516
22.5000 14.9681 1.0545
22.5200 14.9815 1.0535
22.5400 14.9948 1.0552
22.5600 15.0082 1.0543
22.5800 15.0216 1.0569
22.6000 15.0349 1.0557
22.6200 15.0482 1.0576
22.6400 15.0616 1.0584
22.6600 15.0749 1.0577
22.6800 15.0882 1.0594
22.7000 15.1015 1.0595
22.7200 15.1148 1.0601
22.7400 15.1282 1.0604
22.7600 15.1415 1.0620
22.7800 15.1548 1.0610
22.8000 15.1681 1.0632
22.8200 15.1814 1.0624
22.8400 15.1948 1.0637
22.8600 15.2082 1.0629
22.8800 15.2215 1.0662
22.9000 15.2348 1.0647
22.9200 15.2482 1.0659
22.9400 15.2615 1.0671
22.9600 15.2749 1.0673
22.9800 15.2882 1.0687
23.0000 15.3015 1.0686
23.0200 15.3149 1.0705
23.0400 15.3282 1.0682
23.0600 15.3415 1.0732
23.0800 15.3549 1.0690
23.1000 15.3682 1.0733
23.1200 15.3816 1.0700
23.1400 15.3949 1.0745
23.1600 15.4081 1.0705
23.1800 15.4214 1.0765
23.2000 15.4347 1.0731
23.2200 15.4481 1.0756
23.2400 15.4614 1.0765
23.2600 15.4748 1.0767
23.2800 15.4882 1.0777
23.3000 15.5016 1.0778
23.3200 15.5149 1.0793
23.3400 15.5283 1.0782
23.3600 15.5416 1.0816
23.3800 15.5549 1.0792
23.4000 15.5683 1.0819
23.4200 15.5816 1.0809
23.4400 15.5949 1.0829
23.4600 15.6082 1.0825
23.4800 15.6215 1.0847
23.5000 15.6348 1.0836
23.5200 15.6481 1.0853
23.5400 15.6614 1.0847
23.5600 15.6748 1.0864
23.5800 15.6882 1.0854
23.6000 15.7015 1.0880
23.6200 15.7148 1.0871
23.6400 15.7282 1.0886
23.6600 15.7416 1.0892
23.6800 15.7549 1.0897
23.7000 15.7683 1.0905
23.7200 15.7816 1.0912
23.7400 15.7949 1.0927
23.7600 15.8083 1.0910
23.7800 15.8216 1.0947
23.8000 15.8348 1.0930
23.8200 15.8482 1.0952
23.8400 15.8615 1.0942
23.8600 15.8748 1.0965
23.8800 15.8881 1.0946
23.9000 15.9014 1.0989
23.9200 15.9148 1.0967
23.9400 15.9282 1.0983
23.9600 15.9415 1.0992
23.9800 15.9548 1.0981
24.0000 15.9682 1.0986
24.0200 15.9816 1.0978
24.0400 15.9949 1.1000
24.0600 16.0082 1.0986
24.0800 16.0215 1.1022
24.1000 16.0349 1.1010
24.1200 16.0483 1.1039
24.1400 16.0616 1.1023
24.1600 16.0749 1.1058
24.1800 16.0882 1.1033
24.2000 16.1015 1.1069
24.2200 16.1148 1.1046
24.2400 16.1281 1.1064
24.2600 16.1414 1.1070
24.2800 16.1548 1.1079
24.3000 16.1681 1.1084
24.3200 16.1815 1.1090
24.3400 16.1948 1.1110
24.3600 16.2082 1.1092
24.3800 16.2216 1.1130
24.4000 16.2349 1.1108
24.4200 16.2482 1.1133
24.4400 16.2616 1.1131
24.4600 16.2749 1.1148
24.4800 16.2882 1.1130
24.5000 16.3015 1.1169
24.5200 16.3148 1.1144
24.5400 16.3282 1.1175
24.5600 16.3415 1.1156
24.5800 16.3549 1.1186
24.6000 16.3681 1.1166
24.6200 16.3815 1.1200
24.6400 16.3948 1.1197
24.6600 16.4082 1.1199
24.6800 16.4215 1.1213
24.7000 16.4348 1.1220
24.7200 16.4482 1.1223
24.7400 16.4616 1.1229
24.7600 16.4749 1.1242
24.7800 16.4882 1.1222
24.8000 16.5015 1.1270
24.8200 16.5148 1.1234
24.8400 16.5282 1.1276
24.8600 16.5416 1.1251
24.8800 16.5549 1.1298
24.9000 16.5682 1.1263
24.9200 16.5815 1.1299
24.9400 16.5949 1.1283
24.9600 16.6082 1.1300
24.9800 16.6215 1.1305
25.0000 16.6348 1.1310
25.0200 16.6482 1.1312
25.0400 16.6615 1.1324
25.0600 16.6748 1.1339
25.0800 16.6882 1.1321
25.1000 16.7016 1.1366
25.1200 16.7149 1.1337
25.1400 16.7282 1.1365
25.1600 16.7415 1.1345
25.1800 16.7549 1.1376
25.2000 16.7682 1.1341
25.2200 16.7815 1.1375
25.2400 16.7949 1.1371
25.2600 16.8082 1.1383
25.2800 16.8215 1.1391
25.3000 16.8348 1.1403
25.3200 16.8481 1.1395
25.3400 16.8614 1.1420
25.3600 16.8748 1.1421
25.3800 16.8881 1.1417
25.4000 16.9015 1.1434
25.4200 16.9148 1.1442
25.4400 16.9282 1.1444
25.4600 16.9416 1.1447
25.4800 16.9549 1.1459
25.5000 16.9683 1.1451
25.5200 16.9816 1.1475
25.5400 16.9949 1.1456
25.5600 17.0083 1.1473
25.5800 17.0216 1.1463
25.6000 17.0348 1.1499
25.6200 17.0481 1.1477
25.6400 17.0615 1.1516
25.6600 17.0748 1.1497
25.6800 17.0881 1.1522
25.7000 17.1014 1.1521
25.7200 17.1148 1.1535
25.7400 17.1282 1.1535
25.7600 17.1415 1.1540
25.7800 17.1549 1.1568
25.8000 17.1682 1.1542
25.8200 17.1816 1.1587
25.8400 17.1949 1.1556
25.8600 17.2082 1.1595
25.8800 17.2215 1.1567
25.9000 17.2349 1.1619
25.9200 17.2482 1.1580
25.9400 17.2616 1.1620
25.9600 17.2748 1.1610
25.9800 17.2882 1.1620
26.0000 17.3015 1.1627
26.0200 17.3149 1.1631
26.0400 17.3282 1.1637
26.0600 17.3415 1.1644
26.0800 17.3548 1.1662
26.1000 17.3682 1.1649
26.1200 17.3815 1.1674
26.1400 17.3948 1.1657
26.1600 17.4082 1.1693
26.1800 17.4215 1.1671
26.2000 17.4349 1.1711
26.2200 17.4482 1.1689
26.2400 17.4615 1.1715
26.2600 17.4749 1.1710
26.2800 17.4883 1.1721
26.3000 17.5016 1.1718
26.3200 17.5149 1.1742
26.3400 17.5282 1.1722
26.3600 17.5415 1.1754
26.3800 17.5549 1.1743
26.4000 17.5682 1.1759
26.4200 17.5815 1.1763
26.4400 17.5948 1.1769
26.4600 17.6082 1.1781
26.4800 17.6215 1.1765
26.5000 17.6348 1.1809
26.5200 17.6482 1.1771
26.5400 17.6615 1.1820
26.5600 17.6749 1.1785
26.5800 17.6882 1.1833
26.6000 17.7015 1.1794
26.6200 17.7149 1.1856
26.6400 17.7282 1.1807
26.6600 17.7415 1.1850
26.6800 17.7548 1.1835
26.7000 17.7681 1.1851
26.7200 17.7815 1.1856
26.7400 17.7949 1.1855
26.7600 17.8082 1.1878
26.7800 17.8215 1.1859
26.8000 17.8348 1.1906
26.8200 17.8482 1.1870
26.8400 17.8615 1.1916
26.8600 17.8748 1.1890
26.8800 17.8882 1.1923
26.9000 17.9015 1.1903
26.9200 17.9149 1.1943
26.9400 17.9282 1.1902
26.9600 17.9415 1.1924
26.9800 17.9549 1.1897
27.0000 17.9682 1.1912
27.0200 17.9816 1.1914
27.0400 17.9949 1.1943
27.0600 18.0082 1.1944
27.0800 18.0215 1.1954
27.1000 18.0349 1.1972
27.1200 18.0482 1.1963
27.1400 18.0615 1.1983
27.1600 18.0748 1.1995
27.1800 18.0881 1.1992
27.2000 18.1014 1.2003
27.2200 18.1148 1.2015
27.2400 18.1281 1.2008
27.2600 18.1416 1.2024
27.2800 18.1549 1.2031
27.3000 18.1682 1.2047
27.3200 18.1815 1.2038
27.3400 18.1949 1.2066
27.3600 18.2083 1.2054
27.3800 18.2216 1.2070
27.4000 18.2349 1.2084
27.4200 18.2482 1.2084
27.4400 18.2615 1.2092
27.4600 18.2749 1.2093
27.4800 18.2882 1.2102
27.5000 18.3014 1.2095
27.5200 18.3148 1.2129
27.5400 18.3281 1.2099
27.5600 18.3415 1.2139
27.5800 18.3548 1.2120
27.6000 18.3682 1.2156
27.6200 18.3815 1.2128
27.6400 18.3949 1.2173
27.6600 18.4082 1.2143
27.6800 18.4215 1.2178
27.7000 18.4349 1.2173
27.7200 18.4482 1.2183
27.7400 18.4616 1.2184
27.7600 18.4749 1.2198
27.7800 18.4882 1.2212
27.8000 18.5015 1.2202
27.8200 18.5148 1.2227
27.8400 18.5281 1.2222
27.8600 18.5415 1.2229
27.8800 18.5548 1.2239
27.9000 18.5682 1.2253
27.9200 18.5815 1.2236
27.9400 18.5949 1.2270
27.9600 18.6082 1.2248
27.9800 18.6215 1.2259
28.0000 18.6349 1.2254
28.0200 18.6482 1.2258
28.0400 18.6615 1.2266
28.0600 18.6748 1.2278
28.0800 18.6882 1.2286
28.1000 18.7016 1.2286
28.1200 18.7149 1.2314
28.1400 18.7282 1.2308
28.1600 18.7415 1.2319
28.1800 18.7549 1.2326
28.2000 18.7682 1.2343
28.2200 18.7815 1.2333
28.2400 18.7948 1.2365
28.2600 18.8081 1.2341
28.2800 18.8215 1.2369
28.3000 18.8348 1.2359
28.3200 18.8481 1.2394
28.3400 18.8615 1.2363
28.3600 18.8749 1.2411
28.3800 18.8882 1.2385
28.4000 18.9015 1.2414
28.4200 18.9149 1.2410
28.4400 18.9282 1.2431
28.4600 18.9416 1.2422
28.4800 18.9549 1.2437
28.5000 18.9682 1.2450
28.5200 18.9815 1.2438
28.5400 18.9949 1.2468
28.5600 19.0082 1.2439
28.5800 19.0215 1.2486
28.6000 19.0348 1.2459
28.6200 19.0481 1.2504
28.6400 19.0615 1.2462
28.6600 19.0748 1.2526
28.6800 19.0882 1.2483
28.7000 19.1015 1.2522
28.7200 19.1149 1.2513
28.7400 19.1282 1.2536
28.7600 19.1416 1.2522
28.7800 19.1549 1.2541
28.8000 19.1682 1.2528
28.8200 19.1816 1.2528
28.8400 19.1949 1.2527
28.8600 19.2082 1.2544
28.8800 19.2215 1.2536
28.9000 19.2349 1.2567
28.9200 19.2482 1.2563
28.9400 19.2615 1.2572
28.9600 19.2748 1.2593
28.9800 19.2882 1.2586
29.0000 19.3015 1.2598
29.0200 19.3148 1.2608
29.0400 19.3282 1.2620
29.0600 19.3415 1.2617
29.0800 19.3549 1.2637
29.1000 19.3682 1.2629
29.1200 19.3815 1.2647
29.1400 19.3949 1.2651
29.1600 19.4082 1.2660
29.1800 19.4216 1.2656
29.2000 19.4349 1.2671
29.2200 19.4482 1.2688
29.2400 19.4615 1.2667
29.2600 19.4749 1.2715
29.2800 19.4882 1.2677
29.3000 19.5015 1.2721
29.3200 19.5148 1.2686
29.3400 19.5281 1.2731
29.3600 19.5415 1.2701
29.3800 19.5548 1.2746
29.4000 19.5682 1.2724
29.4200 19.5815 1.2751
29.4400 19.5949 1.2740
29.4600 19.6083 1.2764
29.4800 19.6216 1.2751
29.5000 19.6349 1.2771
29.5200 19.6482 1.2787
29.5400 19.6616 1.2771
29.5600 19.6749 1.2806
29.5800 19.6882 1.2783
29.6000 19.7015 1.2821
29.6200 19.7148 1.2803
29.6400 19.7281 1.2837
29.6600 19.7415 1.2813
29.6800 19.7548 1.2842
29.7000 19.7681 1.2830
29.7200 19.7815 1.2847
29.7400 19.7948 1.2843
29.7600 19.8081 1.2872
29.7800 19.8215 1.2856
29.8000 19.8349 1.2877
29.8200 19.8482 1.2889
29.8400 19.8616 1.2883
29.8600 19.8749 1.2906
29.8800 19.8882 1.2900
29.9000 19.9016 1.2918
29.9200 19.9149 1.2913
29.9400 19.9282 1.2947
29.9600 19.9415 1.2924
29.9800 19.9548 1.2954
30.0000 19.9682 1.2945
30.0200 19.9815 1.2969
30.0400 19.9948 1.2959
30.0600 20.0081 1.2992
30.0800 20.0215 1.2964
30.1000 20.0348 1.3003
30.1200 20.0482 1.2984
30.1400 20.0615 1.2999
30.1600 20.0749 1.2999
30.1800 20.0882 1.3008
30.2000 20.1015 1.3010
30.2200 20.1148 1.3019
30.2400 20.1282 1.3049
30.2600 20.1416 1.3020
30.2800 20.1549 1.3064
30.3000 20.1682 1.3045
30.3200 20.1815 1.3084
30.3400 20.1949 1.3052
30.3600 20.2083 1.3111
30.3800 20.2215 1.3071
30.4000 20.2348 1.3118
30.4200 20.2481 1.3096
30.4400 20.2614 1.3120
30.4600 20.2748 1.3111
30.4800 20.2881 1.3113
30.5000 20.3015 1.3108
30.5200 20.3149 1.3117
30.5400 20.3283 1.3139
30.5600 20.3416 1.3127
30.5800 20.3549 1.3163
30.6000 20.3682 1.3148
30.6200 20.3816 1.3176
30.6400 20.3949 1.3159
30.6600 20.4082 1.3200
30.6800 20.4215 1.3185
30.7000 20.4348 1.3213
30.7200 20.4482 1.3205
30.7400 20.4615 1.3221
30.7600 20.4748 1.3220
30.7800 20.4881 1.3245
30.8000 20.5015 1.3235
30.8200 20.5148 1.3260
30.8400 20.5282 1.3260
30.8600 20.5415 1.3258
30.8800 20.5549 1.3278
30.9000 20.5682 1.3278
30.9200 20.5816 1.3299
30.9400 20.5949 1.3288
30.9600 20.6083 1.3321
30.9800 20.6216 1.3303
31.0000 20.6349 1.3333
31.0200 20.6482 1.3328
31.0400 20.6615 1.3350
31.0600 20.6748 1.3330
31.0800 20.6882 1.3366
31.1000 20.7015 1.3340
31.1200 20.7148 1.3375
31.1400 20.7281 1.3370
31.1600 20.7415 1.3383
31.1800 20.7548 1.3385
31.2000 20.7682 1.3393
31.2200 20.7815 1.3413
31.2400 20.7949 1.3397
31.2600 20.8083 1.3437
31.2800 20.8216 1.3414
31.3000 20.8349 1.3449
31.3200 20.8482 1.3442
31.3400 20.8616 1.3463
31.3600 20.8749 1.3446
31.3800 20.8882 1.3495
31.4000 20.9015 1.3460
31.4200 20.9149 1.3507
31.4400 20.9282 1.3485
31.4600 20.9415 1.3512
31.4800 20.9548 1.3497
31.5000 20.9681 1.3500
31.5200 20.9815 1.3476
31.5400 20.9948 1.3468
31.5600 21.0081 1.3496
31.5800 21.0215 1.3491
31.6000 21.0349 1.3519
31.6200 21.0483 1.3523
31.6400 21.0616 1.3542
31.6600 21.0749 1.3536
31.6800 21.0882 1.3572
31.7000 21.1016 1.3554
31.7200 21.1149 1.3588
31.7400 21.1282 1.3578
31.7600 21.1415 1.3612
31.7800 21.1549 1.3592
31.8000 21.1682 1.3624
31.8200 21.1815 1.3616
31.8400 21.1948 1.3627
31.8600 21.2082 1.3652
31.8800 21.2215 1.3643
31.9000 21.2348 1.3656
31.9200 21.2482 1.3668
31.9400 21.2615 1.3676
31.9600 21.2749 1.3674
31.9800 21.2882 1.3708
32.0000 21.3015 1.3687
32.0200 21.3148 1.3718
32.0400 21.3282 1.3707
32.0600 21.3415 1.3742
32.0800 21.3549 1.3717
32.1000 21.3682 1.3764
32.1200 21.3815 1.3741
32.1400 21.3948 1.3769
32.1600 21.4082 1.3771
32.1800 21.4215 1.3777
32.2000 21.4348 1.3782
32.2200 21.4481 1.3793
32.2400 21.4615 1.3809
32.2600 21.4748 1.3792
32.2800 21.4881 1.3830
32.3000 21.5015 1.3802
32.3200 21.5148 1.3831
32.3400 21.5282 1.3819
32.3600 21.5415 1.3853
32.3800 21.5548 1.3836
32.4000 21.5682 1.3874
32.4200 21.5816 1.3857
32.4400 21.5949 1.3881
32.4600 21.6082 1.3890
32.4800 21.6215 1.3896
32.5000 21.6348 1.3904
32.5200 21.6482 1.3914
32.5400 21.6615 1.3918
32.5600 21.6748 1.3928
32.5800 21.6881 1.3946
32.6000 21.7015 1.3945
32.6200 21.7148 1.3949
32.6400 21.7281 1.3967
32.6600 21.7415 1.3973
32.6800 21.7549 1.3979
32.7000 21.7683 1.3987
32.7200 21.7816 1.3988
32.7400 21.7949 1.4004
32.7600 21.8083 1.4000
32.7800 21.8216 1.4027
32.8000 21.8350 1.4008
32.8200 21.8482 1.4041
32.8400 21.8615 1.4039
32.8600 21.8748 1.4055
32.8800 21.8881 1.4059
32.9000 21.9015 1.4074
32.9200 21.9148 1.4078
32.9400 21.9281 1.4092
32.9600 21.9415 1.4103
32.9800 21.9549 1.4095
33.0000 21.9682 1.4129
33.0200 21.9815 1.4109
33.0400 21.9949 1.4149
33.0600 22.0083 1.4124
33.0800 22.0216 1.4169
33.1000 22.0349 1.4142
33.1200 22.0482 1.4181
33.1400 22.0616 1.4146
33.1600 22.0749 1.4147
33.1800 22.0882 1.4146
33.2000 22.1015 1.4157
33.2200 22.1148 1.4174
33.2400 22.1282 1.4179
33.2600 22.1415 1.4206
33.2800 22.1548 1.4196
33.3000 22.1681 1.4229
33.3200 22.1815 1.4218
33.3400 22.1948 1.4250
33.3600 22.2081 1.4235
33.3800 22.2215 1.4277
33.4000 22.2348 1.4247
33.4200 22.2482 1.4294
33.4400 22.2616 1.4269
33.4600 22.2749 1.4303
33.4800 22.2882 1.4301
33.5000 22.3015 1.4319
33.5200 22.3149 1.4310
33.5400 22.3282 1.4341
33.5600 22.3415 1.4340
33.5800 22.3548 1.4357
33.6000 22.3682 1.4358
33.6200 22.3815 1.4370
33.6400 22.3948 1.4381
33.6600 22.4081 1.4391
33.6800 22.4215 1.4401
33.7000 22.4348 1.4395
33.7200 22.4482 1.4432
33.7400 22.4615 1.4414
33.7600 22.4748 1.4443
33.7800 22.4882 1.4438
33.8000 22.5016 1.4465
33.8200 22.5149 1.4446
33.8400 22.5282 1.4487
33.8600 22.5416 1.4470
33.8800 22.5549 1.4495
33.9000 22.5682 1.4490
33.9200 22.5815 1.4516
33.9400 22.5948 1.4514
33.9600 22.6082 1.4520
33.9800 22.6215 1.4520
34.0000 22.6348 1.4488
34.0200 22.6481 1.4535
34.0400 22.6615 1.4509
34.0600 22.6748 1.4551
34.0800 22.6882 1.4543
34.1000 22.7015 1.4578
34.1200 22.7148 1.4554
34.1400 22.7282 1.4605
34.1600 22.7416 1.4578
34.1800 22.7549 1.4617
34.2000 22.7682 1.4598
34.2200 22.7816 1.4642
34.2400 22.7949 1.4622
34.2600 22.8083 1.4652
34.2800 22.8216 1.4656
34.3000 22.8349 1.4654
34.3200 22.8482 1.4677
34.3400 22.8615 1.4677
34.3600 22.8748 1.4699
34.3800 22.8881 1.4682
34.4000 22.9015 1.4705
34.4200 22.9148 1.4669
34.4400 22.9281 1.4711
34.4600 22.9415 1.4700
34.4800 22.9548 1.4733
34.5000 22.9682 1.4720
34.5200 22.9816 1.4764
34.5400 22.9949 1.4736
34.5600 23.0082 1.4780
34.5800 23.0216 1.4772
34.6000 23.0349 1.4796
34.6200 23.0483 1.4793
34.6400 23.0615 1.4822
34.6600 23.0748 1.4816
34.6800 23.0882 1.4832
34.7000 23.1015 1.4840
34.7200 23.1148 1.4849
34.7400 23.1281 1.4871
34.7600 23.1414 1.4860
34.7800 23.1548 1.4891
34.8000 23.1681 1.4878
34.8200 23.1815 1.4921
34.8400 23.1948 1.4897
34.8600 23.2082 1.4938
34.8800 23.2216 1.4923
34.9000 23.2349 1.4947
34.9200 23.2482 1.4939
34.9400 23.2615 1.4963
34.9600 23.2749 1.4963
34.9800 23.2882 1.4972
35.0000 23.3015 1.4998
35.0200 23.3148 1.4984
35.0400 23.3282 1.5014
35.0600 23.3415 1.5010
35.0800 23.3548 1.5037
35.1000 23.3681 1.5025
35.1200 23.3815 1.5063
35.1400 23.3948 1.5045
35.1600 23.4082 1.5071
35.1800 23.4215 1.5070
35.2000 23.4349 1.5102
35.2200 23.4482 1.5082
35.2400 23.4616 1.5122
35.2600 23.4749 1.5106
35.2800 23.4882 1.5134
35.3000 23.5015 1.5133
35.3200 23.5149 1.5152
35.3400 23.5282 1.5152
35.3600 23.5416 1.5160
35.3800 23.5549 1.5147
35.4000 23.5682 1.5143
35.4200 23.5816 1.5155
35.4400 23.5949 1.5162
35.4600 23.6082 1.5182
35.4800 23.6215 1.5183
35.5000 23.6348 1.5213
35.5200 23.6482 1.5200
35.5400 23.6615 1.5246
35.5600 23.6748 1.5220
35.5800 23.6882 1.5263
35.6000 23.7015 1.5252
35.6200 23.7149 1.5270
35.6400 23.7282 1.5281
35.6600 23.7416 1.5298
35.6800 23.7549 1.5306
35.7000 23.7683 1.5307
35.7200 23.7816 1.5335
35.7400 23.7949 1.5331
35.7600 23.8082 1.5360
35.7800 23.8215 1.5350
35.8000 23.8348 1.5392
35.8200 23.8481 1.5356
35.8400 23.8615 1.5410
35.8600 23.8748 1.5381
35.8800 23.8881 1.5424
35.9000 23.9015 1.5409
35.9200 23.9148 1.5442
35.9400 23.9282 1.5427
35.9600 23.9415 1.5460
35.9800 23.9549 1.5462
36.0000 23.9682 1.5474
36.0200 23.9815 1.5496
36.0400 23.9949 1.5491
36.0600 24.0082 1.5506
36.0800 24.0215 1.5518
36.1000 24.0348 1.5536
36.1200 24.0482 1.5526
36.1400 24.0615 1.5568
36.1600 24.0748 1.5538
36.1800 24.0881 1.5589
36.2000 24.1015 1.5568
36.2200 24.1148 1.5606
36.2400 24.1282 1.5565
36.2600 24.1415 1.5613
36.2800 24.1548 1.5568
36.3000 24.1682 1.5601
36.3200 24.1815 1.5588
36.3400 24.1949 1.5631
36.3600 24.2082 1.5612
36.3800 24.2215 1.5654
36.4000 24.2349 1.5647
36.4200 24.2483 1.5664
36.4400 24.2616 1.5691
36.4600 24.2749 1.5685
36.4800 24.2882 1.5714
36.5000 24.3015 1.5703
36.5200 24.3148 1.5739
36.5400 24.3281 1.5714
36.5600 24.3414 1.5761
36.5800 24.3548 1.5730
36.6000 24.3682 1.5752
36.6200 24.3815 1.5740
36.6400 24.3948 1.5767
36.6600 24.4082 1.5758
36.6800 24.4216 1.5792
36.7000 24.4349 1.5795
36.7200 24.4482 1.5813
36.7400 24.4615 1.5829
36.7600 24.4749 1.5829
36.7800 24.4883 1.5854
36.8000 24.5016 1.5854
36.8200 24.5148 1.5887
36.8400 24.5281 1.5872
36.8600 24.5415 1.5915
36.8800 24.5548 1.5892
36.9000 24.5681 1.5929
36.9200 24.5815 1.5921
36.9400 24.5948 1.5959
36.9600 24.6082 1.5936
36.9800 24.6215 1.5986
37.0000 24.6349 1.5964
37.0200 24.6482 1.5998
37.0400 24.6616 1.5994
37.0600 24.6749 1.6023
37.0800 24.6882 1.6019
37.1000 24.7016 1.6043
37.1200 24.7149 1.6054
37.1400 24.7282 1.6052
37.1600 24.7415 1.6077
37.1800 24.7548 1.6080
37.2000 24.7682 1.6092
37.2200 24.7815 1.6081
37.2400 24.7948 1.6105
37.2600 24.8081 1.6093
37.2800 24.8214 1.6124
37.3000 24.8348 1.6122
37.3200 24.8481 1.6143
37.3400 24.8615 1.6147
37.3600 24.8748 1.6172
37.3800 24.8882 1.6167
37.4000 24.9016 1.6197
37.4200 24.9149 1.6202
37.4400 24.9282 1.6212
37.4600 24.9415 1.6234
37.4800 24.9549 1.6240
37.5000 24.9682 1.6253
37.5200 24.9816 1.6262
37.5400 24.9949 1.6283
37.5600 25.0082 1.6281
37.5800 25.0216 1.6313
37.6000 25.0349 1.6303
37.6200 25.0482 1.6335
37.6400 25.0615 1.6328
37.6600 25.0748 1.6366
37.6800 25.0881 1.6348
37.7000 25.1015 1.6391
37.7200 25.1148 1.6374
37.7400 25.1282 1.6405
37.7600 25.1416 1.6402
37.7800 25.1549 1.6429
37.8000 25.1683 1.6428
37.8200 25.1816 1.6450
37.8400 25.1949 1.6464
37.8600 25.2083 1.6459
37.8800 25.2216 1.6478
37.9000 25.2349 1.6473
37.9200 25.2482 1.6486
37.9400 25.2615 1.6489
37.9600 25.2748 1.6515
37.9800 25.2881 1.6515
38.0000 25.3014 1.6542
38.0200 25.3148 1.6530
38.0400 25.3281 1.6548
38.0600 25.3415 1.6543
38.0800 25.3548 1.6561
38.1000 25.3682 1.6569
38.1200 25.3816 1.6582
38.1400 25.3949 1.6608
38.1600 25.4082 1.6606
38.1800 25.4216 1.6635
38.2000 25.4349 1.6642
38.2200 25.4483 1.6660
38.2400 25.4616 1.6671
38.2600 25.4748 1.6690
38.2800 25.4881 1.6697
38.3000 25.5015 1.6719
38.3200 25.5148 1.6712
38.3400 25.5281 1.6758
38.3600 25.5414 1.6737
38.3800 25.5548 1.6785
38.4000 25.5682 1.6757
38.4200 25.5815 1.6805
38.4400 25.5948 1.6794
38.4600 25.6082 1.6828
38.4800 25.6216 1.6820
38.5000 25.6349 1.6855
38.5200 25.6482 1.6849
38.5400 25.6616 1.6874
38.5600 25.6749 1.6892
38.5800 25.6883 1.6885
38.6000 25.7016 1.6924
38.6200 25.7149 1.6910
38.6400 25.7282 1.6955
38.6600 25.7415 1.6928
38.6800 25.7548 1.6982
38.7000 25.7681 1.6951
38.7200 25.7814 1.6989
38.7400 25.7948 1.6986
38.7600 25.8082 1.6999
38.7800 25.8215 1.7016
38.8000 25.8348 1.7034
38.8200 25.8482 1.7046
38.8400 25.8615 1.7056
38.8600 25.8749 1.7074
38.8800 25.8882 1.7082
38.9000 25.9016 1.7105
38.9200 25.9149 1.7113
38.9400 25.9282 1.7132
38.9600 25.9415 1.7136
38.9800 25.9549 1.7166
39.0000 25.9682 1.7166
39.0200 25.9815 1.7182
39.0400 25.9949 1.7203
39.0600 26.0082 1.7209
39.0800 26.0215 1.7215
39.1000 26.0348 1.7235
39.1200 26.0482 1.7205
39.1400 26.0615 1.7195
39.1600 26.0748 1.7165
39.1800 26.0882 1.7198
39.2000 26.1016 1.7198
39.2200 26.1149 1.7233
39.2400 26.1282 1.7253
39.2600 26.1415 1.7267
39.2800 26.1549 1.7299
39.3000 26.1683 1.7293
39.3200 26.1816 1.7327
39.3400 26.1949 1.7333
39.3600 26.2082 1.7370
39.3800 26.2215 1.7353
39.4000 26.2349 1.7404
39.4200 26.2482 1.7380
39.4400 26.2615 1.7431
39.4600 26.2748 1.7419
39.4800 26.2881 1.7456
39.5000 26.3015 1.7456
39.5200 26.3148 1.7486
39.5400 26.3282 1.7488
39.5600 26.3415 1.7502
39.5800 26.3549 1.7526
39.6000 26.3682 1.7522
39.6200 26.3815 1.7558
39.6400 26.3948 1.7556
39.6600 26.4082 1.7592
39.6800 26.4216 1.7585
39.7000 26.4349 1.7615
39.7200 26.4482 1.7621
39.7400 26.4615 1.7638
39.7600 26.4749 1.7651
39.7800 26.4882 1.7671
39.8000 26.5014 1.7658
39.8200 26.5148 1.7677
39.8400 26.5281 1.7665
39.8600 26.5415 1.7684
39.8800 26.5548 1.7704
39.9000 26.5681 1.7727
39.9200 26.5815 1.7729
39.9400 26.5949 1.7752
39.9600 26.6083 1.7780
39.9800 26.6216 1.7777
40.0000 26.6349 1.7817
40.0200 26.6483 1.7809
40.0400 26.6616 1.7846
40.0600 26.6749 1.7838
40.0800 26.6881 1.7881
40.1000 26.7015 1.7857
40.1200 26.7148 1.7912
40.1400 26.7281 1.7877
40.1600 26.7415 1.7929
40.1800 26.7548 1.7908
40.2000 26.7682 1.7954
40.2200 26.7815 1.7944
40.2400 26.7948 1.7972
40.2600 26.8082 1.7996
40.2800 26.8216 1.7994
40.3000 26.8349 1.8039
40.3200 26.8482 1.8023
40.3400 26.8615 1.8067
40.3600 26.8749 1.8052
40.3800 26.8882 1.8099
40.4000 26.9016 1.8075
40.4200 26.9148 1.8136
40.4400 26.9281 1.8115
40.4600 26.9415 1.8164
40.4800 26.9549 1.8155
40.5000 26.9682 1.8189
40.5200 26.9815 1.8197
40.5400 26.9948 1.8213
40.5600 27.0082 1.8238
40.5800 27.0215 1.8235
40.6000 27.0348 1.8283
40.6200 27.0482 1.8271
40.6400 27.0615 1.8310
40.6600 27.0749 1.8304
40.6800 27.0882 1.8343
40.7000 27.1015 1.8334
40.7200 27.1149 1.8367
40.7400 27.1283 1.8335
40.7600 27.1416 1.8349
40.7800 27.1549 1.8338
40.8000 27.1682 1.8381
40.8200 27.1815 1.8374
40.8400 27.1948 1.8422
40.8600 27.2081 1.8421
40.8800 27.2214 1.8452
40.9000 27.2348 1.8460
40.9200 27.2482 1.8487
40.9400 27.2615 1.8496
40.9600 27.2749 1.8518
40.9800 27.2882 1.8540
41.0000 27.3015 1.8549
41.0200 27.3149 1.8576
41.0400 27.3283 1.8585
41.0600 27.3416 1.8619
41.0800 27.3549 1.8616
41.1000 27.3682 1.8659
41.1200 27.3816 1.8607
41.1400 27.3949 1.8642
41.1600 27.4082 1.8618
41.1800 27.4215 1.8667
41.2000 27.4349 1.8669
41.2200 27.4482 1.8705
41.2400 27.4615 1.8719
41.2600 27.4748 1.8735
41.2800 27.4881 1.8771
41.3000 27.5015 1.8765
41.3200 27.5149 1.8811
41.3400 27.5282 1.8812
41.3600 27.5415 1.8842
41.3800 27.5549 1.8835
41.4000 27.5682 1.8870
41.4200 27.5815 1.8843
41.4400 27.5949 1.8885
41.4600 27.6083 1.8891
41.4800 27.6216 1.8923
41.5000 27.6349 1.8931
41.5200 27.6482 1.8964
41.5400 27.6615 1.8980
41.5600 27.6749 1.9001
41.5800 27.6882 1.9024
41.6000 27.7015 1.9041
41.6200 27.7148 1.9055
41.6400 27.7281 1.9087
41.6600 27.7414 1.9098
41.6800 27.7547 1.9122
41.7000 27.7681 1.9147
41.7200 27.7815 1.9153
41.7400 27.7949 1.9180
41.7600 27.8083 1.9192
41.7800 27.8216 1.9223
41.8000 27.8349 1.9219
41.8200 27.8482 1.9268
41.8400 27.8616 1.9253
41.8600 27.8749 1.9312
41.8800 27.8882 1.9303
41.9000 27.9015 1.9348
41.9200 27.9149 1.9333
41.9400 27.9282 1.9393
41.9600 27.9415 1.9381
41.9800 27.9548 1.9431
42.0000 27.9681 1.9435
42.0200 27.9815 1.9460
42.0400 27.9948 1.9483
42.0600 28.0081 1.9496
42.0800 28.0215 1.9520
42.1000 28.0349 1.9490
42.1200 28.0483 1.9509
42.1400 28.0616 1.9471
42.1600 28.0749 1.9511
42.1800 28.0883 1.9512
42.2000 28.1016 1.9560
42.2200 28.1149 1.9566
42.2400 28.1281 1.9616
42.2600 28.1415 1.9622
42.2800 28.1548 1.9652
42.3000 28.1682 1.9684
42.3200 28.1815 1.9702
42.3400 28.1948 1.9732
42.3600 28.2081 1.9742
42.3800 28.2215 1.9786
42.4000 28.2349 1.9787
42.4200 28.2482 1.9839
42.4400 28.2616 1.9831
42.4600 28.2749 1.9880
42.4800 28.2882 1.9878
42.5000 28.3015 1.9922
42.5200 28.3148 1.9930
42.5400 28.3282 1.9974
42.5600 28.3416 1.9977
42.5800 28.3549 2.0018
42.6000 28.3682 2.0022
42.6200 28.3816 2.0071
42.6400 28.3949 2.0060
42.6600 28.4082 2.0118
42.6800 28.4215 2.0096
42.7000 28.4348 2.0121
42.7200 28.4481 2.0121
42.7400 28.4615 2.0154
42.7600 28.4748 2.0179
42.7800 28.4881 2.0207
42.8000 28.5015 2.0242
42.8200 28.5149 2.0244
42.8400 28.5282 2.0297
42.8600 28.5415 2.0298
42.8800 28.5549 2.0343
42.9000 28.5682 2.0336
42.9200 28.5816 2.0367
42.9400 28.5949 2.0331
42.9600 28.6082 2.0388
42.9800 28.6215 2.0383
43.0000 28.6349 2.0433
43.0200 28.6482 2.0459
43.0400 28.6615 2.0489
43.0600 28.6748 2.0520
43.0800 28.6881 2.0540
43.1000 28.7015 2.0580
43.1200 28.7148 2.0586
43.1400 28.7281 2.0637
43.1600 28.7415 2.0638
43.1800 28.7549 2.0660
43.2000 28.7682 2.0666
43.2200 28.7815 2.0703
43.2400 28.7949 2.0715
43.2600 28.8082 2.0770
43.2800 28.8216 2.0772
43.3000 28.8349 2.0819
43.3200 28.8482 2.0839
43.3400 28.8615 2.0883
43.3600 28.8749 2.0901
43.3800 28.8882 2.0939
43.4000 28.9015 2.0965
43.4200 28.9148 2.0985
43.4400 28.9281 2.1028
43.4600 28.9415 2.1048
43.4800 28.9548 2.1082
43.5000 28.9681 2.1107
43.5200 28.9815 2.1144
43.5400 28.9949 2.1134
43.5600 29.0082 2.1179
43.5800 29.0215 2.1144
43.6000 29.0349 2.1205
43.6200 29.0482 2.1205
43.6400 29.0616 2.1275
43.6600 29.0749 2.1279
43.6800 29.0882 2.1346
43.7000 29.1015 2.1361
43.7200 29.1149 2.1401
43.7400 29.1282 2.1432
43.7600 29.1415 2.1471
43.7800 29.1548 2.1501
43.8000 29.1681 2.1534
43.8200 29.1815 2.1577
43.8400 29.1948 2.1585
43.8600 29.2082 2.1648
43.8800 29.2215 2.1625
43.9000 29.2349 2.1642
43.9200 29.2483 2.1635
43.9400 29.2616 2.1710
43.9600 29.2749 2.1713
43.9800 29.2882 2.1781
44.0000 29.3016 2.1785
44.0200 29.3149 2.1813
44.0400 29.3282 2.1853
44.0600 29.3415 2.1876
44.0800 29.3548 2.1932
44.1000 29.3681 2.1959
44.1200 29.3815 2.2023
44.1400 29.3948 2.2033
44.1600 29.4081 2.2107
44.1800 29.4215 2.2112
44.2000 29.4348 2.2172
44.2200 29.4482 2.2196
44.2400 29.4615 2.2261
44.2600 29.4749 2.2272
44.2800 29.4883 2.2329
44.3000 29.5016 2.2358
44.3200 29.5149 2.2390
44.3400 29.5282 2.2406
44.3600 29.5416 2.2436
44.3800 29.5549 2.2445
44.4000 29.5682 2.2486
44.4200 29.5815 2.2513
44.4400 29.5948 2.2525
44.4600 29.6082 2.2567
44.4800 29.6215 2.2609
44.5000 29.6348 2.2653
44.5200 29.6481 2.2688
44.5400 29.6615 2.2759
44.5600 29.6748 2.2766
44.5800 29.6881 2.2852
44.6000 29.7015 2.2861
44.6200 29.7149 2.2939
44.6400 29.7282 2.2943
44.6600 29.7415 2.3033
44.6800 29.7548 2.3036
44.7000 29.7682 2.3108
44.7200 29.7816 2.3139
44.7400 29.7949 2.3183
44.7600 29.8082 2.3241
44.7800 29.8215 2.3281
44.8000 29.8349 2.3320
44.8200 29.8482 2.3314
44.8400 29.8616 2.3352
44.8600 29.8748 2.3350
44.8800 29.8881 2.3424
44.9000 29.9015 2.3423
44.9200 29.9148 2.3483
44.9400 29.9281 2.3502
44.9600 29.9415 2.3583
44.9800 29.9549 2.3605
45.0000 29.9683 2.3666
45.0200 29.9816 2.3714
45.0400 29.9949 2.3749
45.0480 30.0001 2.3745
45.0490 30.0007 2.3744
45.0500 30.0014 2.3742
45.0700 30.0119 2.3618
45.0900 30.0141 2.3527
45.1100 30.0059 2.3536
45.1300 29.9931 2.3548
45.1500 29.9802 2.3380
45.1700 29.9674 2.3296
45.1900 29.9539 2.3154
45.2100 29.9398 2.3082
45.2300 29.9258 2.2943
45.2500 29.9119 2.2892
45.2700 29.8984 2.2756
45.2900 29.8851 2.2666
45.3100 29.8719 2.2575
45.3300 29.8585 2.2492
45.3500 29.8452 2.2406
45.3700 29.8318 2.2320
45.3900 29.8185 2.2256
45.4100 29.8051 2.2146
45.4300 29.7918 2.2100
45.4500 29.7784 2.1987
45.4700 29.7651 2.1949
45.4900 29.7517 2.1841
45.5100 29.7384 2.1806
45.5300 29.7250 2.1693
45.5500 29.7117 2.1674
45.5700 29.6984 2.1567
45.5900 29.6851 2.1526
45.6100 29.6717 2.1439
45.6300 29.6583 2.1394
45.6500 29.6450 2.1318
45.6700 29.6317 2.1261
45.6900 29.6184 2.1205
45.7100 29.6050 2.1130
45.7300 29.5917 2.1095
45.7500 29.5784 2.1013
45.7700 29.5651 2.0977
45.7900 29.5518 2.0904
45.8100 29.5384 2.0867
45.8300 29.5251 2.0787
45.8500 29.5118 2.0757
45.8700 29.4984 2.0696
45.8900 29.4850 2.0646
45.9100 29.4717 2.0590
45.9300 29.4584 2.0546
45.9500 29.4451 2.0487
45.9700 29.4317 2.0447
45.9900 29.4184 2.0397
46.0100 29.4051 2.0339
46.0300 29.3917 2.0311
46.0500 29.3784 2.0247
46.0700 29.3651 2.0214
46.0900 29.3517 2.0158
46.1100 29.3384 2.0129
46.1300 29.3251 2.0062
46.1500 29.3118 2.0042
46.1700 29.2984 1.9976
46.1900 29.2851 1.9951
46.2100 29.2718 1.9882
46.2300 29.2584 1.9879
46.2500 29.2450 1.9801
46.2700 29.2317 1.9793
46.2900 29.2183 1.9726
46.3100 29.2050 1.9703
46.3300 29.1916 1.9651
46.3500 29.1783 1.9624
46.3700 29.1650 1.9577
46.3900 29.1517 1.9539
46.4100 29.1384 1.9514
46.4300 29.1250 1.9452
46.4500 29.1117 1.9448
46.4700 29.0985 1.9380
46.4900 29.0852 1.9365
46.5100 29.0718 1.9301
46.5300 29.0584 1.9306
46.5500 29.0450 1.9224
46.5700 29.0317 1.9233
46.5900 29.0183 1.9159
46.6100 29.0049 1.9150
46.6300 28.9916 1.9101
46.6500 28.9783 1.9085
46.6700 28.9650 1.9037
46.6900 28.9517 1.9003
46.7100 28.9383 1.8985
46.7300 28.9250 1.8923
46.7500 28.9117 1.8916
46.7700 28.8984 1.8870
46.7900 28.8850 1.8854
46.8100 28.8717 1.8803
46.8300 28.8584 1.8795
46.8500 28.8451 1.8727
46.8700 28.8318 1.8732
46.8900 28.8184 1.8672
46.9100 28.8051 1.8666
46.9300 28.7917 1.8608
46.9500 28.7784 1.8607
46.9700 28.7650 1.8546
46.9900 28.7516 1.8541
47.0100 28.7383 1.8505
47.0300 28.7250 1.8470
47.0500 28.7116 1.8443
47.0700 28.6983 1.8417
47.0900 28.6850 1.8387
47.1100 28.6717 1.8356
47.1300 28.6584 1.8338
47.1500 28.6451 1.8291
47.1700 28.6317 1.8280
47.1900 28.6185 1.8235
47.2100 28.6051 1.8226
47.2300 28.5918 1.8173
47.2500 28.5784 1.8184
47.2700 28.5650 1.8113
47.2900 28.5517 1.8116
47.3100 28.5384 1.8077
47.3300 28.5250 1.8048
47.3500 28.5117 1.8032
47.3700 28.4984 1.8001
47.3900 28.4850 1.7970
47.4100 28.4717 1.7949
47.4300 28.4583 1.7924
47.4500 28.4450 1.7897
47.4700 28.4317 1.7870
47.4900 28.4184 1.7846
47.5100 28.4050 1.7838
47.5300 28.3917 1.7774
47.5500 28.3784 1.7794
47.5700 28.3651 1.7729
47.5900 28.3518 1.7726
47.6100 28.3384 1.7699
47.6300 28.3250 1.7671
47.6500 28.3117 1.7640
47.6700 28.2984 1.7640
47.6900 28.2850 1.7575
47.7100 28.2717 1.7595
47.7300 28.2583 1.7545
47.7500 28.2450 1.7521
47.7700 28.2317 1.7516
47.7900 28.2183 1.7473
47.8100 28.2050 1.7472
47.8300 28.1917 1.7425
47.8500 28.1783 1.7413
47.8700 28.1650 1.7395
47.8900 28.1517 1.7365
47.9100 28.1384 1.7338
47.9300 28.1251 1.7338
47.9500 28.1117 1.7279
47.9700 28.0984 1.7297
47.9900 28.0851 1.7244
48.0100 28.0718 1.7225
48.0300 28.0584 1.7221
48.0500 28.0450 1.7176
48.0700 28.0317 1.7170
48.0900 28.0183 1.7149
48.1100 28.0050 1.7119
48.1300 27.9917 1.7101
48.1500 27.9783 1.7092
48.1700 27.9650 1.7049
48.1900 27.9517 1.7054
48.2100 27.9384 1.7000
48.2300 27.9250 1.7017
48.2500 27.9117 1.6964
48.2700 27.8984 1.6967
48.2900 27.8851 1.6926
48.3100 27.8717 1.6920
48.3300 27.8584 1.6885
48.3500 27.8450 1.6886
48.3700 27.8317 1.6839
48.3900 27.8184 1.6841
48.4100 27.8050 1.6810
48.4300 27.7916 1.6787
48.4500 27.7783 1.6783
48.4700 27.7650 1.6740
48.4900 27.7517 1.6740
48.5100 27.7383 1.6706
48.5300 27.7250 1.6703
48.5500 27.7117 1.6653
48.5700 27.6984 1.6676
48.5900 27.6851 1.6616
48.6100 27.6717 1.6632
48.6300 27.6584 1.6590
48.6500 27.6451 1.6583
48.6700 27.6318 1.6545
48.6900 27.6184 1.6545
48.7100 27.6050 1.6517
48.7300 27.5917 1.6502
48.7500 27.5784 1.6481
48.7700 27.5650 1.6460
48.7900 27.5517 1.6446
48.8100 27.5384 1.6422
48.8300 27.5251 1.6414
48.8500 27.5117 1.6371
48.8700 27.4983 1.6383
48.8900 27.4850 1.6337
48.9100 27.4717 1.6340
48.9300 27.4584 1.6307
48.9500 27.4450 1.6307
48.9700 27.4317 1.6268
48.9900 27.4184 1.6267
49.0100 27.4051 1.6234
49.0300 27.3917 1.6228
49.0500 27.3784 1.6199
49.0700 27.3650 1.6193
49.0900 27.3517 1.6168
49.1100 27.3384 1.6148
49.1300 27.3250 1.6143
49.1500 27.3117 1.6105
49.1700 27.2983 1.6119
49.1900 27.2850 1.6068
49.2100 27.2717 1.6076
49.2300 27.2583 1.6034
49.2500 27.2450 1.6048
49.2700 27.2317 1.5991
49.2900 27.2184 1.6017
49.3100 27.2050 1.5962
49.3300 27.1917 1.5976
49.3500 27.1784 1.5933
49.3700 27.1651 1.5939
49.3900 27.1517 1.5898
49.4100 27.1384 1.5899
49.4300 27.1250 1.5884
49.4500 27.1117 1.5845
49.4700 27.0984 1.5857
49.4900 27.0851 1.5815
49.5100 27.0717 1.5815
49.5300 27.0583 1.5790
49.5500 27.0450 1.5783
49.5700 27.0317 1.5754
49.5900 27.0183 1.5752
49.6100 27.0050 1.5722
49.6300 26.9917 1.5713
49.6500 26.9784 1.5692
49.6700 26.9650 1.5689
49.6900 26.9517 1.5652
49.7100 26.9384 1.5656
49.7300 26.9251 1.5630
49.7500 26.9117 1.5615
49.7700 26.8984 1.5601
49.7900 26.8851 1.5584
49.8100 26.8717 1.5562
49.8300 26.8584 1.5550
49.8500 26.8451 1.5543
49.8700 26.8317 1.5509
49.8900 26.8183 1.5518
49.9100 26.8050 1.5475
49.9300 26.7917 1.5476
49.9500 26.7783 1.5447
49.9700 26.7650 1.5459
49.9900 26.7517 1.5400
50.0100 26.7384 1.5425
50.0300 26.7250 1.5380
50.0500 26.7117 1.5385
50.0700 26.6984 1.5357
50.0900 26.6851 1.5358
50.1100 26.6718 1.5325
50.1300 26.6584 1.5322
50.1500 26.6450 1.5310
50.1700 26.6317 1.5278
50.1900 26.6184 1.5278
50.2100 26.6051 1.5247
50.2300 26.5917 1.5250
50.2500 26.5783 1.5215
50.2700 26.5650 1.5231
50.2900 26.5517 1.5174
50.3100 26.5383 1.5200
50.3300 26.5250 1.5156
50.3500 26.5117 1.5162
50.3700 26.4984 1.5129
50.3900 26.4850 1.5134
50.4100 26.4717 1.5096
50.4300 26.4584 1.5096
50.4500 26.4451 1.5085
50.4700 26.4318 1.5055
50.4900 26.4184 1.5056
50.5100 26.4051 1.5030
50.5300 26.3917 1.5020
50.5500 26.3784 1.4997
50.5700 26.3651 1.5001
50.5900 26.3517 1.4968
50.6100 26.3383 1.4975
50.6300 26.3250 1.4938
50.6500 26.3117 1.4939
50.6700 26.2983 1.4907
50.6900 26.2850 1.4925
50.7100 26.2717 1.4868
50.7300 26.2584 1.4892
50.7500 26.2450 1.4853
50.7700 26.2317 1.4854
50.7900 26.2184 1.4830
50.8100 26.2051 1.4829
50.8300 26.1918 1.4796
50.8500 26.1784 1.4793
50.8700 26.1650 1.4781
50.8900 26.1517 1.4754
50.9100 26.1384 1.4752
50.9300 26.1250 1.4729
50.9500 26.1116 1.4732
50.9700 26.0983 1.4693
50.9900 26.0850 1.4713
51.0100 26.0717 1.4646
51.0300 26.0584 1.4687
51.0500 26.0450 1.4639
51.0700 26.0317 1.4657
51.0900 26.0184 1.4613
51.1100 26.0050 1.4624
51.1300 25.9917 1.4589
51.1500 25.9784 1.4594
51.1700 25.9651 1.4574
51.1900 25.9517 1.4555
51.2100 25.9384 1.4551
51.2300 25.9250 1.4528
51.2500 25.9117 1.4522
51.2700 25.8984 1.4493
51.2900 25.8851 1.4517
51.3100 25.8717 1.4457
51.3300 25.8583 1.4480
51.3500 25.8450 1.4446
51.3700 25.8317 1.4448
51.3900 25.8183 1.4422
51.4100 25.8050 1.4424
51.4300 25.7917 1.4394
51.4500 25.7784 1.4382
51.4700 25.7650 1.4384
51.4900 25.7517 1.4352
51.5100 25.7384 1.4358
51.5300 25.7251 1.4334
51.5500 25.7118 1.4325
51.5700 25.6984 1.4298
51.5900 25.6851 1.4321
51.6100 25.6717 1.4263
51.6300 25.6584 1.4285
51.6500 25.6451 1.4245
51.6700 25.6317 1.4258
51.6900 25.6183 1.4219
51.7100 25.6050 1.4235
51.7300 25.5917 1.4190
51.7500 25.5783 1.4200
51.7700 25.5650 1.4177
51.7900 25.5516 1.4175
51.8100 25.5383 1.4147
51.8300 25.5250 1.4147
51.8500 25.5117 1.4126
51.8700 25.4984 1.4113
51.8900 25.4851 1.4119
51.9100 25.4718 1.4073
51.9300 25.4584 1.4096
51.9500 25.4451 1.4048
51.9700 25.4318 1.4077
51.9900 25.4185 1.4015
52.0100 25.4051 1.4060
52.0300 25.3917 1.3990
52.0500 25.3783 1.4015
52.0700 25.3650 1.3979
52.0900 25.3517 1.3980
52.1100 25.3383 1.3959
52.1300 25.3250 1.3962
52.1500 25.3116 1.3938
52.1700 25.2983 1.3925
52.1900 25.2850 1.3930
52.2100 25.2717 1.3899
52.2300 25.2584 1.3908
52.2500 25.2451 1.3876
52.2700 25.2318 1.3879
52.2900 25.2184 1.3845
52.3100 25.2050 1.3864
52.3300 25.1917 1.3826
52.3500 25.1784 1.3830
52.3700 25.1651 1.3803
52.3900 25.1517 1.3805
52.4100 25.1383 1.3780
52.4300 25.1250 1.3788
52.4500 25.1117 1.3751
52.4700 25.0983 1.3756
52.4900 25.0850 1.3736
52.5100 25.0717 1.3732
52.5300 25.0584 1.3710
52.5500 25.0450 1.3706
52.5700 25.0317 1.3698
52.5900 25.0184 1.3670
52.6100 25.0051 1.3687
52.6300 24.9918 1.3647
52.6500 24.9784 1.3661
52.6700 24.9650 1.3628
52.6900 24.9517 1.3638
52.7100 24.9384 1.3594
52.7300 24.9250 1.3621
52.7500 24.9117 1.3570
52.7700 24.8983 1.3599
52.7900 24.8850 1.3551
52.8100 24.8717 1.3569
52.8300 24.8583 1.3522
52.8500 24.8450 1.3555
52.8700 24.8317 1.3506
52.8900 24.8184 1.3517
52.9100 24.8051 1.3498
52.9300 24.7917 1.3486
52.9500 24.7784 1.3480
52.9700 24.7651 1.3457
52.9900 24.7518 1.3470
53.0100 24.7384 1.3426
53.0300 24.7250 1.3451
53.0500 24.7117 1.3407
53.0700 24.6984 1.3421
53.0900 24.6851 1.3383
53.1100 24.6717 1.3404
53.1300 24.6583 1.3362
53.1500 24.6450 1.3384
53.1700 24.6317 1.3341
53.1900 24.6183 1.3346
53.2100 24.6050 1.3333
53.2300 24.5916 1.3326
53.2500 24.5783 1.3307
53.2700 24.5650 1.3301
53.2900 24.5517 1.3295
53.3100 24.5384 1.3268
53.3300 24.5251 1.3275
53.3500 24.5118 1.3251
53.3700 24.4984 1.3247
53.3900 24.4851 1.3231
53.4100 24.4717 1.3236
53.4300 24.4584 1.3197
53.4500 24.4451 1.3219
53.4700 24.4317 1.3177
53.4900 24.4183 1.3188
53.5100 24.4050 1.3162
53.5300 24.3917 1.3159
53.5500 24.3783 1.3140
53.5700 24.3649 1.3142
53.5900 24.3516 1.3132
53.6100 24.3383 1.3100
53.6300 24.3250 1.3113
53.6500 24.3117 1.3091
53.6700 24.2984 1.3089
53.6900 24.2851 1.3067
53.7100 24.2718 1.3069
53.7300 24.2584 1.3036
53.7500 24.2451 1.3059
53.7700 24.2317 1.3013
53.7900 24.2184 1.3031
53.8100 24.2051 1.2993
53.8300 24.1917 1.3011
53.8500 24.1783 1.2977
53.8700 24.1650 1.2988
53.8900 24.1517 1.2963
53.9100 24.1383 1.2956
53.9300 24.1250 1.2947
53.9500 24.1116 1.2936
53.9700 24.0983 1.2929
53.9900 24.0850 1.2916
54.0100 24.0717 1.2913
54.0300 24.0584 1.2882
54.0500 24.0451 1.2899
54.0700 24.0318 1.2866
54.0900 24.0184 1.2874
54.1100 24.0051 1.2844
54.1300 23.9917 1.2862
54.1500 23.9784 1.2815
54.1700 23.9651 1.2831
54.1900 23.9517 1.2812
54.2100 23.9383 1.2802
54.2300 23.9250 1.2794
54.2500 23.9117 1.2786
54.2700 23.8983 1.2767
54.2900 23.8850 1.2769
54.3100 23.8717 1.2755
54.3300 23.8584 1.2739
54.3500 23.8451 1.2739
54.3700 23.8318 1.2720
54.3900 23.8184 1.2723
54.4100 23.8051 1.2691
54.4300 23.7918 1.2708
54.4500 23.7785 1.2671
54.4700 23.7651 1.2688
54.4900 23.7517 1.2661
54.5100 23.7384 1.2658
54.5300 23.7251 1.2631
54.5500 23.7117 1.2653
54.5700 23.6983 1.2606
54.5900 23.6850 1.2627
54.6100 23.6717 1.2602
54.6300 23.6584 1.2594
54.6500 23.6450 1.2590
54.6700 23.6317 1.2568
54.6900 23.6184 1.2577
54.7100 23.6051 1.2539
54.7300 23.5917 1.2565
54.7500 23.5784 1.2519
54.7700 23.5650 1.2540
54.7900 23.5517 1.2504
54.8100 23.5384 1.2521
54.8300 23.5250 1.2475
54.8500 23.5117 1.2525
54.8700 23.4984 1.2444
54.8900 23.4850 1.2488
54.9100 23.4717 1.2451
54.9300 23.4583 1.2446
54.9500 23.4450 1.2436
54.9700 23.4317 1.2428
54.9900 23.4183 1.2413
55.0100 23.4050 1.2419
55.0300 23.3917 1.2394
55.0500 23.3783 1.2387
55.0700 23.3650 1.2379
55.0900 23.3517 1.2368
55.1100 23.3383 1.2365
55.1300 23.3250 1.2342
55.1500 23.3118 1.2356
55.1700 23.2984 1.2314
55.1900 23.2851 1.2331
55.2100 23.2717 1.2313
55.2300 23.2584 1.2304
55.2500 23.2451 1.2287
55.2700 23.2317 1.2290
55.2900 23.2184 1.2274
55.3100 23.2050 1.2269
55.3300 23.1917 1.2259
55.3500 23.1784 1.2247
55.3700 23.1650 1.2239
55.3900 23.1517 1.2227
55.4100 23.1384 1.2232
55.4300 23.1251 1.2190
55.4500 23.1117 1.2229
55.4700 23.0984 1.2168
55.4900 23.0851 1.2207
55.5100 23.0718 1.2165
55.5300 23.0584 1.2171
55.5500 23.0451 1.2141
55.5700 23.0317 1.2169
55.5900 23.0184 1.2115
55.6100 23.0051 1.2143
55.6300 22.9917 1.2108
55.6500 22.9783 1.2115
55.6700 22.9650 1.2098
55.6900 22.9517 1.2089
55.7100 22.9384 1.2091
55.7300 22.9250 1.2057
55.7500 22.9117 1.2081
55.7700 22.8983 1.2034
55.7900 22.8850 1.2065
55.8100 22.8717 1.2027
55.8300 22.8584 1.2037
55.8500 22.8451 1.2009
55.8700 22.8318 1.2020
55.8900 22.8184 1.1994
55.9100 22.8051 1.1993
55.9300 22.7917 1.1988
55.9500 22.7784 1.1974
55.9700 22.7650 1.1961
55.9900 22.7517 1.1955
56.0100 22.7383 1.1951
56.0300 22.7250 1.1931
56.0500 22.7117 1.1942
56.0700 22.6984 1.1904
56.0900 22.6850 1.1914
56.1100 22.6717 1.1905
56.1300 22.6583 1.1894
56.1500 22.6450 1.1875
56.1700 22.6317 1.1888
56.1900 22.6184 1.1849
56.2100 22.6050 1.1866
56.2300 22.5917 1.1842
56.2500 22.5784 1.1853
56.2700 22.5651 1.1808
56.2900 22.5517 1.1846
56.3100 22.5384 1.1796
56.3300 22.5250 1.1808
56.3500 22.5117 1.1795
56.3700 22.4983 1.1779
56.3900 22.4850 1.1787
56.4100 22.4717 1.1760
56.4300 22.4584 1.1768
56.4500 22.4450 1.1735
56.4700 22.4317 1.1766
56.4900 22.4183 1.1711
56.5100 22.4051 1.1749
56.5300 22.3917 1.1694
56.5500 22.3784 1.1732
56.5700 22.3650 1.1673
56.5900 22.3517 1.1717
56.6100 22.3384 1.1662
56.6300 22.3251 1.1678
56.6500 22.3117 1.1660
56.6700 22.2983 1.1656
56.6900 22.2850 1.1644
56.7100 22.2717 1.1638
56.7300 22.2584 1.1633
56.7500 22.2450 1.1612
56.7700 22.2317 1.1621
56.7900 22.2184 1.1593
56.8100 22.2051 1.1603
56.8300 22.1917 1.1582
56.8500 22.1784 1.1586
56.8700 22.1650 1.1560
56.8900 22.1517 1.1569
56.9100 22.1384 1.1549
56.9300 22.1250 1.1551
56.9500 22.1117 1.1538
56.9700 22.0984 1.1533
56.9900 22.0851 1.1508
57.0100 22.0717 1.1523
57.0300 22.0584 1.1499
57.0500 22.0451 1.1499
57.0700 22.0317 1.1485
57.0900 22.0184 1.1479
57.1100 22.0050 1.1461
57.1300 21.9917 1.1466
57.1500 21.9783 1.1452
57.1700 21.9650 1.1437
57.1900 21.9516 1.1449
57.2100 21.9383 1.1413
57.2300 21.9250 1.1431
57.2500 21.9117 1.1392
57.2700 21.8984 1.1425
57.2900 21.8850 1.1369
57.3100 21.8717 1.1409
57.3300 21.8584 1.1355
57.3500 21.8451 1.1384
57.3700 21.8317 1.1351
57.3900 21.8184 1.1358
57.4100 21.8051 1.1339
57.4300 21.7917 1.1332
57.4500 21.7784 1.1335
57.4700 21.7650 1.1310
57.4900 21.7516 1.1327
57.5100 21.7383 1.1287
57.5300 21.7250 1.1303
57.5500 21.7116 1.1275
57.5700 21.6983 1.1297
57.5900 21.6850 1.1251
57.6100 21.6717 1.1279
57.6300 21.6584 1.1246
57.6500 21.6450 1.1246
57.6700 21.6317 1.1235
57.6900 21.6184 1.1231
57.7100 21.6051 1.1214
57.7300 21.5917 1.1219
57.7500 21.5784 1.1200
57.7700 21.5650 1.1194
57.7900 21.5517 1.1185
57.8100 21.5384 1.1184
57.8300 21.5250 1.1165
57.8500 21.5117 1.1167
57.8700 21.4984 1.1153
57.8900 21.4850 1.1134
57.9100 21.4717 1.1150
57.9300 21.4583 1.1122
57.9500 21.4450 1.1130
57.9700 21.4317 1.1105
57.9900 21.4184 1.1121
58.0100 21.4050 1.1079
58.0300 21.3917 1.1112
58.0500 21.3784 1.1066
58.0700 21.3651 1.1084
58.0900 21.3517 1.1055
58.1100 21.3384 1.1068
58.1300 21.3251 1.1037
58.1500 21.3117 1.1045
58.1700 21.2984 1.1037
58.1900 21.2850 1.1009
58.2100 21.2717 1.1032
58.2300 21.2584 1.0992
58.2500 21.2451 1.1011
58.2700 21.2317 1.0983
58.2900 21.2183 1.0998
58.3100 21.2050 1.0964
58.3300 21.1917 1.0982
58.3500 21.1784 1.0955
58.3700 21.1650 1.0957
58.3900 21.1517 1.0945
58.4100 21.1384 1.0943
58.4300 21.1251 1.0924
58.4500 21.1117 1.0922
58.4700 21.0984 1.0923
58.4900 21.0851 1.0891
58.5100 21.0718 1.0909
58.5300 21.0584 1.0880
58.5500 21.0450 1.0895
58.5700 21.0317 1.0860
58.5900 21.0184 1.0884
58.6100 21.0050 1.0843
58.6300 20.9917 1.0863
58.6500 20.9783 1.0836
58.6700 20.9650 1.0841
58.6900 20.9517 1.0818
58.7100 20.9383 1.0837
58.7300 20.9250 1.0799
58.7500 20.9117 1.0820
58.7700 20.8984 1.0790
58.7900 20.8851 1.0795
58.8100 20.8717 1.0776
58.8300 20.8584 1.0784
58.8500 20.8451 1.0762
58.8700 20.8317 1.0762
58.8900 20.8184 1.0755
58.9100 20.8050 1.0737
58.9300 20.7917 1.0745
58.9500 20.7784 1.0722
58.9700 20.7650 1.0732
58.9900 20.7516 1.0695
59.0100 20.7383 1.0732
59.0300 20.7250 1.0676
59.0500 20.7117 1.0709
59.0700 20.6983 1.0672
59.0900 20.6850 1.0690
59.1100 20.6717 1.0658
59.1300 20.6584 1.0668
59.1500 20.6451 1.0646
59.1700 20.6318 1.0645
59.1900 20.6184 1.0648
59.2100 20.6051 1.0615
59.2300 20.5918 1.0626
59.2500 20.5784 1.0604
59.2700 20.5650 1.0617
59.2900 20.5516 1.0583
59.3100 20.5383 1.0608
59.3300 20.5250 1.0571
59.3500 20.5117 1.0584
59.3700 20.4983 1.0558
59.3900 20.4850 1.0564
59.4100 20.4717 1.0546
59.4300 20.4584 1.0550
59.4500 20.4450 1.0534
59.4700 20.4317 1.0527
59.4900 20.4184 1.0522
59.5100 20.4051 1.0511
59.5300 20.3918 1.0504
59.5500 20.3784 1.0499
59.5700 20.3651 1.0491
59.5900 20.3517 1.0474
59.6100 20.3384 1.0487
59.6300 20.3250 1.0456
59.6500 20.3116 1.0469
59.6700 20.2983 1.0442
59.6900 20.2850 1.0456
59.7100 20.2717 1.0421
59.7300 20.2583 1.0457
59.7500 20.2450 1.0398
59.7700 20.2317 1.0431
59.7900 20.2184 1.0398
59.8100 20.2050 1.0414
59.8300 20.1917 1.0387
59.8500 20.1784 1.0398
59.8700 20.1651 1.0373
59.8900 20.1517 1.0369
59.9100 20.1384 1.0370
59.9300 20.1250 1.0352
59.9500 20.1117 1.0352
59.9700 20.0984 1.0335
59.9900 20.0850 1.0343
60.0100 20.0716 1.0314
60.0300 20.0583 1.0337
60.0500 20.0450 1.0298
60.0700 20.0317 1.0315
60.0900 20.0183 1.0298
60.1100 20.0050 1.0296
60.1300 19.9917 1.0282
60.1500 19.9784 1.0284
60.1700 19.9650 1.0273
60.1900 19.9517 1.0257
60.2100 19.9384 1.0268
60.2300 19.9251 1.0239
60.2500 19.9117 1.0248
60.2700 19.8984 1.0231
60.2900 19.8850 1.0234
60.3100 19.8717 1.0206
60.3300 19.8584 1.0232
60.3500 19.8450 1.0183
60.3700 19.8316 1.0215
60.3900 19.8183 1.0177
60.4100 19.8050 1.0191
60.4300 19.7916 1.0163
60.4500 19.7783 1.0181
60.4700 19.7650 1.0154
60.4900 19.7517 1.0155
60.5100 19.7384 1.0142
60.5300 19.7250 1.0145
60.5500 19.7117 1.0124
60.5700 19.6984 1.0131
60.5900 19.6851 1.0115
60.6100 19.6717 1.0109
60.6300 19.6584 1.0106
60.6500 19.6451 1.0088
60.6700 19.6318 1.0088
60.6900 19.6184 1.0076
60.7100 19.6050 1.0086
60.7300 19.5917 1.0048
60.7500 19.5784 1.0072
60.7700 19.5650 1.0033
60.7900 19.5517 1.0052
60.8100 19.5383 1.0032
60.8300 19.5250 1.0035
60.8500 19.5117 1.0011
60.8700 19.4984 1.0027
60.8900 19.4850 0.9995
60.9100 19.4717 1.0005
60.9300 19.4584 0.9996
60.9500 19.4451 0.9982
60.9700 19.4318 0.9980
60.9900 19.4184 0.9964
61.0100 19.4051 0.9973
61.0300 19.3917 0.9943
61.0500 19.3784 0.9956
61.0700 19.3650 0.9937
61.0900 19.3516 0.9937
61.1100 19.3383 0.9924
61.1300 19.3250 0.9926
61.1500 19.3117 0.9904
61.1700 19.2983 0.9920
61.1900 19.2850 0.9887
61.2100 19.2717 0.9900
61.2300 19.2584 0.9881
61.2500 19.2450 0.9888
61.2700 19.2317 0.9866
61.2900 19.2184 0.9866
61.3100 19.2051 0.9859
61.3300 19.1918 0.9845
61.3500 19.1784 0.9851
61.3700 19.1651 0.9824
61.3900 19.1517 0.9834
61.4100 19.1384 0.9813
61.4300 19.1250 0.9823
61.4500 19.1116 0.9795
61.4700 19.0983 0.9817
61.4900 19.0850 0.9779
61.5100 19.0716 0.9800
61.5300 19.0583 0.9764
61.5500 19.0450 0.9794
61.5700 19.0317 0.9744
61.5900 19.0184 0.9776
61.6100 19.0051 0.9740
61.6300 18.9917 0.9758
61.6500 18.9784 0.9727
61.6700 18.9651 0.9740
61.6900 18.9518 0.9716
61.7100 18.9384 0.9722
61.7300 18.9250 0.9711
61.7500 18.9117 0.9695
61.7700 18.8984 0.9703
61.7900 18.8850 0.9681
61.8100 18.8717 0.9693
61.8300 18.8583 0.9655
61.8500 18.8450 0.9684
61.8700 18.8317 0.9644
61.8900 18.8183 0.9668
61.9100 18.8050 0.9636
61.9300 18.7917 0.9651
61.9500 18.7784 0.9627
61.9700 18.7650 0.9634
61.9900 18.7517 0.9613
62.0100 18.7384 0.9611
62.0300 18.7251 0.9612
62.0500 18.7117 0.9589
62.0700 18.6984 0.9597
62.0900 18.6850 0.9581
62.1100 18.6717 0.9583
62.1300 18.6584 0.9556
62.1500 18.6450 0.9580
62.1700 18.6317 0.9540
62.1900 18.6184 0.9568
62.2100 18.6050 0.9525
62.2300 18.5917 0.9550
62.2500 18.5783 0.9513
62.2700 18.5650 0.9537
62.2900 18.5517 0.9504
62.3100 18.5384 0.9516
62.3300 18.5250 0.9499
62.3500 18.5117 0.9495
62.3700 18.4984 0.9486
62.3900 18.4851 0.9483
62.4100 18.4717 0.9473
62.4300 18.4584 0.9464
62.4500 18.4450 0.9468
62.4700 18.4317 0.9440
62.4900 18.4184 0.9457
62.5100 18.4050 0.9434
62.5300 18.3917 0.9443
62.5500 18.3783 0.9410
62.5700 18.3650 0.9433
62.5900 18.3517 0.9397
62.6100 18.3383 0.9416
62.6300 18.3250 0.9395
62.6500 18.3117 0.9395
62.6700 18.2984 0.9383
62.6900 18.2850 0.9384
62.7100 18.2717 0.9368
62.7300 18.2584 0.9365
62.7500 18.2451 0.9361
62.7700 18.2318 0.9345
62.7900 18.2184 0.9358
62.8100 18.2050 0.9330
62.8300 18.1917 0.9338
62.8500 18.1784 0.9307
62.8700 18.1650 0.9331
62.8900 18.1516 0.9297
62.9100 18.1383 0.9317
62.9300 18.1250 0.9290
62.9500 18.1117 0.9295
62.9700 18.0983 0.9280
62.9900 18.0850 0.9280
63.0100 18.0717 0.9272
63.0300 18.0584 0.9262
63.0500 18.0451 0.9260
63.0700 18.0317 0.9246
63.0900 18.0184 0.9251
63.1100 18.0051 0.9233
63.1300 17.9918 0.9238
63.1500 17.9784 0.9217
63.1700 17.9650 0.9233
63.1900 17.9517 0.9193
63.2100 17.9384 0.9216
63.2300 17.9250 0.9188
63.2500 17.9116 0.9199
63.2700 17.8983 0.9180
63.2900 17.8850 0.9190
63.3100 17.8717 0.9163
63.3300 17.8584 0.9171
63.3500 17.8450 0.9156
63.3700 17.8317 0.9154
63.3900 17.8184 0.9143
63.4100 17.8051 0.9143
63.4300 17.7917 0.9138
63.4500 17.7784 0.9112
63.4700 17.7651 0.9133
63.4900 17.7518 0.9092
63.5100 17.7384 0.9127
63.5300 17.7250 0.9083
63.5500 17.7117 0.9106
63.5700 17.6984 0.9062
63.5900 17.6850 0.9097
63.6100 17.6717 0.9053
63.6300 17.6583 0.9075
63.6500 17.6450 0.9047
63.6700 17.6317 0.9056
63.6900 17.6183 0.9031
63.7100 17.6050 0.9045
63.7300 17.5917 0.9031
63.7500 17.5784 0.9017
63.7700 17.5651 0.9032
63.7900 17.5517 0.8995
63.8100 17.5384 0.9023
63.8300 17.5251 0.8978
63.8500 17.5118 0.9010
63.8700 17.4984 0.8962
63.8900 17.4850 0.9002
63.9100 17.4717 0.8951
63.9300 17.4583 0.8979
63.9500 17.4450 0.8939
63.9700 17.4317 0.8960
63.9900 17.4183 0.8938
64.0100 17.4050 0.8943
64.0300 17.3917 0.8929
64.0500 17.3784 0.8916
64.0700 17.3650 0.8929
64.0900 17.3517 0.8905
64.1100 17.3384 0.8910
64.1300 17.3250 0.8894
64.1500 17.3117 0.8903
64.1700 17.2984 0.8874
64.1900 17.2851 0.8890
64.2100 17.2717 0.8863
64.2300 17.2584 0.8876
64.2500 17.2451 0.8853
64.2700 17.2318 0.8861
64.2900 17.2184 0.8830
64.3100 17.2050 0.8851
64.3300 17.1916 0.8824
64.3500 17.1783 0.8833
64.3700 17.1650 0.8808
64.3900 17.1517 0.8816
64.4100 17.1383 0.8802
64.4300 17.1250 0.8798
64.4500 17.1117 0.8804
64.4700 17.0984 0.8769
64.4900 17.0850 0.8795
64.5100 17.0717 0.8753
64.5300 17.0584 0.8791
64.5500 17.0451 0.8738
64.5700 17.0318 0.8773
64.5900 17.0184 0.8727
64.6100 17.0050 0.8759
64.6300 16.9917 0.8724
64.6500 16.9784 0.8737
64.6700 16.9651 0.8709
64.6900 16.9517 0.8721
64.7100 16.9383 0.8702
64.7300 16.9250 0.8711
64.7500 16.9116 0.8693
64.7700 16.8983 0.8689
64.7900 16.8850 0.8688
64.8100 16.8717 0.8674
64.8300 16.8584 0.8674
64.8500 16.8450 0.8668
64.8700 16.8317 0.8656
64.8900 16.8184 0.8654
64.9100 16.8051 0.8639
64.9300 16.7918 0.8642
64.9500 16.7784 0.8624
64.9700 16.7651 0.8629
64.9900 16.7517 0.8624
65.0100 16.7384 0.8602
65.0300 16.7251 0.8608
65.0500 16.7117 0.8592
65.0700 16.6984 0.8592
65.0900 16.6850 0.8586
65.1100 16.6717 0.8572
65.1300 16.6583 0.8575
65.1500 16.6450 0.8562
65.1700 16.6316 0.8564
65.1900 16.6183 0.8549
65.2100 16.6050 0.8553
65.2300 16.5917 0.8533
65.2500 16.5784 0.8544
65.2700 16.5651 0.8514
65.2900 16.5518 0.8534
65.3100 16.5384 0.8493
65.3300 16.5250 0.8530
65.3500 16.5117 0.8487
65.3700 16.4984 0.8505
65.3900 16.4851 0.8476
65.4100 16.4717 0.8493
65.4300 16.4583 0.8463
65.4500 16.4450 0.8476
65.4700 16.4317 0.8458
65.4900 16.4184 0.8452
65.5100 16.4050 0.8452
65.5300 16.3916 0.8443
65.5500 16.3783 0.8433
65.5700 16.3650 0.8428
65.5900 16.3517 0.8433
65.6100 16.3383 0.8402
65.6300 16.3250 0.8424
65.6500 16.3117 0.8395
65.6700 16.2984 0.8404
65.6900 16.2851 0.8380
65.7100 16.2717 0.8400
65.7300 16.2584 0.8366
65.7500 16.2451 0.8372
65.7700 16.2317 0.8365
65.7900 16.2183 0.8357
65.8100 16.2050 0.8348
65.8300 16.1917 0.8350
65.8500 16.1783 0.8329
65.8700 16.1650 0.8341
65.8900 16.1516 0.8324
65.9100 16.1383 0.8321
65.9300 16.1250 0.8313
65.9500 16.1117 0.8305
65.9700 16.0984 0.8308
65.9900 16.0851 0.8287
66.0100 16.0718 0.8296
66.0300 16.0584 0.8275
66.0500 16.0451 0.8281
66.0700 16.0317 0.8261
66.0900 16.0184 0.8271
66.1100 16.0051 0.8243
66.1300 15.9917 0.8264
66.1500 15.9784 0.8228
66.1700 15.9651 0.8252
66.1900 15.9517 0.8225
66.2100 15.9384 0.8227
66.2300 15.9250 0.8219
66.2500 15.9116 0.8213
66.2700 15.8983 0.8212
66.2900 15.8850 0.8192
66.3100 15.8717 0.8211
66.3300 15.8583 0.8175
66.3500 15.8451 0.8192
66.3700 15.8318 0.8166
66.3900 15.8185 0.8184
66.4100 15.8051 0.8151
66.4300 15.7918 0.8169
66.4500 15.7784 0.8141
66.4700 15.7651 0.8148
66.4900 15.7517 0.8136
66.5100 15.7383 0.8136
66.5300 15.7250 0.8120
66.5500 15.7117 0.8124
66.5700 15.6983 0.8111
66.5900 15.6850 0.8107
66.6100 15.6716 0.8109
66.6300 15.6584 0.8087
66.6500 15.6450 0.8096
66.6700 15.6317 0.8080
66.6900 15.6184 0.8083
66.7100 15.6051 0.8066
66.7300 15.5918 0.8068
66.7500 15.5784 0.8049
66.7700 15.5651 0.8055
66.7900 15.5517 0.8043
66.8100 15.5384 0.8040
66.8300 15.5251 0.8018
66.8500 15.5117 0.8031
66.8700 15.4983 0.8010
66.8900 15.4850 0.8011
66.9100 15.4717 0.8004
66.9300 15.4583 0.7990
66.9500 15.4450 0.7993
66.9700 15.4316 0.7977
66.9900 15.4184 0.7993
67.0100 15.4050 0.7950
67.0300 15.3917 0.7984
67.0500 15.3784 0.7942
67.0700 15.3651 0.7968
67.0900 15.3518 0.7932
67.1100 15.3385 0.7957
67.1300 15.3251 0.7909
67.1500 15.3117 0.7951
67.1700 15.2984 0.7897
67.1900 15.2850 0.7922
67.2100 15.2717 0.7904
67.2300 15.2583 0.7905
67.2500 15.2450 0.7894
67.2700 15.2317 0.7881
67.2900 15.2183 0.7894
67.3100 15.2050 0.7857
67.3300 15.1917 0.7887
67.3500 15.1784 0.7848
67.3700 15.1651 0.7868
67.3900 15.1517 0.7835
67.4100 15.1384 0.7860
67.4300 15.1251 0.7820
67.4500 15.1118 0.7846
67.4700 15.0985 0.7812
67.4900 15.0851 0.7830
67.5100 15.0717 0.7805
67.5300 15.0584 0.7810
67.5500 15.0451 0.7793
67.5700 15.0317 0.7796
67.5900 15.0183 0.7790
67.6100 15.0050 0.7774
67.6300 14.9917 0.7783
67.6500 14.9783 0.7761
67.6700 14.9650 0.7759
67.6900 14.9516 0.7754
67.7100 14.9383 0.7757
67.7300 14.9250 0.7730
67.7500 14.9117 0.7755
67.7700 14.8984 0.7716
67.7900 14.8851 0.7738
67.8100 14.8718 0.7701
67.8300 14.8584 0.7727
67.8500 14.8451 0.7691
67.8700 14.8318 0.7712
67.8900 14.8185 0.7686
67.9100 14.8051 0.7681
67.9300 14.7917 0.7683
67.9500 14.7783 0.7677
67.9700 14.7650 0.7664
67.9900 14.7517 0.7658
68.0100 14.7383 0.7669
68.0300 14.7250 0.7631
68.0500 14.7116 0.7668
68.0700 14.6983 0.7616
68.0900 14.6850 0.7651
68.1100 14.6717 0.7607
68.1300 14.6584 0.7639
68.1500 14.6451 0.7590
68.1700 14.6318 0.7626
68.1900 14.6185 0.7584
68.2100 14.6051 0.7594
68.2300 14.5917 0.7588
68.2500 14.5784 0.7584
68.2700 14.5651 0.7565
68.2900 14.5517 0.7568
68.3100 14.5383 0.7568
68.3300 14.5250 0.7543
68.3500 14.5117 0.7556
68.3700 14.4983 0.7539
68.3900 14.4850 0.7541
68.4100 14.4716 0.7530
68.4300 14.4583 0.7529
68.4500 14.4450 0.7506
68.4700 14.4317 0.7519
68.4900 14.4184 0.7508
68.5100 14.4051 0.7496
68.5300 14.3918 0.7494
68.5500 14.3785 0.7488
68.5700 14.3651 0.7473
68.5900 14.3518 0.7478
68.6100 14.3384 0.7470
68.6300 14.3251 0.7452
68.6500 14.3117 0.7456
68.6700 14.2983 0.7447
68.6900 14.2849 0.7442
68.7100 14.2716 0.7429
68.7300 14.2583 0.7438
68.7500 14.2450 0.7404
68.7700 14.2317 0.7440
68.7900 14.2184 0.7389
68.8100 14.2051 0.7422
68.8300 14.1917 0.7376
68.8500 14.1784 0.7416
68.8700 14.1651 0.7363
68.8900 14.1518 0.7399
68.9100 14.1385 0.7363
68.9300 14.1251 0.7369
68.9500 14.1117 0.7353
68.9700 14.0984 0.7353
68.9900 14.0851 0.7344
69.0100 14.0717 0.7336
69.0300 14.0583 0.7343
69.0500 14.0450 0.7313
69.0700 14.0317 0.7335
69.0900 14.0184 0.7298
69.1100 14.0050 0.7324
69.1300 13.9917 0.7282
69.1500 13.9783 0.7318
69.1700 13.9650 0.7265
69.1900 13.9517 0.7299
69.2100 13.9383 0.7264
69.2300 13.9250 0.7278
69.2500 13.9117 0.7255
69.2700 13.8984 0.7268
69.2900 13.8851 0.7241
69.3100 13.8717 0.7250
69.3300 13.8584 0.7236
69.3500 13.8451 0.7227
69.3700 13.8317 0.7229
69.3900 13.8183 0.7211
69.4100 13.8050 0.7222
69.4300 13.7917 0.7194
69.4500 13.7783 0.7213
69.4700 13.7650 0.7176
69.4900 13.7516 0.7196
69.5100 13.7383 0.7166
69.5300 13.7250 0.7183
69.5500 13.7117 0.7158
69.5700 13.6983 0.7181
69.5900 13.6850 0.7137
69.6100 13.6717 0.7161
69.6300 13.6584 0.7131
69.6500 13.6450 0.7144
69.6700 13.6317 0.7128
69.6900 13.6184 0.7132
69.7100 13.6051 0.7115
69.7300 13.5917 0.7109
69.7500 13.5783 0.7116
69.7700 13.5650 0.7084
69.7900 13.5517 0.7109
69.8100 13.5384 0.7070
69.8300 13.5250 0.7091
69.8500 13.5116 0.7061
69.8700 13.4983 0.7085
69.8900 13.4850 0.7042
69.9100 13.4717 0.7076
69.9300 13.4584 0.7032
69.9500 13.4451 0.7059
69.9700 13.4318 0.7021
69.9900 13.4184 0.7051
70.0100 13.4051 0.7012
70.0300 13.3917 0.7019
70.0500 13.3784 0.7017
70.0700 13.3651 0.6996
70.0900 13.3517 0.7006
70.1100 13.3384 0.6986
70.1300 13.3250 0.6993
70.1500 13.3117 0.6972
70.1700 13.2984 0.6988
70.1900 13.2850 0.6956
70.2100 13.2717 0.6973
70.2300 13.2583 0.6954
70.2500 13.2450 0.6958
70.2700 13.2317 0.6928
70.2900 13.2184 0.6956
70.3100 13.2051 0.6920
70.3300 13.1918 0.6936
70.3500 13.1785 0.6914
70.3700 13.1651 0.6912
70.3900 13.1517 0.6907
70.4100 13.1384 0.6898
70.4300 13.1250 0.6889
70.4500 13.1117 0.6883
70.4700 13.0983 0.6891
70.4900 13.0850 0.6865
70.5100 13.0717 0.6880
70.5300 13.0584 0.6855
70.5500 13.0450 0.6876
70.5700 13.0317 0.6828
70.5900 13.0183 0.6869
70.6100 13.0050 0.6823
70.6300 12.9917 0.6849
70.6500 12.9784 0.6815
70.6700 12.9650 0.6832
70.6900 12.9517 0.6801
70.7100 12.9384 0.6815
70.7300 12.9251 0.6797
70.7500 12.9117 0.6789
70.7700 12.8984 0.6800
70.7900 12.8850 0.6771
70.8100 12.8717 0.6779
70.8300 12.8584 0.6756
70.8500 12.8450 0.6783
70.8700 12.8317 0.6730
70.8900 12.8184 0.6772
70.9100 12.8050 0.6723
70.9300 12.7916 0.6749
70.9500 12.7783 0.6720
70.9700 12.7650 0.6731
70.9900 12.7517 0.6711
71.0100 12.7384 0.6713
71.0300 12.7250 0.6708
71.0500 12.7117 0.6690
71.0700 12.6984 0.6697
71.0900 12.6851 0.6678
71.1100 12.6717 0.6683
71.1300 12.6583 0.6666
71.1500 12.6450 0.6674
71.1700 12.6317 0.6643
71.1900 12.6184 0.6672
71.2100 12.6050 0.6633
71.2300 12.5917 0.6654
71.2500 12.5784 0.6623
71.2700 12.5650 0.6648
71.2900 12.5517 0.6602
71.3100 12.5383 0.6634
71.3300 12.5251 0.6599
71.3500 12.5117 0.6616
71.3700 12.4984 0.6589
71.3900 12.4850 0.6605
71.4100 12.4717 0.6575
71.4300 12.4584 0.6584
71.4500 12.4451 0.6564
71.4700 12.4317 0.6563
71.4900 12.4184 0.6563
71.5100 12.4051 0.6544
71.5300 12.3917 0.6547
71.5500 12.3784 0.6528
71.5700 12.3650 0.6545
71.5900 12.3517 0.6506
71.6100 12.3384 0.6537
71.6300 12.3250 0.6498
71.6500 12.3116 0.6523
71.6700 12.2983 0.6492
71.6900 12.2850 0.6507
71.7100 12.2717 0.6478
71.7300 12.2584 0.6489
71.7500 12.2450 0.6472
71.7700 12.2317 0.6466
71.7900 12.2184 0.6471
71.8100 12.2051 0.6453
71.8300 12.1917 0.6453
71.8500 12.1784 0.6439
71.8700 12.1651 0.6446
71.8900 12.1517 0.6409
71.9100 12.1384 0.6449
71.9300 12.1250 0.6396
71.9500 12.1116 0.6427
71.9700 12.0983 0.6389
71.9900 12.0850 0.6416
72.0100 12.0716 0.6376
72.0300 12.0583 0.6412
72.0500 12.0450 0.6368
72.0700 12.0317 0.6382
72.0900 12.0184 0.6363
72.1100 12.0050 0.6384
72.1300 11.9917 0.6340
72.1500 11.9784 0.6358
72.1700 11.9651 0.6341
72.1900 11.9517 0.6326
72.2100 11.9384 0.6347
72.2300 11.9251 0.6305
72.2500 11.9117 0.6326
72.2700 11.8984 0.6293
72.2900 11.8850 0.6322
72.3100 11.8717 0.6272
72.3300 11.8583 0.6315
72.3500 11.8450 0.6266
72.3700 11.8316 0.6290
72.3900 11.8183 0.6258
72.4100 11.8050 0.6283
72.4300 11.7917 0.6241
72.4500 11.7784 0.6271
72.4700 11.7650 0.6243
72.4900 11.7517 0.6233
72.5100 11.7384 0.6236
72.5300 11.7251 0.6222
72.5500 11.7117 0.6226
72.5700 11.6984 0.6207
72.5900 11.6851 0.6219
72.6100 11.6718 0.6182
72.6300 11.6584 0.6204
72.6500 11.6450 0.6183
72.6700 11.6317 0.6187
72.6900 11.6184 0.6165
72.7100 11.6051 0.6176
72.7300 11.5917 0.6148
72.7500 11.5783 0.6170
72.7700 11.5650 0.6146
72.7900 11.5517 0.6139
72.8100 11.5384 0.6141
72.8300 11.5250 0.6126
72.8500 11.5117 0.6130
72.8700 11.4984 0.6106
72.8900 11.4851 0.6122
72.9100 11.4717 0.6091
72.9300 11.4584 0.6110
72.9500 11.4451 0.6085
72.9700 11.4317 0.6083
72.9900 11.4184 0.6072
73.0100 11.4050 0.6078
73.0300 11.3917 0.6045
73.0500 11.3784 0.6070
73.0700 11.3650 0.6042
73.0900 11.3517 0.6046
73.1100 11.3383 0.6037
73.1300 11.3250 0.6044
73.1500 11.3117 0.6013
73.1700 11.2983 0.6029
73.1900 11.2850 0.6007
73.2100 11.2717 0.6016
73.2300 11.2584 0.5995
73.2500 11.2451 0.5996
73.2700 11.2318 0.5976
73.2900 11.2184 0.5986
73.3100 11.2050 0.5976
73.3300 11.1917 0.5958
73.3500 11.1784 0.5970
73.3700 11.1650 0.5936
73.3900 11.1517 0.5957
73.4100 11.1384 0.5930
73.4300 11.1250 0.5945
73.4500 11.1116 0.5913
73.4700 11.0983 0.5929
73.4900 11.0850 0.5912
73.5100 11.0717 0.5904
73.5300 11.0583 0.5905
73.5500 11.0450 0.5890
73.5700 11.0317 0.5894
73.5900 11.0184 0.5869
73.6100 11.0051 0.5895
73.6300 10.9918 0.5853
73.6500 10.9784 0.5878
73.6700 10.9651 0.5845
73.6900 10.9518 0.5856
73.7100 10.9384 0.5836
73.7300 10.9250 0.5850
73.7500 10.9117 0.5814
73.7700 10.8983 0.5833
73.7900 10.8850 0.5811
73.8100 10.8717 0.5810
73.8300 10.8583 0.5807
73.8500 10.8450 0.5807
73.8700 10.8317 0.5782
73.8900 10.8184 0.5791
73.9100 10.8050 0.5780
73.9300 10.7917 0.5776
73.9500 10.7784 0.5760
73.9700 10.7651 0.5762
73.9900 10.7518 0.5749
74.0100 10.7384 0.5742
74.0300 10.7250 0.5753
74.0500 10.7117 0.5709
74.0700 10.6984 0.5744
74.0900 10.6850 0.5702
74.1100 10.6716 0.5731
74.1300 10.6583 0.5681
74.1500 10.6450 0.5718
74.1700 10.6317 0.5676
74.1900 10.6183 0.5701
74.2100 10.6050 0.5671
74.2300 10.5917 0.5678
74.2500 10.5784 0.5663
74.2700 10.5650 0.5666
74.2900 10.5517 0.5654
74.3100 10.5384 0.5641
74.3300 10.5251 0.5657
74.3500 10.5117 0.5612
74.3700 10.4984 0.5645
74.3900 10.4850 0.5607
74.4100 10.4717 0.5627
74.4300 10.4584 0.5586
74.4500 10.4450 0.5618
74.4700 10.4316 0.5578
74.4900 10.4183 0.5591
74.5100 10.4050 0.5573
74.5300 10.3917 0.5570
74.5500 10.3783 0.5568
74.5700 10.3650 0.5563
74.5900 10.3517 0.5545
74.6100 10.3384 0.5543
74.6300 10.3250 0.5549
74.6500 10.3117 0.5522
74.6700 10.2984 0.5534
74.6900 10.2851 0.5511
74.7100 10.2718 0.5521
74.7300 10.2584 0.5487
74.7500 10.2450 0.5511
74.7700 10.2317 0.5479
74.7900 10.2184 0.5491
74.8100 10.2050 0.5476
74.8300 10.1916 0.5482
74.8500 10.1783 0.5453
74.8700 10.1650 0.5472
74.8900 10.1517 0.5442
74.9100 10.1383 0.5455
74.9300 10.1250 0.5432
74.9500 10.1117 0.5439
74.9700 10.0983 0.5421
74.9900 10.0850 0.5422
75.0100 10.0717 0.5416
75.0300 10.0584 0.5393
75.0500 10.0451 0.5418
75.0700 10.0317 0.5375
75.0900 10.0184 0.5397
75.1100 10.0051 0.5374
75.1300 9.9918 0.5380
75.1500 9.9784 0.5349
75.1700 9.9650 0.5377
75.1900 9.9517 0.5339
75.2100 9.9383 0.5356
75.2300 9.9250 0.5331
75.2500 9.9116 0.5332
75.2700 9.8983 0.5326
75.2900 9.8850 0.5320
75.3100 9.8717 0.5321
75.3300 9.8584 0.5285
75.3500 9.8450 0.5320
75.3700 9.8317 0.5271
75.3900 9.8184 0.5295
75.4100 9.8051 0.5265
75.4300 9.7918 0.5285
75.4500 9.7784 0.5249
75.4700 9.7651 0.5271
75.4900 9.7517 0.5241
75.5100 9.7384 0.5248
75.5300 9.7250 0.5234
75.5500 9.7116 0.5240
75.5700 9.6983 0.5213
75.5900 9.6850 0.5224
75.6100 9.6717 0.5207
75.6300 9.6583 0.5204
75.6500 9.6450 0.5208
75.6700 9.6317 0.5189
75.6900 9.6184 0.5180
75.7100 9.6050 0.5181
75.7300 9.5917 0.5176
75.7500 9.5784 0.5152
75.7700 9.5651 0.5167
75.7900 9.5518 0.5139
75.8100 9.5384 0.5147
75.8300 9.5251 0.5129
75.8500 9.5117 0.5141
75.8700 9.4984 0.5102
75.8900 9.4850 0.5131
75.9100 9.4716 0.5098
75.9300 9.4583 0.5109
75.9500 9.4450 0.5086
75.9700 9.4317 0.5091
75.9900 9.4183 0.5080
76.0100 9.4050 0.5070
76.0300 9.3917 0.5076
76.0500 9.3784 0.5042
76.0700 9.3651 0.5072
76.0900 9.3517 0.5032
76.1100 9.3384 0.5055
76.1300 9.3251 0.5018
76.1500 9.3118 0.5043
76.1700 9.2984 0.4998
76.1900 9.2850 0.5034
76.2100 9.2717 0.4985
76.2300 9.2584 0.5009
76.2500 9.2450 0.4982
76.2700 9.2317 0.4996
76.2900 9.2183 0.4966
76.3100 9.2050 0.4981
76.3300 9.1917 0.4960
76.3500 9.1783 0.4956
76.3700 9.1650 0.4951
76.3900 9.1517 0.4948
76.4100 9.1384 0.4932
76.4300 9.1250 0.4929
76.4500 9.1117 0.4926
76.4700 9.0984 0.4914
76.4900 9.0851 0.4918
76.5100 9.0717 0.4894
76.5300 9.0584 0.4905
76.5500 9.0450 0.4883
76.5700 9.0317 0.4897
76.5900 9.0184 0.4858
76.6100 9.0050 0.4882
76.6300 8.9917 0.4854
76.6500 8.9783 0.4856
76.6700 8.9650 0.4844
76.6900 8.9517 0.4846
76.7100 8.9383 0.4826
76.7300 8.9250 0.4831
76.7500 8.9117 0.4825
76.7700 8.8984 0.4803
76.7900 8.8850 0.4821
76.8100 8.8717 0.4787
76.8300 8.8584 0.4806
76.8500 8.8450 0.4767
76.8700 8.8317 0.4806
76.8900 8.8184 0.4749
76.9100 8.8050 0.4799
76.9300 8.7917 0.4742
76.9500 8.7784 0.4767
76.9700 8.7650 0.4738
76.9900 8.7517 0.4757
77.0100 8.7383 0.4722
77.0300 8.7250 0.4729
77.0500 8.7117 0.4720
77.0700 8.6983 0.4701
77.0900 8.6850 0.4715
77.1100 8.6717 0.4697
77.1300 8.6584 0.4690
77.1500 8.6450 0.4667
77.1700 8.6317 0.4696
77.1900 8.6184 0.4646
77.2100 8.6051 0.4683
77.2300 8.5918 0.4637
77.2500 8.5784 0.4656
77.2700 8.5650 0.4633
77.2900 8.5517 0.4647
77.3100 8.5384 0.4611
77.3300 8.5250 0.4630
77.3500 8.5116 0.4608
77.3700 8.4983 0.4609
77.3900 8.4850 0.4601
77.4100 8.4717 0.4593
77.4300 8.4583 0.4578
77.4500 8.4450 0.4575
77.4700 8.4317 0.4578
77.4900 8.4184 0.4548
77.5100 8.4051 0.4564
77.5300 8.3917 0.4542
77.5500 8.3784 0.4548
77.5700 8.3651 0.4527
77.5900 8.3518 0.4547
77.6100 8.3384 0.4504
77.6300 8.3251 0.4524
77.6500 8.3117 0.4508
77.6700 8.2984 0.4502
77.6900 8.2850 0.4494
77.7100 8.2716 0.4490
77.7300 8.2583 0.4481
77.7500 8.2450 0.4467
77.7700 8.2317 0.4482
77.7900 8.2183 0.4436
77.8100 8.2050 0.4474
77.8300 8.1917 0.4423
77.8500 8.1784 0.4459
77.8700 8.1650 0.4403
77.8900 8.1517 0.4454
77.9100 8.1384 0.4394
77.9300 8.1251 0.4427
77.9500 8.1118 0.4389
77.9700 8.0984 0.4406
77.9900 8.0850 0.4379
78.0100 8.0717 0.4392
78.0300 8.0584 0.4364
78.0500 8.0450 0.4372
78.0700 8.0317 0.4364
78.0900 8.0183 0.4347
78.1100 8.0050 0.4357
78.1300 7.9917 0.4335
78.1500 7.9783 0.4337
78.1700 7.9650 0.4318
78.1900 7.9517 0.4329
78.2100 7.9384 0.4299
78.2300 7.9251 0.4305
78.2500 7.9117 0.4296
78.2700 7.8984 0.4293
78.2900 7.8851 0.4276
78.3100 7.8718 0.4285
78.3300 7.8584 0.4265
78.3500 7.8450 0.4270
78.3700 7.8317 0.4260
78.3900 7.8184 0.4247
78.4100 7.8050 0.4238
78.4300 7.7917 0.4235
78.4500 7.7783 0.4233
78.4700 7.7650 0.4204
78.4900 7.7517 0.4225
78.5100 7.7384 0.4188
78.5300 7.7250 0.4210
78.5500 7.7117 0.4179
78.5700 7.6984 0.4198
78.5900 7.6850 0.4161
78.6100 7.6717 0.4195
78.6300 7.6584 0.4147
78.6500 7.6451 0.4168
78.6700 7.6318 0.4148
78.6900 7.6184 0.4143
78.7100 7.6051 0.4130
78.7300 7.5917 0.4126
78.7500 7.5784 0.4121
78.7700 7.5651 0.4101
78.7900 7.5517 0.4117
78.8100 7.5383 0.4085
78.8300 7.5250 0.4103
78.8500 7.5117 0.4067
78.8700 7.4983 0.4090
78.8900 7.4850 0.4057
78.9100 7.4716 0.4085
78.9300 7.4583 0.4036
78.9500 7.4450 0.4057
78.9700 7.4317 0.4038
78.9900 7.4183 0.4046
79.0100 7.4051 0.4012
79.0300 7.3918 0.4034
79.0500 7.3784 0.4004
79.0700 7.3651 0.4009
79.0900 7.3517 0.3999
79.1100 7.3384 0.3984
79.1300 7.3251 0.3984
79.1500 7.3117 0.3970
79.1700 7.2983 0.3971
79.1900 7.2850 0.3946
79.2100 7.2716 0.3970
79.2300 7.2583 0.3937
79.2500 7.2449 0.3947
79.2700 7.2316 0.3926
79.2900 7.2183 0.3933
79.3100 7.2050 0.3906
79.3300 7.1917 0.3932
79.3500 7.1784 0.3887
79.3700 7.1651 0.3910
79.3900 7.1518 0.3876
79.4100 7.1384 0.3887
79.4300 7.1250 0.3875
79.4500 7.1117 0.3868
79.4700 7.0984 0.3863
79.4900 7.0851 0.3843
79.5100 7.0717 0.3857
79.5300 7.0583 0.3830
79.5500 7.0450 0.3839
79.5700 7.0317 0.3816
79.5900 7.0183 0.3832
79.6100 7.0050 0.3783
79.6300 6.9917 0.3833
79.6500 6.9784 0.3776
79.6700 6.9650 0.3803
79.6900 6.9517 0.3769
79.7100 6.9384 0.3784
79.7300 6.9251 0.3755
79.7500 6.9118 0.3770
79.7700 6.8984 0.3756
79.7900 6.8851 0.3746
79.8100 6.8718 0.3746
79.8300 6.8584 0.3733
79.8500 6.8451 0.3727
79.8700 6.8317 0.3725
79.8900 6.8183 0.3715
79.9100 6.8050 0.3694
79.9300 6.7917 0.3707
79.9500 6.7784 0.3676
79.9700 6.7650 0.3689
79.9900 6.7517 0.3667
80.0100 6.7384 0.3674
80.0300 6.7250 0.3646
80.0500 6.7117 0.3658
80.0700 6.6984 0.3641
80.0900 6.6850 0.3636
80.1100 6.6717 0.3634
80.1300 6.6584 0.3622
80.1500 6.6450 0.3614
80.1700 6.6317 0.3611
80.1900 6.6184 0.3612
80.2100 6.6051 0.3578
80.2300 6.5917 0.3601
80.2500 6.5783 0.3565
80.2700 6.5650 0.3578
80.2900 6.5517 0.3554
80.3100 6.5383 0.3570
80.3300 6.5250 0.3523
80.3500 6.5116 0.3564
80.3700 6.4983 0.3524
80.3900 6.4850 0.3532
80.4100 6.4717 0.3508
80.4300 6.4583 0.3520
80.4500 6.4451 0.3492
80.4700 6.4318 0.3503
80.4900 6.4184 0.3485
80.5100 6.4051 0.3477
80.5300 6.3917 0.3477
80.5500 6.3784 0.3460
80.5700 6.3651 0.3457
80.5900 6.3517 0.3441
80.6100 6.3383 0.3449
80.6300 6.3250 0.3421
80.6500 6.3117 0.3440
80.6700 6.2984 0.3415
80.6900 6.2850 0.3420
80.7100 6.2716 0.3397
80.7300 6.2583 0.3406
80.7500 6.2450 0.3385
80.7700 6.2317 0.3388
80.7900 6.2183 0.3379
80.8100 6.2051 0.3360
80.8300 6.1918 0.3369
80.8500 6.1785 0.3342
80.8700 6.1651 0.3355
80.8900 6.1517 0.3335
80.9100 6.1384 0.3337
80.9300 6.1251 0.3305
80.9500 6.1118 0.3328
80.9700 6.0984 0.3298
80.9900 6.0850 0.3313
81.0100 6.0717 0.3282
81.0300 6.0583 0.3296
81.0500 6.0450 0.3265
81.0700 6.0316 0.3285
81.0900 6.0183 0.3254
81.1100 6.0051 0.3257
81.1300 5.9917 0.3243
81.1500 5.9784 0.3249
81.1700 5.9651 0.3228
81.1900 5.9518 0.3231
81.2100 5.9385 0.3219
81.2300 5.9251 0.3206
81.2500 5.9117 0.3213
81.2700 5.8984 0.3184
81.2900 5.8851 0.3196
81.3100 5.8717 0.3169
81.3300 5.8583 0.3182
81.3500 5.8450 0.3153
81.3700 5.8317 0.3165
81.3900 5.8183 0.3141
81.4100 5.8050 0.3142
81.4300 5.7916 0.3128
81.4500 5.7783 0.3134
81.4700 5.7650 0.3104
81.4900 5.7517 0.3115
81.5100 5.7384 0.3100
81.5300 5.7251 0.3101
81.5500 5.7118 0.3088
81.5700 5.6984 0.3085
81.5900 5.6850 0.3085
81.6100 5.6717 0.3065
81.6300 5.6583 0.3071
81.6500 5.6450 0.3039
81.6700 5.6317 0.3064
81.6900 5.6183 0.3030
81.7100 5.6050 0.3039
81.7300 5.5917 0.3008
81.7500 5.5783 0.3036
81.7700 5.5650 0.2988
81.7900 5.5517 0.3021
81.8100 5.5383 0.2981
81.8300 5.5250 0.2990
81.8500 5.5117 0.2969
81.8700 5.4984 0.2976
81.8900 5.4851 0.2959
81.9100 5.4718 0.2945
81.9300 5.4585 0.2956
81.9500 5.4451 0.2919
81.9700 5.4317 0.2941
81.9900 5.4184 0.2919
82.0100 5.4051 0.2929
82.0300 5.3917 0.2888
82.0500 5.3783 0.2916
82.0700 5.3650 0.2874
82.0900 5.3517 0.2908
82.1100 5.3384 0.2862
82.1300 5.3250 0.2888
82.1500 5.3117 0.2845
82.1700 5.2983 0.2881
82.1900 5.2850 0.2828
82.2100 5.2717 0.2855
82.2300 5.2584 0.2829
82.2500 5.2451 0.2822
82.2700 5.2318 0.2810
82.2900 5.2184 0.2811
82.3100 5.2051 0.2800
82.3300 5.1917 0.2779
82.3500 5.1784 0.2792
82.3700 5.1651 0.2760
82.3900 5.1517 0.2773
82.4100 5.1383 0.2744
82.4300 5.1250 0.2761
82.4500 5.1117 0.2728
82.4700 5.0983 0.2751
82.4900 5.0850 0.2715
82.5100 5.0716 0.2729
82.5300 5.0583 0.2719
82.5500 5.0450 0.2710
82.5700 5.0317 0.2707
82.5900 5.0184 0.2694
82.6100 5.0050 0.2694
82.6300 4.9918 0.2667
82.6500 4.9785 0.2691
82.6700 4.9651 0.2650
82.6900 4.9517 0.2671
82.7100 4.9384 0.2636
82.7300 4.9251 0.2657
82.7500 4.9117 0.2618
82.7700 4.8983 0.2644
82.7900 4.8850 0.2607
82.8100 4.8717 0.2615
82.8300 4.8583 0.2597
82.8500 4.8450 0.2599
82.8700 4.8316 0.2580
82.8900 4.8183 0.2580
82.9100 4.8050 0.2576
82.9300 4.7917 0.2564
82.9500 4.7783 0.2568
82.9700 4.7650 0.2547
82.9900 4.7517 0.2546
83.0100 4.7384 0.2536
83.0300 4.7251 0.2523
83.0500 4.7117 0.2514
83.0700 4.6984 0.2516
83.0900 4.6851 0.2489
83.1100 4.6717 0.2492
83.1300 4.6583 0.2482
83.1500 4.6450 0.2483
83.1700 4.6316 0.2462
83.1900 4.6183 0.2470
83.2100 4.6050 0.2453
83.2300 4.5916 0.2441
83.2500 4.5783 0.2447
83.2700 4.5651 0.2420
83.2900 4.5517 0.2435
83.3100 4.5384 0.2414
83.3300 4.5251 0.2427
83.3500 4.5118 0.2389
83.3700 4.4985 0.2417
83.3900 4.4851 0.2368
83.4100 4.4717 0.2392
83.4300 4.4584 0.2352
83.4500 4.4451 0.2380
83.4700 4.4317 0.2328
83.4900 4.4183 0.2364
83.5100 4.4050 0.2326
83.5300 4.3917 0.2330
83.5500 4.3784 0.2331
83.5700 4.3650 0.2310
83.5900 4.3517 0.2317
83.6100 4.3383 0.2298
83.6300 4.3250 0.2297
83.6500 4.3117 0.2273
83.6700 4.2984 0.2289
83.6900 4.2850 0.2255
83.7100 4.2717 0.2263
83.7300 4.2584 0.2241
83.7500 4.2451 0.2252
83.7700 4.2317 0.2214
83.7900 4.2184 0.2244
83.8100 4.2050 0.2210
83.8300 4.1917 0.2232
83.8500 4.1783 0.2211
83.8700 4.1650 0.2214
83.8900 4.1517 0.2185
83.9100 4.1384 0.2196
83.9300 4.1250 0.2164
83.9500 4.1117 0.2174
83.9700 4.0983 0.2159
83.9900 4.0850 0.2156
84.0100 4.0717 0.2135
84.0300 4.0583 0.2136
84.0500 4.0450 0.2133
84.0700 4.0317 0.2101
84.0900 4.0184 0.2126
84.1100 4.0051 0.2091
84.1300 3.9917 0.2111
84.1500 3.9784 0.2091
84.1700 3.9651 0.2091
84.1900 3.9517 0.2063
84.2100 3.9383 0.2081
84.2300 3.9250 0.2048
84.2500 3.9117 0.2060
84.2700 3.8984 0.2037
84.2900 3.8850 0.2050
84.3100 3.8716 0.2023
84.3300 3.8583 0.2023
84.3500 3.8450 0.2013
84.3700 3.8317 0.1993
84.3900 3.8184 0.2004
84.4100 3.8050 0.1973
84.4300 3.7917 0.1990
84.4500 3.7784 0.1961
84.4700 3.7651 0.1985
84.4900 3.7517 0.1945
84.5100 3.7384 0.1967
84.5300 3.7251 0.1935
84.5500 3.7118 0.1936
84.5700 3.6984 0.1923
84.5900 3.6850 0.1932
84.6100 3.6716 0.1900
84.6300 3.6583 0.1914
84.6500 3.6450 0.1885
84.6700 3.6316 0.1888
84.6900 3.6183 0.1875
84.7100 3.6050 0.1874
84.7300 3.5917 0.1851
84.7500 3.5784 0.1863
84.7700 3.5651 0.1856
84.7900 3.5518 0.1845
84.8100 3.5385 0.1842
84.8300 3.5251 0.1833
84.8500 3.5117 0.1817
84.8700 3.4984 0.1802
84.8900 3.4850 0.1810
84.9100 3.4717 0.1778
84.9300 3.4583 0.1793
84.9500 3.4450 0.1763
84.9700 3.4317 0.1773
84.9900 3.4184 0.1754
85.0100 3.4050 0.1764
85.0300 3.3917 0.1749
85.0500 3.3783 0.1746
85.0700 3.3650 0.1744
85.0900 3.3517 0.1716
85.1100 3.3384 0.1726
85.1300 3.3250 0.1698
85.1500 3.3117 0.1709
85.1700 3.2984 0.1668
85.1900 3.2851 0.1700
85.2100 3.2717 0.1639
85.2300 3.2584 0.1679
85.2500 3.2451 0.1628
85.2700 3.2318 0.1656
85.2900 3.2184 0.1637
85.3100 3.2050 0.1659
85.3300 3.1917 0.1626
85.3500 3.1784 0.1634
85.3700 3.1650 0.1619
85.3900 3.1517 0.1601
85.4100 3.1383 0.1602
85.4300 3.1250 0.1589
85.4500 3.1117 0.1581
85.4700 3.0984 0.1566
85.4900 3.0850 0.1580
85.5100 3.0717 0.1549
85.5300 3.0584 0.1557
85.5500 3.0451 0.1535
85.5700 3.0317 0.1539
85.5900 3.0184 0.1514
85.6100 3.0050 0.1533
85.6300 2.9917 0.1490
85.6500 2.9784 0.1511
85.6700 2.9650 0.1478
85.6900 2.9517 0.1488
85.7100 2.9384 0.1469
85.7300 2.9250 0.1469
85.7500 2.9117 0.1459
85.7700 2.8983 0.1456
85.7900 2.8850 0.1459
85.8100 2.8717 0.1437
85.8300 2.8584 0.1451
85.8500 2.8450 0.1417
85.8700 2.8317 0.1428
85.8900 2.8184 0.1381
85.9100 2.8051 0.1415
85.9300 2.7918 0.1358
85.9500 2.7784 0.1396
85.9700 2.7651 0.1345
85.9900 2.7517 0.1370
86.0100 2.7384 0.1345
86.0300 2.7250 0.1359
86.0500 2.7116 0.1349
86.0700 2.6983 0.1339
86.0900 2.6850 0.1341
86.1100 2.6717 0.1316
86.1300 2.6583 0.1328
86.1500 2.6450 0.1300
86.1700 2.6317 0.1307
86.1900 2.6184 0.1274
86.2100 2.6050 0.1307
86.2300 2.5917 0.1248
86.2500 2.5784 0.1292
86.2700 2.5651 0.1234
86.2900 2.5517 0.1261
86.3100 2.5384 0.1224
86.3300 2.5251 0.1242
86.3500 2.5117 0.1210
86.3700 2.4984 0.1223
86.3900 2.4850 0.1204
86.4100 2.4716 0.1220
86.4300 2.4583 0.1187
86.4500 2.4450 0.1203
86.4700 2.4316 0.1166
86.4900 2.4183 0.1174
86.5100 2.4050 0.1159
86.5300 2.3917 0.1136
86.5500 2.3784 0.1148
86.5700 2.3650 0.1119
86.5900 2.3517 0.1134
86.6100 2.3385 0.1102
86.6300 2.3251 0.1131
86.6500 2.3118 0.1088
86.6700 2.2984 0.1113
86.6900 2.2850 0.1077
86.7100 2.2717 0.1095
86.7300 2.2584 0.1058
86.7500 2.2450 0.1088
86.7700 2.2317 0.1055
86.7900 2.2183 0.1055
86.8100 2.2050 0.1057
86.8300 2.1916 0.1024
86.8500 2.1783 0.1044
86.8700 2.1650 0.1003
86.8900 2.1517 0.1040
86.9100 2.1384 0.0977
86.9300 2.1250 0.1029
86.9500 2.1117 0.0966
86.9700 2.0984 0.1003
86.9900 2.0851 0.0954
87.0100 2.0717 0.0987
87.0300 2.0584 0.0939
87.0500 2.0450 0.0961
87.0700 2.0317 0.0932
87.0900 2.0184 0.0930
87.1100 2.0050 0.0934
87.1300 1.9917 0.0929
87.1500 1.9784 0.0916
87.1700 1.9651 0.0903
87.1900 1.9517 0.0904
87.2100 1.9383 0.0869
87.2300 1.9250 0.0889
87.2500 1.9117 0.0849
87.2700 1.8984 0.0864
87.2900 1.8850 0.0836
87.3100 1.8717 0.0850
87.3300 1.8584 0.0826
87.3500 1.8451 0.0851
87.3700 1.8317 0.0818
87.3900 1.8184 0.0829
87.4100 1.8051 0.0806
87.4300 1.7918 0.0811
87.4500 1.7784 0.0786
87.4700 1.7650 0.0792
87.4900 1.7517 0.0777
87.5100 1.7383 0.0769
87.5300 1.7250 0.0766
87.5500 1.7117 0.0750
87.5700 1.6983 0.0754
87.5900 1.6850 0.0727
87.6100 1.6717 0.0743
87.6300 1.6584 0.0696
87.6500 1.6450 0.0734
87.6700 1.6317 0.0685
87.6900 1.6184 0.0709
87.7100 1.6051 0.0666
87.7300 1.5917 0.0688
87.7500 1.5784 0.0654
87.7700 1.5651 0.0662
87.7900 1.5518 0.0648
87.8100 1.5384 0.0636
87.8300 1.5250 0.0652
87.8500 1.5117 0.0619
87.8700 1.4984 0.0644
87.8900 1.4850 0.0595
87.9100 1.4717 0.0627
87.9300 1.4583 0.0575
87.9500 1.4450 0.0608
87.9700 1.4317 0.0568
87.9900 1.4183 0.0582
88.0100 1.4050 0.0558
88.0300 1.3917 0.0564
88.0500 1.3784 0.0539
88.0700 1.3651 0.0546
88.0900 1.3518 0.0534
88.1100 1.3384 0.0530
88.1300 1.3251 0.0527
88.1500 1.3117 0.0513
88.1700 1.2984 0.0507
88.1900 1.2851 0.0493
88.2100 1.2717 0.0495
88.2300 1.2583 0.0467
88.2500 1.2450 0.0478
88.2700 1.2316 0.0458
88.2900 1.2183 0.0456
88.3100 1.2050 0.0448
88.3300 1.1917 0.0449
88.3500 1.1784 0.0420
88.3700 1.1651 0.0439
88.3900 1.1517 0.0402
88.4100 1.1384 0.0414
88.4300 1.1251 0.0382
88.4500 1.1117 0.0401
88.4700 1.0984 0.0372
88.4900 1.0850 0.0373
88.5100 1.0717 0.0365
88.5300 1.0584 0.0343
88.5500 1.0450 0.0353
88.5700 1.0316 0.0331
88.5900 1.0183 0.0331
88.6100 1.0050 0.0315
88.6300 0.9917 0.0350
88.6500 0.9783 0.0316
88.6700 0.9650 0.0355
88.6900 0.9517 0.0309
88.7100 0.9384 0.0326
88.7300 0.9250 0.0288
88.7500 0.9117 0.0309
88.7700 0.8984 0.0268
88.7900 0.8851 0.0276
88.8100 0.8718 0.0261
88.8300 0.8584 0.0246
88.8500 0.8450 0.0248
88.8700 0.8317 0.0229
88.8900 0.8184 0.0221
88.9100 0.8050 0.0202
88.9300 0.7916 0.0208
88.9500 0.7783 0.0181
88.9700 0.7650 0.0191
88.9900 0.7517 0.0161
89.0100 0.7383 0.0167
89.0300 0.7250 0.0142
89.0500 0.7117 0.0156
89.0700 0.6984 0.0121
89.0900 0.6850 0.0130
89.1100 0.6717 0.0113
89.1300 0.6584 0.0104
89.1500 0.6451 0.0085
89.1700 0.6318 0.0097
89.1900 0.6184 0.0064
89.2100 0.6050 0.0071
89.2300 0.5917 0.0054
89.2500 0.5784 0.0042
89.2700 0.5650 0.0036
89.2900 0.5517 0.0023
89.3100 0.5383 0.0015
89.3300 0.5250 -0.0002
89.3500 0.5117 0.0007
89.3700 0.4983 -0.0033
89.3900 0.4850 -0.0011
89.4100 0.4717 -0.0044
89.4300 0.4584 -0.0028
89.4500 0.4450 -0.0064
89.4700 0.4317 -0.0046
89.4900 0.4184 -0.0070
89.5100 0.4051 -0.0061
89.5300 0.3918 -0.0074
89.5500 0.3784 -0.0088
89.5700 0.3651 -0.0095
89.5900 0.3518 -0.0118
89.6100 0.3384 -0.0116
89.6300 0.3250 -0.0146
89.6500 0.3116 -0.0130
89.6700 0.2983 -0.0168
89.6900 0.2850 -0.0159
89.7100 0.2716 -0.0181
89.7300 0.2583 -0.0179
89.7500 0.2449 -0.0200
89.7700 0.2317 -0.0200
89.7900 0.2184 -0.0220
89.8100 0.2050 -0.0214
89.8300 0.1917 -0.0227
89.8500 0.1784 -0.0239
89.8700 0.1651 -0.0245
89.8900 0.1518 -0.0251
89.9100 0.1384 -0.0264
89.9300 0.1250 -0.0264
89.9500 0.1117 -0.0270
89.9700 0.0984 -0.0291
89.9900 0.0850 -0.0283
90.0100 0.0716 -0.0302
90.0300 0.0583 -0.0286
90.0500 0.0450 -0.0323
90.0700 0.0317 -0.0295
90.0900 0.0183 -0.0333
90.1100 0.0050 -0.0297
90.1180 -0.0002 -0.0276
