Raw Data
Time Displacement Force
(s) (mm) (N)
0.0000 0.0000 -0.0312
0.0200 0.0001 -0.0300
0.0400 0.0018 -0.0196
0.0600 0.0088 -0.0203
0.0800 0.0203 -0.0310
0.1000 0.0326 -0.0280
0.1200 0.0451 -0.0297
0.1400 0.0585 -0.0245
0.1600 0.0727 -0.0281
0.1800 0.0870 -0.0246
0.2000 0.1010 -0.0255
0.2200 0.1147 -0.0233
0.2400 0.1281 -0.0227
0.2600 0.1414 -0.0206
0.2800 0.1546 -0.0195
0.3000 0.1680 -0.0195
0.3200 0.1813 -0.0159
0.3400 0.1947 -0.0172
0.3600 0.2080 -0.0130
0.3800 0.2213 -0.0127
0.4000 0.2346 -0.0080
0.4200 0.2480 -0.0095
0.4400 0.2614 -0.0044
0.4600 0.2747 -0.0050
0.4800 0.2880 -0.0009
0.5000 0.3014 -0.0002
0.5200 0.3148 0.0025
0.5400 0.3281 0.0053
0.5600 0.3414 0.0073
0.5800 0.3547 0.0102
0.6000 0.3681 0.0107
0.6200 0.3815 0.0151
0.6400 0.3947 0.0154
0.6600 0.4080 0.0197
0.6800 0.4213 0.0195
0.7000 0.4347 0.0249
0.7200 0.4480 0.0225
0.7400 0.4614 0.0306
0.7600 0.4747 0.0274
0.7800 0.4880 0.0346
0.8000 0.5014 0.0327
0.8200 0.5147 0.0379
0.8400 0.5281 0.0370
0.8600 0.5414 0.0417
0.8800 0.5548 0.0423
0.9000 0.5681 0.0458
0.9200 0.5814 0.0479
0.9400 0.5947 0.0494
0.9600 0.6081 0.0520
0.9800 0.6214 0.0536
1.0000 0.6347 0.0567
1.0200 0.6480 0.0572
1.0400 0.6613 0.0614
1.0600 0.6747 0.0616
1.0800 0.6880 0.0653
1.1000 0.7013 0.0665
1.1200 0.7146 0.0701
1.1400 0.7280 0.0702
1.1600 0.7414 0.0739
1.1800 0.7547 0.0748
1.2000 0.7680 0.0770
1.2200 0.7814 0.0796
1.2400 0.7948 0.0815
1.2600 0.8081 0.0833
1.2800 0.8214 0.0859
1.3000 0.8347 0.0888
1.3200 0.8481 0.0886
1.3400 0.8614 0.0932
1.3600 0.8748 0.0928
1.3800 0.8881 0.0968
1.4000 0.9014 0.0969
1.4200 0.9148 0.1004
1.4400 0.9281 0.1010
1.4600 0.9414 0.1040
1.4800 0.9546 0.1064
1.5000 0.9680 0.1069
1.5200 0.9813 0.1109
1.5400 0.9946 0.1108
1.5600 1.0080 0.1145
1.5800 1.0213 0.1148
1.6000 1.0347 0.1185
1.6200 1.0481 0.1173
1.6400 1.0614 0.1229
1.6600 1.0748 0.1219
1.6800 1.0881 0.1265
1.7000 1.1015 0.1263
1.7200 1.1148 0.1306
1.7400 1.1281 0.1295
1.7600 1.1414 0.1339
1.7800 1.1547 0.1343
1.8000 1.1680 0.1368
1.8200 1.1813 0.1391
1.8400 1.1946 0.1403
1.8600 1.2080 0.1420
1.8800 1.2213 0.1436
1.9000 1.2347 0.1464
1.9200 1.2480 0.1466
1.9400 1.2614 0.1508
1.9600 1.2748 0.1504
1.9800 1.2881 0.1539
2.0000 1.3015 0.1536
2.0200 1.3148 0.1590
2.0400 1.3281 0.1568
2.0600 1.3415 0.1616
2.0800 1.3548 0.1614
2.1000 1.3680 0.1643
2.1200 1.3814 0.1656
2.1400 1.3947 0.1678
2.1600 1.4081 0.1687
2.1800 1.4213 0.1714
2.2000 1.4347 0.1734
2.2200 1.4480 0.1734
2.2400 1.4614 0.1773
2.2600 1.4747 0.1766
2.2800 1.4880 0.1813
2.3000 1.5014 0.1797
2.3200 1.5148 0.1861
2.3400 1.5281 0.1821
2.3600 1.5415 0.1892
2.3800 1.5548 0.1866
2.4000 1.5681 0.1914
2.4200 1.5814 0.1906
2.4400 1.5947 0.1944
2.4600 1.6080 0.1948
2.4800 1.6214 0.1960
2.5000 1.6347 0.2003
2.5200 1.6480 0.1982
2.5400 1.6613 0.2028
2.5600 1.6746 0.2027
2.5800 1.6880 0.2062
2.6000 1.7014 0.2051
2.6200 1.7147 0.2100
2.6400 1.7280 0.2080
2.6600 1.7414 0.2132
2.6800 1.7548 0.2126
2.7000 1.7681 0.2146
2.7200 1.7814 0.2167
2.7400 1.7947 0.2181
2.7600 1.8081 0.2202
2.7800 1.8215 0.2204
2.8000 1.8348 0.2250
2.8200 1.8481 0.2226
2.8400 1.8614 0.2275
2.8600 1.8747 0.2269
2.8800 1.8880 0.2304
2.9000 1.9013 0.2301
2.9200 1.9147 0.2341
2.9400 1.9280 0.2331
2.9600 1.9414 0.2364
2.9800 1.9547 0.2375
3.0000 1.9680 0.2390
3.0200 1.9814 0.2405
3.0400 1.9948 0.2423
3.0600 2.0081 0.2435
3.0800 2.0214 0.2449
3.1000 2.0347 0.2478
3.1200 2.0480 0.2475
3.1400 2.0614 0.2508
3.1600 2.0748 0.2509
3.1800 2.0881 0.2539
3.2000 2.1014 0.2536
3.2200 2.1147 0.2575
3.2400 2.1281 0.2556
3.2600 2.1414 0.2603
3.2800 2.1547 0.2589
3.3000 2.1680 0.2639
3.3200 2.1814 0.2618
3.3400 2.1947 0.2680
3.3600 2.2080 0.2650
3.3800 2.2214 0.2696
3.4000 2.2347 0.2689
3.4200 2.2481 0.2715
3.4400 2.2614 0.2727
3.4600 2.2747 0.2746
3.4800 2.2881 0.2763
3.5000 2.3014 0.2766
3.5200 2.3148 0.2798
3.5400 2.3281 0.2794
3.5600 2.3414 0.2825
3.5800 2.3547 0.2830
3.6000 2.3681 0.2851
3.6200 2.3814 0.2849
3.6400 2.3946 0.2891
3.6600 2.4080 0.2881
3.6800 2.4213 0.2914
3.7000 2.4347 0.2911
3.7200 2.4480 0.2936
3.7400 2.4614 0.2943
3.7600 2.4748 0.2963
3.7800 2.4881 0.2971
3.8000 2.5015 0.2997
3.8200 2.5148 0.3007
3.8400 2.5281 0.3019
3.8600 2.5415 0.3034
3.8800 2.5548 0.3050
3.9000 2.5680 0.3067
3.9200 2.5813 0.3067
3.9400 2.5947 0.3106
3.9600 2.6080 0.3089
3.9800 2.6214 0.3131
4.0000 2.6347 0.3130
4.0200 2.6480 0.3155
4.0400 2.6614 0.3154
4.0600 2.6747 0.3183
4.0800 2.6880 0.3180
4.1000 2.7014 0.3206
4.1200 2.7148 0.3216
4.1400 2.7281 0.3233
4.1600 2.7414 0.3239
4.1800 2.7547 0.3261
4.2000 2.7681 0.3279
4.2200 2.7814 0.3275
4.2400 2.7948 0.3317
4.2600 2.8081 0.3301
4.2800 2.8214 0.3342
4.3000 2.8347 0.3335
4.3200 2.8481 0.3370
4.3400 2.8614 0.3360
4.3600 2.8747 0.3404
4.3800 2.8880 0.3389
4.4000 2.9014 0.3416
4.4200 2.9147 0.3422
4.4400 2.9281 0.3438
4.4600 2.9414 0.3442
4.4800 2.9548 0.3461
4.5000 2.9681 0.3482
4.5200 2.9814 0.3475
4.5400 2.9947 0.3524
4.5600 3.0081 0.3496
4.5800 3.0214 0.3544
4.6000 3.0348 0.3529
4.6200 3.0481 0.3569
4.6400 3.0614 0.3544
4.6600 3.0747 0.3599
4.6800 3.0881 0.3577
4.7000 3.1014 0.3611
4.7200 3.1147 0.3624
4.7400 3.1280 0.3636
4.7600 3.1414 0.3643
4.7800 3.1547 0.3660
4.8000 3.1681 0.3682
4.8200 3.1814 0.3675
4.8400 3.1947 0.3715
4.8600 3.2081 0.3699
4.8800 3.2214 0.3736
4.9000 3.2347 0.3726
4.9200 3.2480 0.3769
4.9400 3.2614 0.3743
4.9600 3.2747 0.3797
4.9800 3.2880 0.3778
5.0000 3.3013 0.3813
5.0200 3.3147 0.3807
5.0400 3.3281 0.3837
5.0600 3.3414 0.3829
5.0800 3.3547 0.3858
5.1000 3.3680 0.3869
5.1200 3.3814 0.3868
5.1400 3.3947 0.3898
5.1600 3.4080 0.3897
5.1800 3.4213 0.3918
5.2000 3.4347 0.3924
5.2200 3.4481 0.3955
5.2400 3.4614 0.3939
5.2600 3.4747 0.3981
5.2800 3.4881 0.3966
5.3000 3.5014 0.4004
5.3200 3.5148 0.3991
5.3400 3.5281 0.4030
5.3600 3.5414 0.4021
5.3800 3.5547 0.4039
5.4000 3.5681 0.4054
5.4200 3.5814 0.4056
5.4400 3.5947 0.4082
5.4600 3.6080 0.4068
5.4800 3.6213 0.4099
5.5000 3.6347 0.4093
5.5200 3.6480 0.4135
5.5400 3.6613 0.4107
5.5600 3.6747 0.4169
5.5800 3.6881 0.4137
5.6000 3.7014 0.4177
5.6200 3.7147 0.4170
5.6400 3.7281 0.4203
5.6600 3.7415 0.4198
5.6800 3.7548 0.4202
5.7000 3.7681 0.4237
5.7200 3.7814 0.4224
5.7400 3.7947 0.4269
5.7600 3.8081 0.4241
5.7800 3.8214 0.4289
5.8000 3.8347 0.4273
5.8200 3.8480 0.4322
5.8400 3.8613 0.4287
5.8600 3.8747 0.4350
5.8800 3.8880 0.4316
5.9000 3.9013 0.4360
5.9200 3.9147 0.4345
5.9400 3.9281 0.4386
5.9600 3.9414 0.4373
5.9800 3.9548 0.4395
6.0000 3.9681 0.4413
6.0200 3.9814 0.4411
6.0400 3.9948 0.4448
6.0600 4.0081 0.4433
6.0800 4.0214 0.4466
6.1000 4.0347 0.4457
6.1200 4.0480 0.4494
6.1400 4.0614 0.4466
6.1600 4.0747 0.4523
6.1800 4.0880 0.4498
6.2000 4.1014 0.4534
6.2200 4.1147 0.4519
6.2400 4.1281 0.4566
6.2600 4.1414 0.4544
6.2800 4.1548 0.4586
6.3000 4.1681 0.4578
6.3200 4.1814 0.4595
6.3400 4.1947 0.4609
6.3600 4.2080 0.4627
6.3800 4.2214 0.4629
6.4000 4.2347 0.4641
6.4200 4.2481 0.4661
6.4400 4.2614 0.4650
6.4600 4.2747 0.4684
6.4800 4.2881 0.4675
6.5000 4.3014 0.4702
6.5200 4.3147 0.4691
6.5400 4.3280 0.4746
6.5600 4.3413 0.4702
6.5800 4.3547 0.4764
6.6000 4.3680 0.4738
6.6200 4.3814 0.4763
6.6400 4.3947 0.4767
6.6600 4.4081 0.4788
6.6800 4.4214 0.4782
6.7000 4.4348 0.4795
6.7200 4.4481 0.4823
6.7400 4.4614 0.4802
6.7600 4.4748 0.4846
6.7800 4.4881 0.4831
6.8000 4.5014 0.4871
6.8200 4.5147 0.4848
6.8400 4.5281 0.4898
6.8600 4.5414 0.4864
6.8800 4.5547 0.4919
6.9000 4.5680 0.4907
6.9200 4.5813 0.4922
6.9400 4.5947 0.4926
6.9600 4.6080 0.4945
6.9800 4.6213 0.4953
7.0000 4.6347 0.4956
7.0200 4.6481 0.4981
7.0400 4.6614 0.4974
7.0600 4.6748 0.5004
7.0800 4.6881 0.4999
7.1000 4.7014 0.5027
7.1200 4.7148 0.5013
7.1400 4.7281 0.5054
7.1600 4.7414 0.5027
7.1800 4.7547 0.5079
7.2000 4.7681 0.5062
7.2200 4.7814 0.5090
7.2400 4.7947 0.5078
7.2600 4.8080 0.5118
7.2800 4.8213 0.5106
7.3000 4.8347 0.5127
7.3200 4.8480 0.5136
7.3400 4.8613 0.5131
7.3600 4.8747 0.5158
7.3800 4.8881 0.5146
7.4000 4.9014 0.5189
7.4200 4.9147 0.5164
7.4400 4.9281 0.5227
7.4600 4.9414 0.5179
7.4800 4.9548 0.5240
7.5000 4.9682 0.5209
7.5200 4.9814 0.5263
7.5400 4.9947 0.5224
7.5600 5.0081 0.5285
7.5800 5.0214 0.5250
7.6000 5.0347 0.5291
7.6200 5.0480 0.5292
7.6400 5.0613 0.5304
7.6600 5.0747 0.5319
7.6800 5.0880 0.5314
7.7000 5.1014 0.5342
7.7200 5.1147 0.5316
7.7400 5.1281 0.5357
7.7600 5.1415 0.5332
7.7800 5.1548 0.5381
7.8000 5.1681 0.5359
7.8200 5.1814 0.5405
7.8400 5.1948 0.5383
7.8600 5.2081 0.5426
7.8800 5.2214 0.5406
7.9000 5.2347 0.5435
7.9200 5.2480 0.5444
7.9400 5.2613 0.5438
7.9600 5.2747 0.5469
7.9800 5.2880 0.5466
8.0000 5.3013 0.5494
8.0200 5.3147 0.5476
8.0400 5.3280 0.5513
8.0600 5.3414 0.5501
8.0800 5.3547 0.5531
8.1000 5.3681 0.5528
8.1200 5.3815 0.5552
8.1400 5.3948 0.5539
8.1600 5.4081 0.5581
8.1800 5.4214 0.5556
8.2000 5.4348 0.5584
8.2200 5.4481 0.5577
8.2400 5.4614 0.5601
8.2600 5.4747 0.5604
8.2800 5.4880 0.5625
8.3000 5.5014 0.5625
8.3200 5.5147 0.5635
8.3400 5.5280 0.5651
8.3600 5.5413 0.5645
8.3800 5.5547 0.5673
8.4000 5.5680 0.5664
8.4200 5.5814 0.5695
8.4400 5.5947 0.5675
8.4600 5.6081 0.5731
8.4800 5.6214 0.5691
8.5000 5.6347 0.5747
8.5200 5.6480 0.5724
8.5400 5.6614 0.5760
8.5600 5.6748 0.5747
8.5800 5.6881 0.5769
8.6000 5.7014 0.5781
8.6200 5.7147 0.5778
8.6400 5.7281 0.5810
8.6600 5.7415 0.5790
8.6800 5.7548 0.5828
8.7000 5.7680 0.5815
8.7200 5.7813 0.5849
8.7400 5.7947 0.5830
8.7600 5.8080 0.5864
8.7800 5.8213 0.5839
8.8000 5.8347 0.5867
8.8200 5.8481 0.5868
8.8400 5.8615 0.5885
8.8600 5.8748 0.5895
8.8800 5.8881 0.5894
8.9000 5.9015 0.5924
8.9200 5.9148 0.5897
8.9400 5.9282 0.5946
8.9600 5.9414 0.5925
8.9800 5.9547 0.5956
9.0000 5.9681 0.5946
9.0200 5.9814 0.5966
9.0400 5.9947 0.5953
9.0600 6.0080 0.5992
9.0800 6.0213 0.5984
9.1000 6.0347 0.6003
9.1200 6.0480 0.6006
9.1400 6.0614 0.6028
9.1600 6.0747 0.6019
9.1800 6.0881 0.6050
9.2000 6.1014 0.6045
9.2200 6.1148 0.6058
9.2400 6.1281 0.6068
9.2600 6.1414 0.6082
9.2800 6.1548 0.6082
9.3000 6.1681 0.6101
9.3200 6.1814 0.6117
9.3400 6.1947 0.6109
9.3600 6.2080 0.6139
9.3800 6.2214 0.6129
9.4000 6.2347 0.6159
9.4200 6.2480 0.6142
9.4400 6.2613 0.6185
9.4600 6.2747 0.6155
9.4800 6.2880 0.6193
9.5000 6.3014 0.6192
9.5200 6.3147 0.6198
9.5400 6.3281 0.6221
9.5600 6.3414 0.6211
9.5800 6.3548 0.6233
9.6000 6.3681 0.6218
9.6200 6.3814 0.6262
9.6400 6.3948 0.6222
9.6600 6.4081 0.6281
9.6800 6.4214 0.6259
9.7000 6.4347 0.6284
9.7200 6.4480 0.6286
9.7400 6.4614 0.6312
9.7600 6.4747 0.6300
9.7800 6.4879 0.6320
9.8000 6.5013 0.6330
9.8200 6.5147 0.6323
9.8400 6.5280 0.6355
9.8600 6.5414 0.6349
9.8800 6.5547 0.6367
9.9000 6.5681 0.6366
9.9200 6.5815 0.6396
9.9400 6.5948 0.6378
9.9600 6.6081 0.6410
9.9800 6.6214 0.6413
10.0000 6.6348 0.6419
10.0200 6.6481 0.6426
10.0400 6.6614 0.6442
10.0600 6.6747 0.6436
10.0800 6.6880 0.6450
10.1000 6.7014 0.6439
10.1200 6.7147 0.6458
10.1400 6.7280 0.6459
10.1600 6.7413 0.6491
10.1800 6.7547 0.6472
10.2000 6.7680 0.6502
10.2200 6.7814 0.6509
10.2400 6.7947 0.6503
10.2600 6.8081 0.6528
10.2800 6.8215 0.6523
10.3000 6.8348 0.6542
10.3200 6.8480 0.6542
10.3400 6.8614 0.6567
10.3600 6.8747 0.6546
10.3800 6.8881 0.6582
10.4000 6.9014 0.6563
10.4200 6.9147 0.6584
10.4400 6.9280 0.6580
10.4600 6.9414 0.6608
10.4800 6.9547 0.6598
10.5000 6.9680 0.6614
10.5200 6.9813 0.6640
10.5400 6.9946 0.6614
10.5600 7.0080 0.6668
10.5800 7.0213 0.6633
10.6000 7.0347 0.6679
10.6200 7.0481 0.6654
10.6400 7.0614 0.6704
10.6600 7.0748 0.6669
10.6800 7.0881 0.6719
10.7000 7.1014 0.6700
10.7200 7.1148 0.6725
10.7400 7.1281 0.6721
10.7600 7.1414 0.6749
10.7800 7.1547 0.6740
10.8000 7.1680 0.6760
10.8200 7.1814 0.6775
10.8400 7.1947 0.6760
10.8600 7.2080 0.6797
10.8800 7.2213 0.6776
10.9000 7.2346 0.6791
10.9200 7.2480 0.6777
10.9400 7.2613 0.6819
10.9600 7.2746 0.6797
10.9800 7.2880 0.6834
11.0000 7.3015 0.6827
11.0200 7.3148 0.6846
11.0400 7.3282 0.6838
11.0600 7.3415 0.6877
11.0800 7.3548 0.6848
11.1000 7.3682 0.6882
11.1200 7.3814 0.6882
11.1400 7.3947 0.6888
11.1600 7.4080 0.6889
11.1800 7.4214 0.6897
11.2000 7.4347 0.6906
11.2200 7.4480 0.6910
11.2400 7.4613 0.6938
11.2600 7.4747 0.6923
11.2800 7.4880 0.6957
11.3000 7.5014 0.6941
11.3200 7.5147 0.6972
11.3400 7.5281 0.6961
11.3600 7.5415 0.6998
11.3800 7.5548 0.6971
11.4000 7.5681 0.7003
11.4200 7.5814 0.7002
11.4400 7.5948 0.7003
11.4600 7.6081 0.7020
11.4800 7.6214 0.7019
11.5000 7.6347 0.7040
11.5200 7.6480 0.7007
11.5400 7.6614 0.7062
11.5600 7.6747 0.7022
11.5800 7.6880 0.7073
11.6000 7.7013 0.7056
11.6200 7.7147 0.7090
11.6400 7.7280 0.7070
11.6600 7.7414 0.7110
11.6800 7.7547 0.7086
11.7000 7.7681 0.7112
11.7200 7.7814 0.7118
11.7400 7.7948 0.7122
11.7600 7.8081 0.7139
11.7800 7.8214 0.7141
11.8000 7.8348 0.7162
11.8200 7.8481 0.7144
11.8400 7.8614 0.7187
11.8600 7.8747 0.7159
11.8800 7.8880 0.7202
11.9000 7.9014 0.7187
11.9200 7.9147 0.7211
11.9400 7.9280 0.7205
11.9600 7.9413 0.7232
11.9800 7.9547 0.7219
12.0000 7.9680 0.7236
12.0200 7.9814 0.7252
12.0400 7.9947 0.7251
12.0600 8.0081 0.7257
12.0800 8.0214 0.7272
12.1000 8.0348 0.7273
12.1200 8.0481 0.7271
12.1400 8.0614 0.7306
12.1600 8.0747 0.7293
12.1800 8.0881 0.7317
12.2000 8.1014 0.7308
12.2200 8.1147 0.7343
12.2400 8.1280 0.7315
12.2600 8.1414 0.7356
12.2800 8.1548 0.7335
12.3000 8.1681 0.7363
12.3200 8.1814 0.7365
12.3400 8.1947 0.7383
12.3600 8.2080 0.7375
12.3800 8.2214 0.7398
12.4000 8.2347 0.7402
12.4200 8.2480 0.7400
12.4400 8.2614 0.7426
12.4600 8.2748 0.7402
12.4800 8.2881 0.7426
12.5000 8.3014 0.7393
12.5200 8.3148 0.7442
12.5400 8.3281 0.7397
12.5600 8.3415 0.7467
12.5800 8.3548 0.7417
12.6000 8.3681 0.7476
12.6200 8.3814 0.7446
12.6400 8.3947 0.7488
12.6600 8.4080 0.7468
12.6800 8.4213 0.7505
12.7000 8.4347 0.7493
12.7200 8.4480 0.7511
12.7400 8.4613 0.7520
12.7600 8.4746 0.7517
12.7800 8.4880 0.7543
12.8000 8.5014 0.7524
12.8200 8.5148 0.7554
12.8400 8.5281 0.7521
12.8600 8.5414 0.7578
12.8800 8.5548 0.7550
12.9000 8.5681 0.7573
12.9200 8.5815 0.7558
12.9400 8.5948 0.7564
12.9600 8.6080 0.7557
12.9800 8.6214 0.7589
13.0000 8.6347 0.7579
13.0200 8.6480 0.7599
13.0400 8.6613 0.7614
13.0600 8.6746 0.7621
13.0800 8.6880 0.7622
13.1000 8.7013 0.7636
13.1200 8.7147 0.7656
13.1400 8.7280 0.7636
13.1600 8.7414 0.7680
13.1800 8.7548 0.7657
13.2000 8.7681 0.7686
13.2200 8.7814 0.7680
13.2400 8.7947 0.7706
13.2600 8.8081 0.7691
13.2800 8.8214 0.7725
13.3000 8.8347 0.7710
13.3200 8.8480 0.7732
13.3400 8.8614 0.7733
13.3600 8.8747 0.7743
13.3800 8.8880 0.7749
13.4000 8.9013 0.7758
13.4200 8.9147 0.7780
13.4400 8.9281 0.7753
13.4600 8.9414 0.7803
13.4800 8.9547 0.7777
13.5000 8.9681 0.7811
13.5200 8.9814 0.7789
13.5400 8.9948 0.7827
13.5600 9.0081 0.7793
13.5800 9.0214 0.7853
13.6000 9.0347 0.7817
13.6200 9.0481 0.7838
13.6400 9.0614 0.7835
13.6600 9.0747 0.7859
13.6800 9.0881 0.7854
13.7000 9.1014 0.7867
13.7200 9.1148 0.7886
13.7400 9.1281 0.7861
13.7600 9.1414 0.7913
13.7800 9.1547 0.7882
13.8000 9.1680 0.7925
13.8200 9.1814 0.7896
13.8400 9.1947 0.7949
13.8600 9.2080 0.7909
13.8800 9.2214 0.7962
13.9000 9.2348 0.7935
13.9200 9.2481 0.7965
13.9400 9.2614 0.7962
13.9600 9.2748 0.7979
13.9800 9.2881 0.7967
14.0000 9.3015 0.7990
14.0200 9.3148 0.7994
14.0400 9.3281 0.7979
14.0600 9.3414 0.8003
14.0800 9.3548 0.7996
14.1000 9.3681 0.8016
14.1200 9.3813 0.8012
14.1400 9.3946 0.8049
14.1600 9.4080 0.8023
14.1800 9.4213 0.8060
14.2000 9.4347 0.8046
14.2200 9.4480 0.8070
14.2400 9.4614 0.8056
14.2600 9.4748 0.8075
14.2800 9.4881 0.8036
14.3000 9.5014 0.8076
14.3200 9.5147 0.8070
14.3400 9.5281 0.8084
14.3600 9.5415 0.8092
14.3800 9.5548 0.8107
14.4000 9.5681 0.8116
14.4200 9.5814 0.8110
14.4400 9.5947 0.8141
14.4600 9.6081 0.8114
14.4800 9.6214 0.8170
14.5000 9.6347 0.8136
14.5200 9.6480 0.8170
14.5400 9.6614 0.8157
14.5600 9.6747 0.8188
14.5800 9.6880 0.8169
14.6000 9.7013 0.8197
14.6200 9.7147 0.8197
14.6400 9.7281 0.8199
14.6600 9.7414 0.8214
14.6800 9.7548 0.8209
14.7000 9.7681 0.8242
14.7200 9.7815 0.8218
14.7400 9.7948 0.8266
14.7600 9.8081 0.8227
14.7800 9.8214 0.8278
14.8000 9.8347 0.8250
14.8200 9.8481 0.8281
14.8400 9.8613 0.8265
14.8600 9.8747 0.8300
14.8800 9.8880 0.8289
14.9000 9.9013 0.8300
14.9200 9.9147 0.8310
14.9400 9.9280 0.8307
14.9600 9.9414 0.8329
14.9800 9.9548 0.8320
15.0000 9.9681 0.8344
15.0200 9.9814 0.8326
15.0400 9.9947 0.8370
15.0600 10.0081 0.8335
15.0800 10.0215 0.8384
15.1000 10.0348 0.8363
15.1200 10.0481 0.8396
15.1400 10.0613 0.8372
15.1600 10.0747 0.8403
15.1800 10.0880 0.8370
15.2000 10.1013 0.8401
15.2200 10.1147 0.8394
15.2400 10.1280 0.8416
15.2600 10.1414 0.8413
15.2800 10.1547 0.8433
15.3000 10.1681 0.8428
15.3200 10.1814 0.8442
15.3400 10.1948 0.8459
15.3600 10.2081 0.8444
15.3800 10.2214 0.8466
15.4000 10.2348 0.8447
15.4200 10.2481 0.8473
15.4400 10.2614 0.8449
15.4600 10.2747 0.8504
15.4800 10.2880 0.8473
15.5000 10.3013 0.8519
15.5200 10.3147 0.8495
15.5400 10.3280 0.8524
15.5600 10.3413 0.8515
15.5800 10.3546 0.8542
15.6000 10.3680 0.8534
15.6200 10.3814 0.8539
15.6400 10.3947 0.8568
15.6600 10.4080 0.8538
15.6800 10.4214 0.8587
15.7000 10.4348 0.8557
15.7200 10.4481 0.8603
15.7400 10.4614 0.8563
15.7600 10.4747 0.8618
15.7800 10.4881 0.8583
15.8000 10.5014 0.8617
15.8200 10.5148 0.8620
15.8400 10.5281 0.8622
15.8600 10.5414 0.8631
15.8800 10.5548 0.8634
15.9000 10.5681 0.8654
15.9200 10.5814 0.8640
15.9400 10.5947 0.8682
15.9600 10.6080 0.8652
15.9800 10.6213 0.8687
16.0000 10.6347 0.8667
16.0200 10.6480 0.8709
16.0400 10.6614 0.8677
16.0600 10.6748 0.8721
16.0800 10.6881 0.8695
16.1000 10.7015 0.8724
16.1200 10.7148 0.8717
16.1400 10.7281 0.8731
16.1600 10.7415 0.8730
16.1800 10.7548 0.8751
16.2000 10.7681 0.8753
16.2200 10.7814 0.8753
16.2400 10.7947 0.8764
16.2600 10.8080 0.8765
16.2800 10.8213 0.8779
16.3000 10.8346 0.8778
16.3200 10.8480 0.8800
16.3400 10.8613 0.8782
16.3600 10.8747 0.8825
16.3800 10.8880 0.8793
16.4000 10.9014 0.8829
16.4200 10.9148 0.8811
16.4400 10.9281 0.8828
16.4600 10.9414 0.8807
16.4800 10.9548 0.8842
16.5000 10.9681 0.8829
16.5200 10.9815 0.8848
16.5400 10.9948 0.8859
16.5600 11.0081 0.8866
16.5800 11.0214 0.8872
16.6000 11.0347 0.8879
16.6200 11.0480 0.8894
16.6400 11.0613 0.8885
16.6600 11.0747 0.8915
16.6800 11.0880 0.8896
16.7000 11.1014 0.8929
16.7200 11.1147 0.8912
16.7400 11.1280 0.8949
16.7600 11.1414 0.8928
16.7800 11.1547 0.8960
16.8000 11.1681 0.8946
16.8200 11.1814 0.8954
16.8400 11.1948 0.8949
16.8600 11.2081 0.8955
16.8800 11.2215 0.8962
16.9000 11.2348 0.8973
16.9200 11.2481 0.8993
16.9400 11.2614 0.8983
16.9600 11.2747 0.9012
16.9800 11.2881 0.8998
17.0000 11.3014 0.9018
17.0200 11.3146 0.9020
17.0400 11.3280 0.9034
17.0600 11.3413 0.9026
17.0800 11.3547 0.9048
17.1000 11.3680 0.9044
17.1200 11.3814 0.9059
17.1400 11.3948 0.9058
17.1600 11.4081 0.9065
17.1800 11.4214 0.9076
17.2000 11.4348 0.9091
17.2200 11.4481 0.9085
17.2400 11.4614 0.9094
17.2600 11.4748 0.9107
17.2800 11.4880 0.9110
17.3000 11.5014 0.9125
17.3200 11.5147 0.9118
17.3400 11.5281 0.9147
17.3600 11.5414 0.9116
17.3800 11.5547 0.9171
17.4000 11.5680 0.9136
17.4200 11.5814 0.9171
17.4400 11.5947 0.9139
17.4600 11.6080 0.9162
17.4800 11.6214 0.9141
17.5000 11.6347 0.9179
17.5200 11.6481 0.9172
17.5400 11.6614 0.9186
17.5600 11.6747 0.9196
17.5800 11.6880 0.9202
17.6000 11.7014 0.9215
17.6200 11.7148 0.9208
17.6400 11.7281 0.9243
17.6600 11.7414 0.9208
17.6800 11.7547 0.9263
17.7000 11.7681 0.9231
17.7200 11.7814 0.9266
17.7400 11.7947 0.9252
17.7600 11.8080 0.9282
17.7800 11.8213 0.9260
17.8000 11.8347 0.9290
17.8200 11.8480 0.9283
17.8400 11.8614 0.9288
17.8600 11.8747 0.9298
17.8800 11.8881 0.9307
17.9000 11.9014 0.9308
17.9200 11.9147 0.9318
17.9400 11.9281 0.9340
17.9600 11.9414 0.9318
17.9800 11.9548 0.9357
18.0000 11.9681 0.9327
18.0200 11.9814 0.9335
18.0400 11.9947 0.9322
18.0600 12.0081 0.9342
18.0800 12.0214 0.9338
18.1000 12.0347 0.9369
18.1200 12.0480 0.9365
18.1400 12.0613 0.9374
18.1600 12.0747 0.9385
18.1800 12.0880 0.9399
18.2000 12.1014 0.9396
18.2200 12.1148 0.9402
18.2400 12.1281 0.9427
18.2600 12.1415 0.9411
18.2800 12.1548 0.9444
18.3000 12.1681 0.9427
18.3200 12.1815 0.9458
18.3400 12.1948 0.9440
18.3600 12.2081 0.9476
18.3800 12.2214 0.9453
18.4000 12.2347 0.9487
18.4200 12.2480 0.9470
18.4400 12.2613 0.9494
18.4600 12.2747 0.9490
18.4800 12.2880 0.9503
18.5000 12.3014 0.9502
18.5200 12.3147 0.9510
18.5400 12.3281 0.9530
18.5600 12.3414 0.9509
18.5800 12.3548 0.9558
18.6000 12.3681 0.9521
18.6200 12.3814 0.9566
18.6400 12.3947 0.9532
18.6600 12.4081 0.9580
18.6800 12.4214 0.9548
18.7000 12.4348 0.9585
18.7200 12.4480 0.9573
18.7400 12.4614 0.9590
18.7600 12.4747 0.9590
18.7800 12.4881 0.9601
18.8000 12.5014 0.9608
18.8200 12.5147 0.9611
18.8400 12.5280 0.9634
18.8600 12.5413 0.9613
18.8800 12.5547 0.9647
18.9000 12.5680 0.9632
18.9200 12.5814 0.9666
18.9400 12.5947 0.9638
18.9600 12.6081 0.9675
18.9800 12.6214 0.9632
19.0000 12.6347 0.9680
19.0200 12.6481 0.9653
19.0400 12.6614 0.9682
19.0600 12.6748 0.9673
19.0800 12.6881 0.9696
19.1000 12.7013 0.9695
19.1200 12.7147 0.9701
19.1400 12.7280 0.9712
19.1600 12.7414 0.9683
19.1800 12.7547 0.9711
19.2000 12.7680 0.9696
19.2200 12.7814 0.9731
19.2400 12.7947 0.9705
19.2600 12.8080 0.9757
19.2800 12.8214 0.9721
19.3000 12.8347 0.9772
19.3200 12.8481 0.9746
19.3400 12.8615 0.9773
19.3600 12.8748 0.9766
19.3800 12.8881 0.9793
19.4000 12.9014 0.9793
19.4200 12.9148 0.9791
19.4400 12.9281 0.9817
19.4600 12.9414 0.9801
19.4800 12.9547 0.9834
19.5000 12.9681 0.9811
19.5200 12.9814 0.9851
19.5400 12.9947 0.9820
19.5600 13.0080 0.9866
19.5800 13.0214 0.9830
19.6000 13.0347 0.9879
19.6200 13.0480 0.9849
19.6400 13.0614 0.9878
19.6600 13.0747 0.9872
19.6800 13.0881 0.9885
19.7000 13.1014 0.9891
19.7200 13.1148 0.9886
19.7400 13.1281 0.9927
19.7600 13.1415 0.9891
19.7800 13.1548 0.9940
19.8000 13.1681 0.9907
19.8200 13.1814 0.9955
19.8400 13.1947 0.9920
19.8600 13.2081 0.9973
19.8800 13.2214 0.9923
19.9000 13.2347 0.9978
19.9200 13.2480 0.9938
19.9400 13.2613 0.9990
19.9600 13.2746 0.9956
19.9800 13.2880 1.0003
20.0000 13.3013 0.9983
20.0200 13.3147 1.0004
20.0400 13.3281 1.0012
20.0600 13.3415 1.0005
20.0800 13.3548 1.0026
20.1000 13.3681 1.0024
20.1200 13.3815 1.0040
20.1400 13.3948 1.0024
20.1600 13.4081 1.0043
20.1800 13.4214 1.0017
20.2000 13.4347 1.0062
20.2200 13.4481 1.0031
20.2400 13.4614 1.0080
20.2600 13.4747 1.0041
20.2800 13.4880 1.0089
20.3000 13.5013 1.0061
20.3200 13.5147 1.0091
20.3400 13.5280 1.0085
20.3600 13.5413 1.0104
20.3800 13.5547 1.0099
20.4000 13.5681 1.0117
20.4200 13.5814 1.0119
20.4400 13.5948 1.0116
20.4600 13.6081 1.0122
20.4800 13.6214 1.0113
20.5000 13.6348 1.0135
20.5200 13.6481 1.0131
20.5400 13.6614 1.0160
20.5600 13.6747 1.0139
20.5800 13.6880 1.0180
20.6000 13.7014 1.0163
20.6200 13.7147 1.0180
20.6400 13.7280 1.0188
20.6600 13.7414 1.0192
20.6800 13.7547 1.0195
20.7000 13.7681 1.0203
20.7200 13.7814 1.0212
20.7400 13.7948 1.0195
20.7600 13.8081 1.0207
20.7800 13.8214 1.0190
20.8000 13.8347 1.0224
20.8200 13.8480 1.0210
20.8400 13.8614 1.0254
20.8600 13.8748 1.0217
20.8800 13.8881 1.0272
20.9000 13.9014 1.0242
20.9200 13.9147 1.0273
20.9400 13.9281 1.0261
20.9600 13.9414 1.0289
20.9800 13.9547 1.0277
21.0000 13.9680 1.0297
21.0200 13.9814 1.0298
21.0400 13.9947 1.0297
21.0600 14.0080 1.0323
21.0800 14.0214 1.0311
21.1000 14.0347 1.0338
21.1200 14.0481 1.0319
21.1400 14.0614 1.0357
21.1600 14.0748 1.0330
21.1800 14.0881 1.0375
21.2000 14.1014 1.0345
21.2200 14.1148 1.0385
21.2400 14.1281 1.0358
21.2600 14.1414 1.0401
21.2800 14.1547 1.0371
21.3000 14.1681 1.0413
21.3200 14.1814 1.0390
21.3400 14.1947 1.0415
21.3600 14.2080 1.0405
21.3800 14.2213 1.0403
21.4000 14.2347 1.0404
21.4200 14.2480 1.0414
21.4400 14.2614 1.0430
21.4600 14.2747 1.0423
21.4800 14.2881 1.0454
21.5000 14.3014 1.0430
21.5200 14.3148 1.0476
21.5400 14.3281 1.0448
21.5600 14.3414 1.0492
21.5800 14.3548 1.0457
21.6000 14.3681 1.0506
21.6200 14.3814 1.0479
21.6400 14.3947 1.0512
21.6600 14.4081 1.0494
21.6800 14.4214 1.0516
21.7000 14.4347 1.0519
21.7200 14.4480 1.0525
21.7400 14.4613 1.0537
21.7600 14.4747 1.0532
21.7800 14.4880 1.0559
21.8000 14.5013 1.0546
21.8200 14.5147 1.0569
21.8400 14.5280 1.0555
21.8600 14.5414 1.0589
21.8800 14.5548 1.0560
21.9000 14.5681 1.0597
21.9200 14.5814 1.0565
21.9400 14.5948 1.0591
21.9600 14.6081 1.0591
21.9800 14.6214 1.0605
22.0000 14.6347 1.0612
22.0200 14.6481 1.0612
22.0400 14.6614 1.0634
22.0600 14.6747 1.0629
22.0800 14.6880 1.0649
22.1000 14.7013 1.0643
22.1200 14.7147 1.0656
22.1400 14.7280 1.0650
22.1600 14.7413 1.0684
22.1800 14.7547 1.0663
22.2000 14.7681 1.0693
22.2200 14.7815 1.0681
22.2400 14.7948 1.0695
22.2600 14.8081 1.0701
22.2800 14.8214 1.0702
22.3000 14.8348 1.0722
22.3200 14.8481 1.0710
22.3400 14.8614 1.0733
22.3600 14.8747 1.0699
22.3800 14.8880 1.0723
22.4000 14.9014 1.0712
22.4200 14.9147 1.0744
22.4400 14.9280 1.0728
22.4600 14.9413 1.0768
22.4800 14.9547 1.0736
22.5000 14.9680 1.0777
22.5200 14.9814 1.0753
22.5400 14.9947 1.0785
22.5600 15.0081 1.0769
22.5800 15.0215 1.0801
22.6000 15.0348 1.0786
22.6200 15.0481 1.0806
22.6400 15.0614 1.0815
22.6600 15.0748 1.0812
22.6800 15.0881 1.0833
22.7000 15.1014 1.0826
22.7200 15.1147 1.0853
22.7400 15.1280 1.0831
22.7600 15.1414 1.0883
22.7800 15.1547 1.0837
22.8000 15.1680 1.0891
22.8200 15.1813 1.0855
22.8400 15.1947 1.0903
22.8600 15.2080 1.0866
22.8800 15.2213 1.0919
22.9000 15.2347 1.0891
22.9200 15.2481 1.0917
22.9400 15.2614 1.0917
22.9600 15.2747 1.0915
22.9800 15.2880 1.0932
23.0000 15.3014 1.0932
23.0200 15.3147 1.0940
23.0400 15.3281 1.0909
23.0600 15.3414 1.0934
23.0800 15.3547 1.0914
23.1000 15.3681 1.0951
23.1200 15.3814 1.0946
23.1400 15.3947 1.0964
23.1600 15.4080 1.0969
23.1800 15.4213 1.0980
23.2000 15.4346 1.0987
23.2200 15.4480 1.0988
23.2400 15.4613 1.1008
23.2600 15.4747 1.0997
23.2800 15.4881 1.1022
23.3000 15.5015 1.1018
23.3200 15.5148 1.1036
23.3400 15.5281 1.1026
23.3600 15.5415 1.1058
23.3800 15.5548 1.1043
23.4000 15.5682 1.1057
23.4200 15.5814 1.1050
23.4400 15.5947 1.1063
23.4600 15.6080 1.1045
23.4800 15.6214 1.1076
23.5000 15.6347 1.1062
23.5200 15.6480 1.1089
23.5400 15.6613 1.1083
23.5600 15.6747 1.1099
23.5800 15.6880 1.1099
23.6000 15.7014 1.1111
23.6200 15.7147 1.1122
23.6400 15.7281 1.1116
23.6600 15.7415 1.1142
23.6800 15.7548 1.1123
23.7000 15.7681 1.1159
23.7200 15.7814 1.1142
23.7400 15.7948 1.1177
23.7600 15.8081 1.1149
23.7800 15.8214 1.1198
23.8000 15.8347 1.1165
23.8200 15.8480 1.1204
23.8400 15.8614 1.1185
23.8600 15.8747 1.1211
23.8800 15.8880 1.1205
23.9000 15.9013 1.1215
23.9200 15.9147 1.1231
23.9400 15.9280 1.1220
23.9600 15.9413 1.1247
23.9800 15.9547 1.1225
24.0000 15.9680 1.1250
24.0200 15.9814 1.1234
24.0400 15.9948 1.1263
24.0600 16.0081 1.1250
24.0800 16.0214 1.1279
24.1000 16.0348 1.1277
24.1200 16.0481 1.1284
24.1400 16.0614 1.1290
24.1600 16.0747 1.1301
24.1800 16.0880 1.1296
24.2000 16.1014 1.1308
24.2200 16.1147 1.1318
24.2400 16.1280 1.1322
24.2600 16.1413 1.1341
24.2800 16.1546 1.1336
24.3000 16.1680 1.1351
24.3200 16.1814 1.1354
24.3400 16.1947 1.1362
24.3600 16.2081 1.1362
24.3800 16.2214 1.1389
24.4000 16.2348 1.1366
24.4200 16.2481 1.1400
24.4400 16.2614 1.1384
24.4600 16.2748 1.1421
24.4800 16.2881 1.1365
24.5000 16.3014 1.1396
24.5200 16.3147 1.1378
24.5400 16.3280 1.1409
24.5600 16.3414 1.1404
24.5800 16.3547 1.1422
24.6000 16.3680 1.1431
24.6200 16.3813 1.1435
24.6400 16.3947 1.1451
24.6600 16.4080 1.1436
24.6800 16.4214 1.1473
24.7000 16.4347 1.1451
24.7200 16.4480 1.1491
24.7400 16.4614 1.1459
24.7600 16.4748 1.1508
24.7800 16.4881 1.1475
24.8000 16.5014 1.1516
24.8200 16.5147 1.1496
24.8400 16.5281 1.1512
24.8600 16.5414 1.1528
24.8800 16.5547 1.1520
24.9000 16.5681 1.1547
24.9200 16.5814 1.1530
24.9400 16.5947 1.1567
24.9600 16.6080 1.1538
24.9800 16.6214 1.1585
25.0000 16.6347 1.1556
25.0200 16.6480 1.1590
25.0400 16.6614 1.1555
25.0600 16.6747 1.1577
25.0800 16.6880 1.1552
25.1000 16.7014 1.1585
25.1200 16.7148 1.1580
25.1400 16.7281 1.1584
25.1600 16.7414 1.1603
25.1800 16.7548 1.1606
25.2000 16.7681 1.1615
25.2200 16.7814 1.1623
25.2400 16.7947 1.1645
25.2600 16.8080 1.1634
25.2800 16.8214 1.1652
25.3000 16.8347 1.1655
25.3200 16.8480 1.1670
25.3400 16.8613 1.1666
25.3600 16.8746 1.1699
25.3800 16.8880 1.1665
25.4000 16.9013 1.1714
25.4200 16.9147 1.1685
25.4400 16.9280 1.1722
25.4600 16.9414 1.1690
25.4800 16.9548 1.1729
25.5000 16.9681 1.1705
25.5200 16.9814 1.1742
25.5400 16.9948 1.1733
25.5600 17.0081 1.1746
25.5800 17.0214 1.1751
25.6000 17.0347 1.1762
25.6200 17.0480 1.1774
25.6400 17.0613 1.1762
25.6600 17.0747 1.1802
25.6800 17.0880 1.1763
25.7000 17.1013 1.1818
25.7200 17.1147 1.1785
25.7400 17.1280 1.1825
25.7600 17.1414 1.1801
25.7800 17.1547 1.1835
25.8000 17.1681 1.1805
25.8200 17.1815 1.1818
25.8400 17.1948 1.1827
25.8600 17.2081 1.1829
25.8800 17.2214 1.1856
25.9000 17.2348 1.1842
25.9200 17.2481 1.1874
25.9400 17.2614 1.1851
25.9600 17.2747 1.1895
25.9800 17.2880 1.1868
26.0000 17.3014 1.1903
26.0200 17.3147 1.1887
26.0400 17.3280 1.1911
26.0600 17.3413 1.1899
26.0800 17.3547 1.1922
26.1000 17.3680 1.1925
26.1200 17.3814 1.1925
26.1400 17.3947 1.1945
26.1600 17.4080 1.1940
26.1800 17.4214 1.1961
26.2000 17.4348 1.1950
26.2200 17.4481 1.1976
26.2400 17.4614 1.1963
26.2600 17.4748 1.1994
26.2800 17.4881 1.1975
26.3000 17.5014 1.2005
26.3200 17.5147 1.1998
26.3400 17.5281 1.2020
26.3600 17.5414 1.2003
26.3800 17.5547 1.2043
26.4000 17.5680 1.2010
26.4200 17.5813 1.2058
26.4400 17.5947 1.2034
26.4600 17.6080 1.2064
26.4800 17.6214 1.2037
26.5000 17.6347 1.2068
26.5200 17.6481 1.2055
26.5400 17.6614 1.2076
26.5600 17.6748 1.2081
26.5800 17.6881 1.2080
26.6000 17.7014 1.2103
26.6200 17.7147 1.2092
26.6400 17.7281 1.2119
26.6600 17.7414 1.2096
26.6800 17.7547 1.2146
26.7000 17.7680 1.2108
26.7200 17.7814 1.2161
26.7400 17.7947 1.2124
26.7600 17.8081 1.2173
26.7800 17.8214 1.2147
26.8000 17.8347 1.2181
26.8200 17.8480 1.2171
26.8400 17.8614 1.2185
26.8600 17.8747 1.2195
26.8800 17.8880 1.2188
26.9000 17.9014 1.2211
26.9200 17.9148 1.2208
26.9400 17.9281 1.2219
26.9600 17.9414 1.2213
26.9800 17.9547 1.2234
27.0000 17.9681 1.2186
27.0200 17.9815 1.2214
27.0400 17.9948 1.2203
27.0600 18.0081 1.2240
27.0800 18.0214 1.2227
27.1000 18.0347 1.2258
27.1200 18.0480 1.2253
27.1400 18.0613 1.2267
27.1600 18.0747 1.2272
27.1800 18.0880 1.2285
27.2000 18.1013 1.2281
27.2200 18.1146 1.2307
27.2400 18.1280 1.2302
27.2600 18.1414 1.2310
27.2800 18.1548 1.2329
27.3000 18.1681 1.2319
27.3200 18.1814 1.2346
27.3400 18.1948 1.2327
27.3600 18.2081 1.2334
27.3800 18.2215 1.2318
27.4000 18.2348 1.2356
27.4200 18.2481 1.2346
27.4400 18.2614 1.2371
27.4600 18.2747 1.2371
27.4800 18.2880 1.2384
27.5000 18.3013 1.2385
27.5200 18.3146 1.2394
27.5400 18.3280 1.2411
27.5600 18.3414 1.2399
27.5800 18.3547 1.2436
27.6000 18.3680 1.2408
27.6200 18.3814 1.2448
27.6400 18.3948 1.2422
27.6600 18.4081 1.2472
27.6800 18.4214 1.2424
27.7000 18.4348 1.2446
27.7200 18.4481 1.2400
27.7400 18.4615 1.2438
27.7600 18.4748 1.2442
27.7800 18.4880 1.2463
27.8000 18.5014 1.2472
27.8200 18.5147 1.2469
27.8400 18.5280 1.2502
27.8600 18.5413 1.2478
27.8800 18.5547 1.2526
27.9000 18.5680 1.2491
27.9200 18.5814 1.2533
27.9400 18.5947 1.2503
27.9600 18.6081 1.2555
27.9800 18.6214 1.2515
28.0000 18.6348 1.2576
28.0200 18.6481 1.2541
28.0400 18.6614 1.2576
28.0600 18.6747 1.2562
28.0800 18.6881 1.2592
28.1000 18.7014 1.2574
28.1200 18.7147 1.2600
28.1400 18.7281 1.2608
28.1600 18.7414 1.2604
28.1800 18.7548 1.2622
28.2000 18.7681 1.2621
28.2200 18.7814 1.2624
28.2400 18.7947 1.2616
28.2600 18.8080 1.2640
28.2800 18.8214 1.2617
28.3000 18.8347 1.2667
28.3200 18.8480 1.2636
28.3400 18.8614 1.2673
28.3600 18.8747 1.2652
28.3800 18.8881 1.2695
28.4000 18.9014 1.2670
28.4200 18.9147 1.2714
28.4400 18.9281 1.2694
28.4600 18.9415 1.2717
28.4800 18.9548 1.2720
28.5000 18.9681 1.2736
28.5200 18.9814 1.2733
28.5400 18.9947 1.2738
28.5600 19.0081 1.2759
28.5800 19.0214 1.2727
28.6000 19.0347 1.2777
28.6200 19.0480 1.2748
28.6400 19.0613 1.2790
28.6600 19.0747 1.2765
28.6800 19.0880 1.2810
28.7000 19.1014 1.2778
28.7200 19.1148 1.2820
28.7400 19.1281 1.2803
28.7600 19.1414 1.2828
28.7800 19.1548 1.2835
28.8000 19.1681 1.2839
28.8200 19.1815 1.2839
28.8400 19.1948 1.2855
28.8600 19.2081 1.2870
28.8800 19.2214 1.2858
28.9000 19.2347 1.2885
28.9200 19.2480 1.2869
28.9400 19.2613 1.2897
28.9600 19.2747 1.2885
28.9800 19.2880 1.2923
29.0000 19.3014 1.2896
29.0200 19.3147 1.2938
29.0400 19.3280 1.2917
29.0600 19.3414 1.2940
29.0800 19.3547 1.2941
29.1000 19.3681 1.2956
29.1200 19.3814 1.2957
29.1400 19.3947 1.2963
29.1600 19.4081 1.2981
29.1800 19.4215 1.2962
29.2000 19.4348 1.2971
29.2200 19.4481 1.2944
29.2400 19.4614 1.2971
29.2600 19.4747 1.2960
29.2800 19.4881 1.3004
29.3000 19.5014 1.2962
29.3200 19.5147 1.3034
29.3400 19.5280 1.2996
29.3600 19.5414 1.3027
29.3800 19.5547 1.3018
29.4000 19.5680 1.3054
29.4200 19.5814 1.3035
29.4400 19.5948 1.3063
29.4600 19.6082 1.3059
29.4800 19.6214 1.3067
29.5000 19.6347 1.3079
29.5200 19.6481 1.3093
29.5400 19.6614 1.3096
29.5600 19.6748 1.3086
29.5800 19.6881 1.3131
29.6000 19.7013 1.3090
29.6200 19.7147 1.3154
29.6400 19.7280 1.3117
29.6600 19.7413 1.3160
29.6800 19.7547 1.3131
29.7000 19.7680 1.3181
29.7200 19.7814 1.3148
29.7400 19.7947 1.3187
29.7600 19.8080 1.3180
29.7800 19.8214 1.3188
29.8000 19.8348 1.3197
29.8200 19.8481 1.3204
29.8400 19.8614 1.3216
29.8600 19.8748 1.3212
29.8800 19.8881 1.3249
29.9000 19.9015 1.3215
29.9200 19.9148 1.3265
29.9400 19.9280 1.3242
29.9600 19.9413 1.3272
29.9800 19.9547 1.3265
30.0000 19.9680 1.3287
30.0200 19.9813 1.3274
30.0400 19.9946 1.3290
30.0600 20.0080 1.3303
30.0800 20.0214 1.3297
30.1000 20.0347 1.3321
30.1200 20.0480 1.3320
30.1400 20.0614 1.3336
30.1600 20.0747 1.3330
30.1800 20.0881 1.3358
30.2000 20.1014 1.3332
30.2200 20.1147 1.3338
30.2400 20.1281 1.3298
30.2600 20.1414 1.3334
30.2800 20.1548 1.3314
30.3000 20.1681 1.3375
30.3200 20.1814 1.3349
30.3400 20.1948 1.3384
30.3600 20.2081 1.3379
30.3800 20.2214 1.3394
30.4000 20.2347 1.3403
30.4200 20.2480 1.3416
30.4400 20.2613 1.3426
30.4600 20.2747 1.3422
30.4800 20.2880 1.3452
30.5000 20.3013 1.3432
30.5200 20.3147 1.3475
30.5400 20.3281 1.3445
30.5600 20.3415 1.3489
30.5800 20.3548 1.3436
30.6000 20.3681 1.3495
30.6200 20.3815 1.3455
30.6400 20.3948 1.3504
30.6600 20.4081 1.3489
30.6800 20.4214 1.3513
30.7000 20.4347 1.3513
30.7200 20.4480 1.3530
30.7400 20.4613 1.3542
30.7600 20.4746 1.3533
30.7800 20.4880 1.3572
30.8000 20.5014 1.3541
30.8200 20.5147 1.3586
30.8400 20.5280 1.3560
30.8600 20.5414 1.3600
30.8800 20.5548 1.3573
30.9000 20.5681 1.3623
30.9200 20.5814 1.3590
30.9400 20.5948 1.3633
30.9600 20.6081 1.3615
30.9800 20.6215 1.3648
31.0000 20.6348 1.3630
31.0200 20.6481 1.3666
31.0400 20.6614 1.3660
31.0600 20.6747 1.3667
31.0800 20.6881 1.3686
31.1000 20.7014 1.3674
31.1200 20.7147 1.3689
31.1400 20.7280 1.3692
31.1600 20.7413 1.3706
31.1800 20.7547 1.3699
31.2000 20.7680 1.3736
31.2200 20.7814 1.3714
31.2400 20.7947 1.3746
31.2600 20.8081 1.3742
31.2800 20.8215 1.3763
31.3000 20.8348 1.3756
31.3200 20.8481 1.3780
31.3400 20.8615 1.3783
31.3600 20.8748 1.3788
31.3800 20.8881 1.3806
31.4000 20.9014 1.3790
31.4200 20.9147 1.3794
31.4400 20.9280 1.3795
31.4600 20.9413 1.3807
31.4800 20.9546 1.3812
31.5000 20.9680 1.3824
31.5200 20.9813 1.3802
31.5400 20.9947 1.3827
31.5600 21.0080 1.3824
31.5800 21.0214 1.3859
31.6000 21.0348 1.3838
31.6200 21.0481 1.3873
31.6400 21.0615 1.3871
31.6600 21.0748 1.3878
31.6800 21.0881 1.3885
31.7000 21.1015 1.3857
31.7200 21.1148 1.3883
31.7400 21.1281 1.3881
31.7600 21.1414 1.3916
31.7800 21.1547 1.3899
31.8000 21.1681 1.3940
31.8200 21.1814 1.3918
31.8400 21.1947 1.3964
31.8600 21.2080 1.3942
31.8800 21.2214 1.3987
31.9000 21.2347 1.3960
31.9200 21.2480 1.3999
31.9400 21.2614 1.3999
31.9600 21.2747 1.3996
31.9800 21.2881 1.4029
32.0000 21.3014 1.4005
32.0200 21.3147 1.4039
32.0400 21.3280 1.4025
32.0600 21.3414 1.4063
32.0800 21.3548 1.4032
32.1000 21.3681 1.4081
32.1200 21.3814 1.4050
32.1400 21.3947 1.4088
32.1600 21.4081 1.4063
32.1800 21.4214 1.4110
32.2000 21.4347 1.4081
32.2200 21.4480 1.4123
32.2400 21.4613 1.4103
32.2600 21.4747 1.4107
32.2800 21.4880 1.4119
32.3000 21.5014 1.4127
32.3200 21.5147 1.4134
32.3400 21.5281 1.4149
32.3600 21.5414 1.4158
32.3800 21.5547 1.4160
32.4000 21.5681 1.4182
32.4200 21.5814 1.4178
32.4400 21.5948 1.4199
32.4600 21.6081 1.4195
32.4800 21.6214 1.4231
32.5000 21.6347 1.4198
32.5200 21.6481 1.4247
32.5400 21.6614 1.4221
32.5600 21.6747 1.4256
32.5800 21.6880 1.4242
32.6000 21.7013 1.4272
32.6200 21.7147 1.4260
32.6400 21.7280 1.4283
32.6600 21.7413 1.4301
32.6800 21.7547 1.4287
32.7000 21.7681 1.4322
32.7200 21.7815 1.4302
32.7400 21.7948 1.4342
32.7600 21.8081 1.4324
32.7800 21.8215 1.4372
32.8000 21.8348 1.4336
32.8200 21.8481 1.4384
32.8400 21.8614 1.4362
32.8600 21.8747 1.4387
32.8800 21.8880 1.4389
32.9000 21.9013 1.4408
32.9200 21.9147 1.4403
32.9400 21.9280 1.4409
32.9600 21.9414 1.4426
32.9800 21.9547 1.4413
33.0000 21.9681 1.4455
33.0200 21.9814 1.4436
33.0400 21.9948 1.4467
33.0600 22.0081 1.4455
33.0800 22.0215 1.4486
33.1000 22.0348 1.4459
33.1200 22.0481 1.4495
33.1400 22.0614 1.4483
33.1600 22.0748 1.4507
33.1800 22.0881 1.4503
33.2000 22.1014 1.4534
33.2200 22.1147 1.4523
33.2400 22.1281 1.4550
33.2600 22.1414 1.4553
33.2800 22.1547 1.4551
33.3000 22.1680 1.4574
33.3200 22.1813 1.4575
33.3400 22.1947 1.4592
33.3600 22.2080 1.4580
33.3800 22.2214 1.4572
33.4000 22.2347 1.4530
33.4200 22.2481 1.4579
33.4400 22.2614 1.4568
33.4600 22.2747 1.4610
33.4800 22.2881 1.4593
33.5000 22.3014 1.4640
33.5200 22.3148 1.4610
33.5400 22.3281 1.4658
33.5600 22.3414 1.4652
33.5800 22.3547 1.4663
33.6000 22.3681 1.4684
33.6200 22.3814 1.4674
33.6400 22.3947 1.4709
33.6600 22.4080 1.4686
33.6800 22.4213 1.4745
33.7000 22.4347 1.4691
33.7200 22.4480 1.4760
33.7400 22.4614 1.4726
33.7600 22.4747 1.4776
33.7800 22.4881 1.4743
33.8000 22.5015 1.4805
33.8200 22.5148 1.4754
33.8400 22.5281 1.4814
33.8600 22.5414 1.4795
33.8800 22.5548 1.4808
33.9000 22.5681 1.4806
33.9200 22.5814 1.4820
33.9400 22.5947 1.4813
33.9600 22.6081 1.4813
33.9800 22.6214 1.4837
34.0000 22.6347 1.4829
34.0200 22.6480 1.4859
34.0400 22.6613 1.4859
34.0600 22.6747 1.4874
34.0800 22.6880 1.4875
34.1000 22.7014 1.4912
34.1200 22.7147 1.4886
34.1400 22.7281 1.4910
34.1600 22.7414 1.4886
34.1800 22.7547 1.4895
34.2000 22.7681 1.4902
34.2200 22.7814 1.4928
34.2400 22.7948 1.4932
34.2600 22.8081 1.4943
34.2800 22.8214 1.4973
34.3000 22.8347 1.4958
34.3200 22.8481 1.4996
34.3400 22.8614 1.4984
34.3600 22.8747 1.5016
34.3800 22.8880 1.4997
34.4000 22.9013 1.5041
34.4200 22.9147 1.5007
34.4400 22.9280 1.5061
34.4600 22.9413 1.5043
34.4800 22.9547 1.5076
34.5000 22.9681 1.5056
34.5200 22.9815 1.5092
34.5400 22.9948 1.5092
34.5600 23.0081 1.5102
34.5800 23.0214 1.5130
34.6000 23.0348 1.5104
34.6200 23.0481 1.5155
34.6400 23.0614 1.5131
34.6600 23.0747 1.5181
34.6800 23.0880 1.5144
34.7000 23.1014 1.5206
34.7200 23.1147 1.5156
34.7400 23.1280 1.5228
34.7600 23.1413 1.5185
34.7800 23.1547 1.5237
34.8000 23.1680 1.5210
34.8200 23.1813 1.5261
34.8400 23.1947 1.5238
34.8600 23.2081 1.5260
34.8800 23.2215 1.5275
34.9000 23.2348 1.5275
34.9200 23.2481 1.5300
34.9400 23.2614 1.5296
34.9600 23.2748 1.5320
34.9800 23.2881 1.5306
35.0000 23.3014 1.5344
35.0200 23.3147 1.5304
35.0400 23.3280 1.5353
35.0600 23.3414 1.5321
35.0800 23.3547 1.5369
35.1000 23.3680 1.5339
35.1200 23.3813 1.5403
35.1400 23.3947 1.5365
35.1600 23.4081 1.5410
35.1800 23.4214 1.5404
35.2000 23.4347 1.5424
35.2200 23.4481 1.5428
35.2400 23.4614 1.5439
35.2600 23.4747 1.5458
35.2800 23.4881 1.5451
35.3000 23.5014 1.5488
35.3200 23.5148 1.5460
35.3400 23.5281 1.5516
35.3600 23.5414 1.5489
35.3800 23.5548 1.5539
35.4000 23.5681 1.5502
35.4200 23.5814 1.5561
35.4400 23.5947 1.5530
35.4600 23.6080 1.5572
35.4800 23.6213 1.5563
35.5000 23.6347 1.5582
35.5200 23.6480 1.5583
35.5400 23.6614 1.5602
35.5600 23.6747 1.5609
35.5800 23.6881 1.5586
35.6000 23.7014 1.5577
35.6200 23.7147 1.5533
35.6400 23.7281 1.5585
35.6600 23.7414 1.5569
35.6800 23.7548 1.5616
35.7000 23.7681 1.5587
35.7200 23.7814 1.5639
35.7400 23.7947 1.5622
35.7600 23.8081 1.5652
35.7800 23.8214 1.5653
35.8000 23.8347 1.5689
35.8200 23.8480 1.5677
35.8400 23.8613 1.5706
35.8600 23.8747 1.5718
35.8800 23.8880 1.5708
35.9000 23.9013 1.5756
35.9200 23.9147 1.5734
35.9400 23.9280 1.5773
35.9600 23.9414 1.5759
35.9800 23.9547 1.5794
36.0000 23.9681 1.5772
36.0200 23.9814 1.5806
36.0400 23.9948 1.5784
36.0600 24.0081 1.5814
36.0800 24.0214 1.5814
36.1000 24.0347 1.5842
36.1200 24.0481 1.5845
36.1400 24.0614 1.5859
36.1600 24.0747 1.5882
36.1800 24.0880 1.5867
36.2000 24.1013 1.5919
36.2200 24.1147 1.5884
36.2400 24.1280 1.5943
36.2600 24.1413 1.5910
36.2800 24.1547 1.5967
36.3000 24.1680 1.5927
36.3200 24.1814 1.5988
36.3400 24.1948 1.5920
36.3600 24.2081 1.5962
36.3800 24.2214 1.5942
36.4000 24.2348 1.5989
36.4200 24.2481 1.5966
36.4400 24.2614 1.6015
36.4600 24.2747 1.6013
36.4800 24.2881 1.6032
36.5000 24.3014 1.6049
36.5200 24.3147 1.6046
36.5400 24.3280 1.6077
36.5600 24.3413 1.6063
36.5800 24.3547 1.6111
36.6000 24.3680 1.6082
36.6200 24.3814 1.6138
36.6400 24.3947 1.6107
36.6600 24.4081 1.6153
36.6800 24.4215 1.6129
36.7000 24.4348 1.6186
36.7200 24.4481 1.6136
36.7400 24.4614 1.6202
36.7600 24.4748 1.6175
36.7800 24.4881 1.6198
36.8000 24.5014 1.6199
36.8200 24.5147 1.6215
36.8400 24.5280 1.6232
36.8600 24.5413 1.6229
36.8800 24.5547 1.6272
36.9000 24.5680 1.6232
36.9200 24.5813 1.6250
36.9400 24.5947 1.6216
36.9600 24.6080 1.6261
36.9800 24.6214 1.6247
37.0000 24.6347 1.6299
37.0200 24.6481 1.6270
37.0400 24.6615 1.6325
37.0600 24.6748 1.6315
37.0800 24.6881 1.6335
37.1000 24.7014 1.6359
37.1200 24.7148 1.6354
37.1400 24.7281 1.6379
37.1600 24.7414 1.6386
37.1800 24.7547 1.6423
37.2000 24.7680 1.6397
37.2200 24.7814 1.6446
37.2400 24.7947 1.6429
37.2600 24.8080 1.6465
37.2800 24.8213 1.6451
37.3000 24.8347 1.6495
37.3200 24.8480 1.6471
37.3400 24.8613 1.6504
37.3600 24.8747 1.6496
37.3800 24.8880 1.6517
37.4000 24.9014 1.6520
37.4200 24.9148 1.6536
37.4400 24.9281 1.6547
37.4600 24.9414 1.6566
37.4800 24.9548 1.6587
37.5000 24.9681 1.6575
37.5200 24.9814 1.6617
37.5400 24.9947 1.6606
37.5600 25.0081 1.6636
37.5800 25.0214 1.6600
37.6000 25.0348 1.6644
37.6200 25.0480 1.6603
37.6400 25.0613 1.6670
37.6600 25.0747 1.6646
37.6800 25.0880 1.6690
37.7000 25.1013 1.6685
37.7200 25.1147 1.6719
37.7400 25.1280 1.6710
37.7600 25.1414 1.6737
37.7800 25.1548 1.6755
37.8000 25.1681 1.6746
37.8200 25.1814 1.6792
37.8400 25.1948 1.6772
37.8600 25.2082 1.6824
37.8800 25.2215 1.6789
37.9000 25.2347 1.6855
37.9200 25.2480 1.6802
37.9400 25.2614 1.6863
37.9600 25.2747 1.6830
37.9800 25.2880 1.6875
38.0000 25.3013 1.6860
38.0200 25.3146 1.6896
38.0400 25.3280 1.6887
38.0600 25.3414 1.6916
38.0800 25.3547 1.6930
38.1000 25.3681 1.6928
38.1200 25.3814 1.6970
38.1400 25.3948 1.6950
38.1600 25.4081 1.7001
38.1800 25.4214 1.6981
38.2000 25.4348 1.7030
38.2200 25.4481 1.7008
38.2400 25.4614 1.7048
38.2600 25.4747 1.7031
38.2800 25.4880 1.7033
38.3000 25.5014 1.7031
38.3200 25.5147 1.7051
38.3400 25.5280 1.7058
38.3600 25.5413 1.7084
38.3800 25.5547 1.7101
38.4000 25.5680 1.7109
38.4200 25.5814 1.7128
38.4400 25.5947 1.7139
38.4600 25.6081 1.7160
38.4800 25.6214 1.7167
38.5000 25.6348 1.7192
38.5200 25.6481 1.7181
38.5400 25.6614 1.7153
38.5600 25.6748 1.7134
38.5800 25.6881 1.7147
38.6000 25.7015 1.7166
38.6200 25.7148 1.7197
38.6400 25.7281 1.7200
38.6600 25.7414 1.7236
38.6800 25.7547 1.7244
38.7000 25.7680 1.7251
38.7200 25.7813 1.7271
38.7400 25.7946 1.7274
38.7600 25.8080 1.7301
38.7800 25.8214 1.7285
38.8000 25.8347 1.7346
38.8200 25.8481 1.7318
38.8400 25.8614 1.7370
38.8600 25.8748 1.7357
38.8800 25.8881 1.7397
38.9000 25.9014 1.7392
38.9200 25.9148 1.7427
38.9400 25.9281 1.7419
38.9600 25.9414 1.7437
38.9800 25.9547 1.7452
39.0000 25.9680 1.7455
39.0200 25.9814 1.7493
39.0400 25.9947 1.7481
39.0600 26.0080 1.7535
39.0800 26.0214 1.7505
39.1000 26.0347 1.7573
39.1200 26.0480 1.7529
39.1400 26.0614 1.7590
39.1600 26.0747 1.7577
39.1800 26.0880 1.7610
39.2000 26.1014 1.7609
39.2200 26.1148 1.7640
39.2400 26.1281 1.7646
39.2600 26.1414 1.7654
39.2800 26.1547 1.7691
39.3000 26.1681 1.7681
39.3200 26.1815 1.7707
39.3400 26.1947 1.7701
39.3600 26.2080 1.7737
39.3800 26.2214 1.7697
39.4000 26.2347 1.7743
39.4200 26.2480 1.7707
39.4400 26.2613 1.7768
39.4600 26.2747 1.7749
39.4800 26.2880 1.7798
39.5000 26.3014 1.7784
39.5200 26.3147 1.7844
39.5400 26.3280 1.7823
39.5600 26.3414 1.7862
39.5800 26.3547 1.7856
39.6000 26.3681 1.7893
39.6200 26.3814 1.7884
39.6400 26.3947 1.7894
39.6600 26.4081 1.7858
39.6800 26.4214 1.7860
39.7000 26.4347 1.7897
39.7200 26.4480 1.7889
39.7400 26.4614 1.7949
39.7600 26.4747 1.7926
39.7800 26.4880 1.7998
39.8000 26.5013 1.7958
39.8200 26.5146 1.8038
39.8400 26.5280 1.8000
39.8600 26.5413 1.8053
39.8800 26.5547 1.8044
39.9000 26.5680 1.8079
39.9200 26.5814 1.8076
39.9400 26.5948 1.8101
39.9600 26.6081 1.8122
39.9800 26.6215 1.8115
40.0000 26.6348 1.8170
40.0200 26.6481 1.8143
40.0400 26.6614 1.8188
40.0600 26.6747 1.8178
40.0800 26.6880 1.8227
40.1000 26.7013 1.8208
40.1200 26.7147 1.8259
40.1400 26.7280 1.8257
40.1600 26.7413 1.8283
40.1800 26.7547 1.8284
40.2000 26.7680 1.8269
40.2200 26.7814 1.8294
40.2400 26.7947 1.8305
40.2600 26.8081 1.8336
40.2800 26.8214 1.8338
40.3000 26.8348 1.8380
40.3200 26.8481 1.8387
40.3400 26.8614 1.8412
40.3600 26.8747 1.8418
40.3800 26.8881 1.8440
40.4000 26.9014 1.8426
40.4200 26.9147 1.8465
40.4400 26.9280 1.8454
40.4600 26.9414 1.8499
40.4800 26.9547 1.8496
40.5000 26.9680 1.8531
40.5200 26.9813 1.8527
40.5400 26.9947 1.8559
40.5600 27.0080 1.8508
40.5800 27.0214 1.8520
40.6000 27.0347 1.8528
40.6200 27.0480 1.8566
40.6400 27.0614 1.8570
40.6600 27.0748 1.8600
40.6800 27.0881 1.8626
40.7000 27.1014 1.8620
40.7200 27.1148 1.8686
40.7400 27.1281 1.8658
40.7600 27.1415 1.8725
40.7800 27.1548 1.8710
40.8000 27.1680 1.8761
40.8200 27.1814 1.8752
40.8400 27.1947 1.8796
40.8600 27.2080 1.8803
40.8800 27.2213 1.8818
40.9000 27.2346 1.8851
40.9200 27.2480 1.8854
40.9400 27.2614 1.8883
40.9600 27.2747 1.8893
40.9800 27.2881 1.8937
41.0000 27.3014 1.8913
41.0200 27.3148 1.8989
41.0400 27.3281 1.8948
41.0600 27.3414 1.9025
41.0800 27.3547 1.9001
41.1000 27.3681 1.9051
41.1200 27.3814 1.9027
41.1400 27.3948 1.9070
41.1600 27.4081 1.9083
41.1800 27.4214 1.9098
41.2000 27.4347 1.9120
41.2200 27.4481 1.9117
41.2400 27.4614 1.9126
41.2600 27.4747 1.9128
41.2800 27.4880 1.9160
41.3000 27.5014 1.9150
41.3200 27.5147 1.9213
41.3400 27.5280 1.9201
41.3600 27.5414 1.9257
41.3800 27.5548 1.9250
41.4000 27.5681 1.9307
41.4200 27.5814 1.9291
41.4400 27.5947 1.9352
41.4600 27.6081 1.9336
41.4800 27.6215 1.9319
41.5000 27.6348 1.9275
41.5200 27.6481 1.9322
41.5400 27.6614 1.9311
41.5600 27.6747 1.9373
41.5800 27.6880 1.9387
41.6000 27.7013 1.9417
41.6200 27.7147 1.9444
41.6400 27.7280 1.9459
41.6600 27.7413 1.9486
41.6800 27.7546 1.9488
41.7000 27.7680 1.9541
41.7200 27.7814 1.9530
41.7400 27.7948 1.9584
41.7600 27.8081 1.9571
41.7800 27.8214 1.9618
41.8000 27.8347 1.9613
41.8200 27.8481 1.9662
41.8400 27.8615 1.9667
41.8600 27.8748 1.9708
41.8800 27.8880 1.9719
41.9000 27.9014 1.9709
41.9200 27.9147 1.9745
41.9400 27.9281 1.9751
41.9600 27.9413 1.9804
41.9800 27.9546 1.9802
42.0000 27.9680 1.9862
42.0200 27.9813 1.9833
42.0400 27.9947 1.9895
42.0600 28.0080 1.9873
42.0800 28.0214 1.9929
42.1000 28.0348 1.9922
42.1200 28.0481 1.9979
42.1400 28.0614 1.9981
42.1600 28.0748 2.0024
42.1800 28.0881 2.0031
42.2000 28.1015 2.0005
42.2200 28.1147 1.9985
42.2400 28.1280 1.9999
42.2600 28.1413 2.0034
42.2800 28.1547 2.0057
42.3000 28.1680 2.0110
42.3200 28.1813 2.0110
42.3400 28.1947 2.0171
42.3600 28.2080 2.0178
42.3800 28.2214 2.0228
42.4000 28.2348 2.0237
42.4200 28.2481 2.0284
42.4400 28.2614 2.0280
42.4600 28.2748 2.0325
42.4800 28.2881 2.0336
42.5000 28.3014 2.0369
42.5200 28.3147 2.0372
42.5400 28.3281 2.0386
42.5600 28.3414 2.0396
42.5800 28.3548 2.0434
42.6000 28.3681 2.0478
42.6200 28.3814 2.0486
42.6400 28.3948 2.0544
42.6600 28.4081 2.0528
42.6800 28.4214 2.0596
42.7000 28.4347 2.0577
42.7200 28.4480 2.0660
42.7400 28.4614 2.0632
42.7600 28.4747 2.0710
42.7800 28.4880 2.0709
42.8000 28.5014 2.0750
42.8200 28.5147 2.0773
42.8400 28.5281 2.0806
42.8600 28.5414 2.0803
42.8800 28.5547 2.0748
42.9000 28.5681 2.0785
42.9200 28.5815 2.0778
42.9400 28.5948 2.0867
42.9600 28.6081 2.0863
42.9800 28.6214 2.0943
43.0000 28.6347 2.0922
43.0200 28.6481 2.1006
43.0400 28.6614 2.0979
43.0600 28.6747 2.1049
43.0800 28.6880 2.1033
43.1000 28.7013 2.1079
43.1200 28.7147 2.1091
43.1400 28.7280 2.1141
43.1600 28.7413 2.1168
43.1800 28.7547 2.1207
43.2000 28.7681 2.1246
43.2200 28.7814 2.1273
43.2400 28.7947 2.1312
43.2600 28.8081 2.1320
43.2800 28.8214 2.1315
43.3000 28.8348 2.1265
43.3200 28.8481 2.1332
43.3400 28.8614 2.1333
43.3600 28.8747 2.1413
43.3800 28.8881 2.1428
43.4000 28.9014 2.1492
43.4200 28.9147 2.1510
43.4400 28.9280 2.1571
43.4600 28.9414 2.1579
43.4800 28.9547 2.1603
43.5000 28.9680 2.1565
43.5200 28.9813 2.1572
43.5400 28.9947 2.1602
43.5600 29.0081 2.1643
43.5800 29.0214 2.1702
43.6000 29.0347 2.1719
43.6200 29.0481 2.1796
43.6400 29.0615 2.1802
43.6600 29.0748 2.1874
43.6800 29.0881 2.1892
43.7000 29.1014 2.1944
43.7200 29.1148 2.1959
43.7400 29.1281 2.1986
43.7600 29.1414 2.2001
43.7800 29.1547 2.2026
43.8000 29.1680 2.2083
43.8200 29.1814 2.2105
43.8400 29.1947 2.2158
43.8600 29.2080 2.2169
43.8800 29.2214 2.2226
43.9000 29.2348 2.2224
43.9200 29.2481 2.2308
43.9400 29.2614 2.2302
43.9600 29.2747 2.2379
43.9800 29.2881 2.2376
44.0000 29.3015 2.2449
44.0200 29.3148 2.2454
44.0400 29.3281 2.2518
44.0600 29.3413 2.2525
44.0800 29.3547 2.2538
44.1000 29.3680 2.2475
44.1200 29.3813 2.2452
44.1400 29.3947 2.2487
44.1600 29.4080 2.2546
44.1800 29.4214 2.2603
44.2000 29.4347 2.2625
44.2200 29.4480 2.2684
44.2400 29.4614 2.2706
44.2600 29.4748 2.2762
44.2800 29.4881 2.2779
44.3000 29.5014 2.2848
44.3200 29.5147 2.2857
44.3400 29.5281 2.2918
44.3600 29.5414 2.2938
44.3800 29.5548 2.2985
44.4000 29.5680 2.3023
44.4200 29.5813 2.3066
44.4400 29.5947 2.3099
44.4600 29.6080 2.3129
44.4800 29.6213 2.3161
44.5000 29.6346 2.3163
44.5200 29.6480 2.3205
44.5400 29.6613 2.3205
44.5600 29.6747 2.3258
44.5800 29.6880 2.3276
44.6000 29.7014 2.3345
44.6200 29.7147 2.3340
44.6400 29.7281 2.3412
44.6600 29.7414 2.3327
44.6800 29.7547 2.3326
44.7000 29.7681 2.3329
44.7200 29.7814 2.3388
44.7400 29.7948 2.3419
44.7600 29.8081 2.3467
44.7800 29.8214 2.3499
44.8000 29.8348 2.3507
44.8200 29.8481 2.3567
44.8400 29.8614 2.3576
44.8600 29.8747 2.3638
44.8800 29.8880 2.3642
44.9000 29.9013 2.3709
44.9200 29.9147 2.3681
44.9400 29.9280 2.3704
44.9600 29.9413 2.3675
44.9800 29.9547 2.3730
45.0000 29.9681 2.3750
45.0200 29.9815 2.3808
45.0400 29.9948 2.3822
45.0480 30.0000 2.3798
45.0490 30.0006 2.3796
45.0510 30.0019 2.3790
45.0710 30.0122 2.3697
45.0910 30.0141 2.3526
45.1110 30.0056 2.3584
45.1310 29.9928 2.3523
45.1510 29.9799 2.3387
45.1710 29.9670 2.3254
45.1910 29.9536 2.3127
45.2110 29.9396 2.3016
45.2310 29.9256 2.2909
45.2510 29.9117 2.2815
45.2710 29.8982 2.2699
45.2910 29.8849 2.2587
45.3110 29.8717 2.2491
45.3310 29.8583 2.2413
45.3510 29.8450 2.2311
45.3710 29.8316 2.2240
45.3910 29.8183 2.2139
45.4110 29.8050 2.2065
45.4310 29.7916 2.1973
45.4510 29.7782 2.1907
45.4710 29.7649 2.1816
45.4910 29.7515 2.1748
45.5110 29.7382 2.1669
45.5310 29.7248 2.1596
45.5510 29.7115 2.1542
45.5710 29.6982 2.1459
45.5910 29.6848 2.1396
45.6110 29.6715 2.1320
45.6310 29.6581 2.1269
45.6510 29.6448 2.1178
45.6710 29.6315 2.1153
45.6910 29.6182 2.1056
45.7110 29.6049 2.1031
45.7310 29.5916 2.0933
45.7510 29.5783 2.0913
45.7710 29.5650 2.0819
45.7910 29.5516 2.0796
45.8110 29.5382 2.0713
45.8310 29.5249 2.0673
45.8510 29.5116 2.0612
45.8710 29.4982 2.0563
45.8910 29.4848 2.0516
45.9110 29.4715 2.0452
45.9310 29.4582 2.0419
45.9510 29.4448 2.0340
45.9710 29.4315 2.0327
45.9910 29.4181 2.0242
46.0110 29.4048 2.0228
46.0310 29.3915 2.0152
46.0510 29.3782 2.0135
46.0710 29.3649 2.0060
46.0910 29.3516 2.0044
46.1110 29.3383 1.9982
46.1310 29.3249 1.9939
46.1510 29.3116 1.9900
46.1710 29.2982 1.9847
46.1910 29.2849 1.9821
46.2110 29.2716 1.9758
46.2310 29.2582 1.9741
46.2510 29.2448 1.9670
46.2710 29.2315 1.9668
46.2910 29.2182 1.9590
46.3110 29.2048 1.9579
46.3310 29.1915 1.9511
46.3510 29.1781 1.9507
46.3710 29.1648 1.9433
46.3910 29.1515 1.9433
46.4110 29.1382 1.9370
46.4310 29.1248 1.9347
46.4510 29.1115 1.9301
46.4710 29.0982 1.9267
46.4910 29.0849 1.9238
46.5110 29.0716 1.9193
46.5310 29.0582 1.9175
46.5510 29.0449 1.9114
46.5710 29.0315 1.9106
46.5910 29.0182 1.9047
46.6110 29.0048 1.9039
46.6310 28.9914 1.8977
46.6510 28.9781 1.8977
46.6710 28.9648 1.8907
46.6910 28.9514 1.8919
46.7110 28.9381 1.8843
46.7310 28.9248 1.8851
46.7510 28.9115 1.8782
46.7710 28.8982 1.8779
46.7910 28.8848 1.8731
46.8110 28.8715 1.8712
46.8310 28.8582 1.8681
46.8510 28.8449 1.8639
46.8710 28.8316 1.8623
46.8910 28.8182 1.8580
46.9110 28.8049 1.8565
46.9310 28.7915 1.8509
46.9510 28.7782 1.8523
46.9710 28.7648 1.8443
46.9910 28.7514 1.8474
47.0110 28.7381 1.8384
47.0310 28.7248 1.8399
47.0510 28.7115 1.8347
47.0710 28.6981 1.8341
47.0910 28.6848 1.8289
47.1110 28.6715 1.8278
47.1310 28.6582 1.8250
47.1510 28.6449 1.8214
47.1710 28.6315 1.8195
47.1910 28.6182 1.8158
47.2110 28.6049 1.8146
47.2310 28.5916 1.8092
47.2510 28.5782 1.8100
47.2710 28.5649 1.8043
47.2910 28.5515 1.8043
47.3110 28.5382 1.7995
47.3310 28.5248 1.7986
47.3510 28.5115 1.7949
47.3710 28.4982 1.7941
47.3910 28.4849 1.7891
47.4110 28.4715 1.7883
47.4310 28.4581 1.7864
47.4510 28.4448 1.7822
47.4710 28.4315 1.7817
47.4910 28.4182 1.7778
47.5110 28.4048 1.7767
47.5310 28.3915 1.7735
47.5510 28.3782 1.7721
47.5710 28.3649 1.7680
47.5910 28.3515 1.7682
47.6110 28.3382 1.7630
47.6310 28.3249 1.7634
47.6510 28.3115 1.7579
47.6710 28.2982 1.7587
47.6910 28.2848 1.7541
47.7110 28.2715 1.7536
47.7310 28.2582 1.7499
47.7510 28.2448 1.7481
47.7710 28.2315 1.7460
47.7910 28.2181 1.7436
47.8110 28.2048 1.7428
47.8310 28.1915 1.7372
47.8510 28.1781 1.7384
47.8710 28.1648 1.7330
47.8910 28.1515 1.7339
47.9110 28.1382 1.7292
47.9310 28.1249 1.7296
47.9510 28.1115 1.7238
47.9710 28.0982 1.7260
47.9910 28.0848 1.7200
48.0110 28.0715 1.7206
48.0310 28.0582 1.7181
48.0510 28.0448 1.7146
48.0710 28.0315 1.7140
48.0910 28.0182 1.7108
48.1110 28.0048 1.7103
48.1310 27.9915 1.7065
48.1510 27.9781 1.7068
48.1710 27.9648 1.7020
48.1910 27.9515 1.7031
48.2110 27.9382 1.6975
48.2310 27.9248 1.6993
48.2510 27.9115 1.6940
48.2710 27.8982 1.6945
48.2910 27.8849 1.6906
48.3110 27.8715 1.6900
48.3310 27.8582 1.6870
48.3510 27.8449 1.6866
48.3710 27.8315 1.6826
48.3910 27.8182 1.6816
48.4110 27.8048 1.6807
48.4310 27.7914 1.6767
48.4510 27.7781 1.6776
48.4710 27.7648 1.6723
48.4910 27.7515 1.6730
48.5110 27.7381 1.6691
48.5310 27.7248 1.6699
48.5510 27.7115 1.6652
48.5710 27.6982 1.6662
48.5910 27.6849 1.6616
48.6110 27.6715 1.6616
48.6310 27.6582 1.6586
48.6510 27.6449 1.6579
48.6710 27.6316 1.6543
48.6910 27.6182 1.6545
48.7110 27.6049 1.6512
48.7310 27.5915 1.6502
48.7510 27.5782 1.6484
48.7710 27.5648 1.6462
48.7910 27.5514 1.6451
48.8110 27.5381 1.6421
48.8310 27.5248 1.6419
48.8510 27.5115 1.6379
48.8710 27.4981 1.6387
48.8910 27.4848 1.6343
48.9110 27.4715 1.6352
48.9310 27.4582 1.6309
48.9510 27.4448 1.6320
48.9710 27.4315 1.6271
48.9910 27.4182 1.6286
49.0110 27.4049 1.6238
49.0310 27.3916 1.6237
49.0510 27.3782 1.6221
49.0710 27.3648 1.6194
49.0910 27.3515 1.6187
49.1110 27.3382 1.6154
49.1310 27.3248 1.6164
49.1510 27.3115 1.6116
49.1710 27.2982 1.6126
49.1910 27.2848 1.6083
49.2110 27.2715 1.6090
49.2310 27.2581 1.6049
49.2510 27.2448 1.6062
49.2710 27.2315 1.6013
49.2910 27.2182 1.6031
49.3110 27.2049 1.5986
49.3310 27.1915 1.5982
49.3510 27.1782 1.5969
49.3710 27.1649 1.5945
49.3910 27.1515 1.5933
49.4110 27.1382 1.5914
49.4310 27.1248 1.5910
49.4510 27.1115 1.5869
49.4710 27.0982 1.5879
49.4910 27.0848 1.5839
49.5110 27.0715 1.5846
49.5310 27.0582 1.5811
49.5510 27.0448 1.5818
49.5710 27.0315 1.5767
49.5910 27.0181 1.5792
49.6110 27.0048 1.5745
49.6310 26.9915 1.5744
49.6510 26.9782 1.5721
49.6710 26.9648 1.5713
49.6910 26.9515 1.5695
49.7110 26.9382 1.5675
49.7310 26.9249 1.5671
49.7510 26.9116 1.5632
49.7710 26.8982 1.5645
49.7910 26.8848 1.5605
49.8110 26.8715 1.5614
49.8310 26.8582 1.5575
49.8510 26.8448 1.5590
49.8710 26.8315 1.5536
49.8910 26.8181 1.5562
49.9110 26.8048 1.5513
49.9310 26.7915 1.5521
49.9510 26.7781 1.5488
49.9710 26.7648 1.5490
49.9910 26.7515 1.5466
50.0110 26.7382 1.5443
50.0310 26.7248 1.5452
50.0510 26.7115 1.5407
50.0710 26.6982 1.5428
50.0910 26.6849 1.5377
50.1110 26.6716 1.5390
50.1310 26.6582 1.5350
50.1510 26.6448 1.5368
50.1710 26.6315 1.5314
50.1910 26.6182 1.5332
50.2110 26.6049 1.5292
50.2310 26.5915 1.5297
50.2510 26.5781 1.5274
50.2710 26.5648 1.5266
50.2910 26.5514 1.5248
50.3110 26.5381 1.5227
50.3310 26.5248 1.5231
50.3510 26.5115 1.5187
50.3710 26.4982 1.5208
50.3910 26.4849 1.5161
50.4110 26.4715 1.5181
50.4310 26.4582 1.5126
50.4510 26.4449 1.5158
50.4710 26.4316 1.5102
50.4910 26.4182 1.5122
50.5110 26.4049 1.5083
50.5310 26.3915 1.5085
50.5510 26.3782 1.5060
50.5710 26.3649 1.5059
50.5910 26.3515 1.5033
50.6110 26.3381 1.5022
50.6310 26.3248 1.5016
50.6510 26.3115 1.4987
50.6710 26.2981 1.4990
50.6910 26.2848 1.4965
50.7110 26.2715 1.4963
50.7310 26.2582 1.4926
50.7510 26.2448 1.4948
50.7710 26.2315 1.4899
50.7910 26.2182 1.4917
50.8110 26.2049 1.4875
50.8310 26.1916 1.4884
50.8510 26.1782 1.4849
50.8710 26.1648 1.4865
50.8910 26.1515 1.4821
50.9110 26.1382 1.4828
50.9310 26.1248 1.4806
50.9510 26.1115 1.4799
50.9710 26.0981 1.4793
50.9910 26.0849 1.4763
51.0110 26.0715 1.4769
51.0310 26.0582 1.4724
51.0510 26.0448 1.4757
51.0710 26.0315 1.4698
51.0910 26.0182 1.4729
51.1110 26.0048 1.4673
51.1310 25.9915 1.4698
51.1510 25.9782 1.4653
51.1710 25.9649 1.4678
51.1910 25.9515 1.4624
51.2110 25.9382 1.4649
51.2310 25.9248 1.4604
51.2510 25.9115 1.4610
51.2710 25.8982 1.4588
51.2910 25.8849 1.4579
51.3110 25.8715 1.4568
51.3310 25.8581 1.4540
51.3510 25.8448 1.4559
51.3710 25.8315 1.4513
51.3910 25.8181 1.4531
51.4110 25.8048 1.4489
51.4310 25.7915 1.4498
51.4510 25.7782 1.4464
51.4710 25.7648 1.4475
51.4910 25.7515 1.4440
51.5110 25.7382 1.4450
51.5310 25.7249 1.4420
51.5510 25.7116 1.4414
51.5710 25.6982 1.4401
51.5910 25.6849 1.4393
51.6110 25.6715 1.4378
51.6310 25.6582 1.4355
51.6510 25.6449 1.4362
51.6710 25.6315 1.4324
51.6910 25.6181 1.4332
51.7110 25.6048 1.4310
51.7310 25.5915 1.4305
51.7510 25.5781 1.4279
51.7710 25.5648 1.4287
51.7910 25.5514 1.4255
51.8110 25.5382 1.4260
51.8310 25.5248 1.4234
51.8510 25.5115 1.4238
51.8710 25.4982 1.4203
51.8910 25.4849 1.4213
51.9110 25.4716 1.4186
51.9310 25.4582 1.4178
51.9510 25.4449 1.4181
51.9710 25.4316 1.4143
51.9910 25.4183 1.4151
52.0110 25.4049 1.4116
52.0310 25.3915 1.4136
52.0510 25.3781 1.4084
52.0710 25.3648 1.4111
52.0910 25.3515 1.4065
52.1110 25.3381 1.4085
52.1310 25.3248 1.4047
52.1510 25.3114 1.4062
52.1710 25.2982 1.4018
52.1910 25.2848 1.4040
52.2110 25.2715 1.4005
52.2310 25.2582 1.4002
52.2510 25.2449 1.3991
52.2710 25.2316 1.3968
52.2910 25.2182 1.3970
52.3110 25.2049 1.3943
52.3310 25.1915 1.3958
52.3510 25.1782 1.3908
52.3710 25.1648 1.3933
52.3910 25.1515 1.3891
52.4110 25.1381 1.3907
52.4310 25.1248 1.3875
52.4510 25.1115 1.3879
52.4710 25.0981 1.3847
52.4910 25.0848 1.3858
52.5110 25.0715 1.3832
52.5310 25.0582 1.3829
52.5510 25.0449 1.3819
52.5710 25.0315 1.3802
52.5910 25.0182 1.3794
52.6110 25.0049 1.3782
52.6310 24.9916 1.3775
52.6510 24.9782 1.3745
52.6710 24.9648 1.3757
52.6910 24.9515 1.3733
52.7110 24.9382 1.3724
52.7310 24.9249 1.3710
52.7510 24.9115 1.3710
52.7710 24.8981 1.3679
52.7910 24.8848 1.3694
52.8110 24.8715 1.3660
52.8310 24.8581 1.3669
52.8510 24.8448 1.3638
52.8710 24.8315 1.3651
52.8910 24.8182 1.3613
52.9110 24.8049 1.3633
52.9310 24.7915 1.3607
52.9510 24.7782 1.3593
52.9710 24.7649 1.3596
52.9910 24.7516 1.3564
53.0110 24.7382 1.3569
53.0310 24.7249 1.3541
53.0510 24.7115 1.3558
53.0710 24.6982 1.3506
53.0910 24.6849 1.3546
53.1110 24.6715 1.3484
53.1310 24.6581 1.3519
53.1510 24.6448 1.3476
53.1710 24.6315 1.3489
53.1910 24.6182 1.3452
53.2110 24.6048 1.3463
53.2310 24.5914 1.3450
53.2510 24.5781 1.3430
53.2710 24.5648 1.3436
53.2910 24.5515 1.3399
53.3110 24.5382 1.3412
53.3310 24.5249 1.3379
53.3510 24.5116 1.3396
53.3710 24.4982 1.3353
53.3910 24.4849 1.3373
53.4110 24.4716 1.3337
53.4310 24.4583 1.3343
53.4510 24.4449 1.3319
53.4710 24.4316 1.3327
53.4910 24.4182 1.3288
53.5110 24.4048 1.3303
53.5310 24.3915 1.3276
53.5510 24.3781 1.3273
53.5710 24.3647 1.3259
53.5910 24.3514 1.3254
53.6110 24.3381 1.3242
53.6310 24.3248 1.3226
53.6510 24.3115 1.3231
53.6710 24.2982 1.3195
53.6910 24.2849 1.3210
53.7110 24.2716 1.3182
53.7310 24.2582 1.3181
53.7510 24.2449 1.3165
53.7710 24.2315 1.3173
53.7910 24.2182 1.3131
53.8110 24.2048 1.3148
53.8310 24.1915 1.3113
53.8510 24.1781 1.3125
53.8710 24.1648 1.3104
53.8910 24.1515 1.3095
53.9110 24.1381 1.3086
53.9310 24.1248 1.3071
53.9510 24.1114 1.3079
53.9710 24.0982 1.3034
53.9910 24.0849 1.3061
54.0110 24.0715 1.3022
54.0310 24.0582 1.3035
54.0510 24.0449 1.3004
54.0710 24.0316 1.3023
54.0910 24.0182 1.2981
54.1110 24.0049 1.2998
54.1310 23.9915 1.2969
54.1510 23.9782 1.2962
54.1710 23.9649 1.2962
54.1910 23.9515 1.2940
54.2110 23.9381 1.2944
54.2310 23.9248 1.2913
54.2510 23.9115 1.2938
54.2710 23.8982 1.2876
54.2910 23.8848 1.2926
54.3110 23.8715 1.2868
54.3310 23.8582 1.2888
54.3510 23.8449 1.2861
54.3710 23.8316 1.2865
54.3910 23.8182 1.2844
54.4110 23.8049 1.2844
54.4310 23.7916 1.2823
54.4510 23.7783 1.2817
54.4710 23.7649 1.2807
54.4910 23.7515 1.2806
54.5110 23.7382 1.2789
54.5310 23.7249 1.2772
54.5510 23.7115 1.2788
54.5710 23.6981 1.2736
54.5910 23.6848 1.2771
54.6110 23.6715 1.2732
54.6310 23.6582 1.2729
54.6510 23.6448 1.2720
54.6710 23.6315 1.2718
54.6910 23.6182 1.2687
54.7110 23.6049 1.2711
54.7310 23.5915 1.2665
54.7510 23.5781 1.2690
54.7710 23.5648 1.2647
54.7910 23.5515 1.2660
54.8110 23.5382 1.2642
54.8310 23.5249 1.2625
54.8510 23.5115 1.2640
54.8710 23.4982 1.2599
54.8910 23.4848 1.2614
54.9110 23.4715 1.2583
54.9310 23.4581 1.2604
54.9510 23.4448 1.2552
54.9710 23.4315 1.2598
54.9910 23.4182 1.2523
55.0110 23.4048 1.2576
55.0310 23.3915 1.2521
55.0510 23.3782 1.2540
55.0710 23.3648 1.2504
55.0910 23.3515 1.2522
55.1110 23.3381 1.2494
55.1310 23.3248 1.2492
55.1510 23.3115 1.2495
55.1710 23.2982 1.2454
55.1910 23.2849 1.2486
55.2110 23.2715 1.2440
55.2310 23.2582 1.2467
55.2510 23.2449 1.2413
55.2710 23.2315 1.2453
55.2910 23.2182 1.2394
55.3110 23.2048 1.2435
55.3310 23.1915 1.2381
55.3510 23.1782 1.2405
55.3710 23.1648 1.2372
55.3910 23.1515 1.2382
55.4110 23.1382 1.2357
55.4310 23.1249 1.2354
55.4510 23.1115 1.2347
55.4710 23.0982 1.2336
55.4910 23.0849 1.2327
55.5110 23.0716 1.2319
55.5310 23.0583 1.2318
55.5510 23.0449 1.2287
55.5710 23.0315 1.2307
55.5910 23.0182 1.2273
55.6110 23.0049 1.2275
55.6310 22.9915 1.2256
55.6510 22.9781 1.2267
55.6710 22.9648 1.2232
55.6910 22.9515 1.2255
55.7110 22.9382 1.2211
55.7310 22.9248 1.2233
55.7510 22.9114 1.2202
55.7710 22.8981 1.2216
55.7910 22.8848 1.2176
55.8110 22.8715 1.2202
55.8310 22.8582 1.2168
55.8510 22.8449 1.2164
55.8710 22.8316 1.2168
55.8910 22.8183 1.2134
55.9110 22.8049 1.2158
55.9310 22.7915 1.2118
55.9510 22.7782 1.2144
55.9710 22.7649 1.2095
55.9910 22.7515 1.2121
56.0110 22.7381 1.2080
56.0310 22.7248 1.2105
56.0510 22.7115 1.2073
56.0710 22.6982 1.2072
56.0910 22.6848 1.2057
56.1110 22.6715 1.2056
56.1310 22.6581 1.2051
56.1510 22.6448 1.2020
56.1710 22.6315 1.2055
56.1910 22.6181 1.1994
56.2110 22.6048 1.2027
56.2310 22.5915 1.1982
56.2510 22.5782 1.2011
56.2710 22.5649 1.1964
56.2910 22.5515 1.1989
56.3110 22.5382 1.1953
56.3310 22.5249 1.1959
56.3510 22.5115 1.1945
56.3710 22.4982 1.1939
56.3910 22.4848 1.1924
56.4110 22.4715 1.1922
56.4310 22.4582 1.1918
56.4510 22.4448 1.1888
56.4710 22.4315 1.1919
56.4910 22.4182 1.1868
56.5110 22.4049 1.1895
56.5310 22.3916 1.1854
56.5510 22.3782 1.1878
56.5710 22.3649 1.1836
56.5910 22.3515 1.1861
56.6110 22.3382 1.1821
56.6310 22.3249 1.1833
56.6510 22.3115 1.1817
56.6710 22.2982 1.1816
56.6910 22.2848 1.1792
56.7110 22.2715 1.1802
56.7310 22.2582 1.1782
56.7510 22.2448 1.1764
56.7710 22.2315 1.1784
56.7910 22.2182 1.1745
56.8110 22.2049 1.1762
56.8310 22.1915 1.1729
56.8510 22.1782 1.1750
56.8710 22.1649 1.1702
56.8910 22.1515 1.1740
56.9110 22.1382 1.1694
56.9310 22.1248 1.1718
56.9510 22.1115 1.1681
56.9710 22.0982 1.1699
56.9910 22.0849 1.1659
57.0110 22.0715 1.1684
57.0310 22.0582 1.1652
57.0510 22.0449 1.1647
57.0710 22.0315 1.1649
57.0910 22.0182 1.1622
57.1110 22.0048 1.1638
57.1310 21.9915 1.1600
57.1510 21.9782 1.1631
57.1710 21.9648 1.1571
57.1910 21.9514 1.1616
57.2110 21.9381 1.1571
57.2310 21.9248 1.1589
57.2510 21.9115 1.1552
57.2710 21.8982 1.1574
57.2910 21.8848 1.1541
57.3110 21.8715 1.1555
57.3310 21.8582 1.1532
57.3510 21.8449 1.1530
57.3710 21.8315 1.1524
57.3910 21.8182 1.1508
57.4110 21.8049 1.1505
57.4310 21.7916 1.1486
57.4510 21.7782 1.1498
57.4710 21.7648 1.1464
57.4910 21.7514 1.1489
57.5110 21.7381 1.1447
57.5310 21.7248 1.1468
57.5510 21.7114 1.1430
57.5710 21.6981 1.1467
57.5910 21.6848 1.1405
57.6110 21.6715 1.1443
57.6310 21.6582 1.1400
57.6510 21.6448 1.1420
57.6710 21.6315 1.1389
57.6910 21.6182 1.1402
57.7110 21.6049 1.1371
57.7310 21.5915 1.1383
57.7510 21.5782 1.1371
57.7710 21.5649 1.1345
57.7910 21.5515 1.1370
57.8110 21.5382 1.1325
57.8310 21.5248 1.1351
57.8510 21.5115 1.1304
57.8710 21.4982 1.1342
57.8910 21.4848 1.1275
57.9110 21.4715 1.1328
57.9310 21.4581 1.1271
57.9510 21.4448 1.1296
57.9710 21.4315 1.1257
57.9910 21.4182 1.1284
58.0110 21.4048 1.1245
58.0310 21.3915 1.1264
58.0510 21.3782 1.1243
58.0710 21.3649 1.1225
58.0910 21.3515 1.1242
58.1110 21.3382 1.1207
58.1310 21.3249 1.1228
58.1510 21.3116 1.1185
58.1710 21.2982 1.1218
58.1910 21.2848 1.1168
58.2110 21.2715 1.1195
58.2310 21.2582 1.1165
58.2510 21.2449 1.1165
58.2710 21.2315 1.1159
58.2910 21.2181 1.1153
58.3110 21.2048 1.1136
58.3310 21.1915 1.1135
58.3510 21.1782 1.1132
58.3710 21.1648 1.1109
58.3910 21.1515 1.1121
58.4110 21.1382 1.1092
58.4310 21.1249 1.1099
58.4510 21.1115 1.1080
58.4710 21.0982 1.1090
58.4910 21.0849 1.1053
58.5110 21.0716 1.1071
58.5310 21.0582 1.1051
58.5510 21.0449 1.1044
58.5710 21.0315 1.1040
58.5910 21.0182 1.1037
58.6110 21.0048 1.1015
58.6310 20.9915 1.1021
58.6510 20.9781 1.1008
58.6710 20.9648 1.0998
58.6910 20.9514 1.1000
58.7110 20.9381 1.0982
58.7310 20.9248 1.0985
58.7510 20.9115 1.0961
58.7710 20.8982 1.0983
58.7910 20.8849 1.0932
58.8110 20.8715 1.0967
58.8310 20.8582 1.0932
58.8510 20.8449 1.0945
58.8710 20.8316 1.0909
58.8910 20.8182 1.0936
58.9110 20.8048 1.0899
58.9310 20.7915 1.0910
58.9510 20.7782 1.0891
58.9710 20.7648 1.0888
58.9910 20.7515 1.0878
59.0110 20.7381 1.0873
59.0310 20.7248 1.0869
59.0510 20.7115 1.0844
59.0710 20.6981 1.0869
59.0910 20.6848 1.0825
59.1110 20.6715 1.0853
59.1310 20.6582 1.0814
59.1510 20.6449 1.0833
59.1710 20.6315 1.0800
59.1910 20.6182 1.0821
59.2110 20.6049 1.0780
59.2310 20.5916 1.0798
59.2510 20.5782 1.0779
59.2710 20.5648 1.0773
59.2910 20.5515 1.0770
59.3110 20.5381 1.0762
59.3310 20.5248 1.0752
59.3510 20.5115 1.0728
59.3710 20.4981 1.0759
59.3910 20.4848 1.0703
59.4110 20.4715 1.0744
59.4310 20.4582 1.0696
59.4510 20.4448 1.0725
59.4710 20.4315 1.0679
59.4910 20.4182 1.0711
59.5110 20.4049 1.0668
59.5310 20.3916 1.0687
59.5510 20.3782 1.0665
59.5710 20.3648 1.0665
59.5910 20.3515 1.0647
59.6110 20.3382 1.0647
59.6310 20.3248 1.0635
59.6510 20.3114 1.0626
59.6710 20.2981 1.0634
59.6910 20.2848 1.0599
59.7110 20.2715 1.0618
59.7310 20.2581 1.0594
59.7510 20.2448 1.0606
59.7710 20.2315 1.0565
59.7910 20.2182 1.0605
59.8110 20.2048 1.0548
59.8310 20.1915 1.0586
59.8510 20.1783 1.0537
59.8710 20.1649 1.0559
59.8910 20.1515 1.0528
59.9110 20.1382 1.0549
59.9310 20.1248 1.0516
59.9510 20.1115 1.0519
59.9710 20.0982 1.0513
59.9910 20.0848 1.0494
60.0110 20.0715 1.0505
60.0310 20.0581 1.0483
60.0510 20.0448 1.0493
60.0710 20.0315 1.0451
60.0910 20.0181 1.0488
60.1110 20.0048 1.0438
60.1310 19.9915 1.0464
60.1510 19.9782 1.0432
60.1710 19.9648 1.0446
60.1910 19.9515 1.0421
60.2110 19.9382 1.0431
60.2310 19.9249 1.0410
60.2510 19.9115 1.0410
60.2710 19.8982 1.0409
60.2910 19.8849 1.0381
60.3110 19.8715 1.0388
60.3310 19.8582 1.0367
60.3510 19.8448 1.0387
60.3710 19.8314 1.0343
60.3910 19.8181 1.0385
60.4110 19.8048 1.0326
60.4310 19.7915 1.0361
60.4510 19.7781 1.0319
60.4710 19.7648 1.0348
60.4910 19.7515 1.0297
60.5110 19.7382 1.0335
60.5310 19.7248 1.0294
60.5510 19.7115 1.0307
60.5710 19.6982 1.0288
60.5910 19.6849 1.0290
60.6110 19.6716 1.0272
60.6310 19.6582 1.0274
60.6510 19.6449 1.0265
60.6710 19.6316 1.0243
60.6910 19.6182 1.0264
60.7110 19.6048 1.0226
60.7310 19.5915 1.0253
60.7510 19.5782 1.0212
60.7710 19.5648 1.0234
60.7910 19.5515 1.0192
60.8110 19.5381 1.0228
60.8310 19.5248 1.0182
60.8510 19.5115 1.0202
60.8710 19.4982 1.0179
60.8910 19.4848 1.0190
60.9110 19.4715 1.0156
60.9310 19.4582 1.0180
60.9510 19.4449 1.0142
60.9710 19.4316 1.0149
60.9910 19.4182 1.0148
61.0110 19.4049 1.0123
61.0310 19.3915 1.0134
61.0510 19.3782 1.0109
61.0710 19.3648 1.0130
61.0910 19.3514 1.0087
61.1110 19.3381 1.0120
61.1310 19.3248 1.0072
61.1510 19.3115 1.0087
61.1710 19.2981 1.0068
61.1910 19.2848 1.0079
61.2110 19.2715 1.0047
61.2310 19.2582 1.0065
61.2510 19.2449 1.0049
61.2710 19.2315 1.0035
61.2910 19.2182 1.0048
61.3110 19.2049 1.0018
61.3310 19.1916 1.0025
61.3510 19.1782 1.0008
61.3710 19.1649 1.0020
61.3910 19.1515 0.9978
61.4110 19.1382 1.0011
61.4310 19.1248 0.9979
61.4510 19.1114 0.9981
61.4710 19.0981 0.9968
61.4910 19.0848 0.9971
61.5110 19.0714 0.9951
61.5310 19.0581 0.9961
61.5510 19.0448 0.9942
61.5710 19.0315 0.9933
61.5910 19.0182 0.9939
61.6110 19.0049 0.9921
61.6310 18.9915 0.9925
61.6510 18.9782 0.9904
61.6710 18.9649 0.9918
61.6910 18.9516 0.9879
61.7110 18.9382 0.9910
61.7310 18.9248 0.9875
61.7510 18.9115 0.9879
61.7710 18.8982 0.9860
61.7910 18.8848 0.9864
61.8110 18.8715 0.9849
61.8310 18.8581 0.9856
61.8510 18.8448 0.9837
61.8710 18.8315 0.9829
61.8910 18.8181 0.9841
61.9110 18.8048 0.9818
61.9310 18.7915 0.9822
61.9510 18.7782 0.9799
61.9710 18.7648 0.9817
61.9910 18.7515 0.9778
62.0110 18.7382 0.9806
62.0310 18.7249 0.9765
62.0510 18.7115 0.9784
62.0710 18.6982 0.9751
62.0910 18.6849 0.9771
62.1110 18.6715 0.9742
62.1310 18.6582 0.9752
62.1510 18.6448 0.9734
62.1710 18.6315 0.9718
62.1910 18.6182 0.9731
62.2110 18.6048 0.9708
62.2310 18.5915 0.9711
62.2510 18.5781 0.9689
62.2710 18.5648 0.9716
62.2910 18.5515 0.9660
62.3110 18.5382 0.9705
62.3310 18.5248 0.9647
62.3510 18.5115 0.9687
62.3710 18.4982 0.9635
62.3910 18.4849 0.9671
62.4110 18.4715 0.9621
62.4310 18.4582 0.9652
62.4510 18.4448 0.9628
62.4710 18.4315 0.9615
62.4910 18.4182 0.9620
62.5110 18.4048 0.9603
62.5310 18.3915 0.9603
62.5510 18.3782 0.9583
62.5710 18.3649 0.9597
62.5910 18.3515 0.9561
62.6110 18.3381 0.9589
62.6310 18.3248 0.9551
62.6510 18.3115 0.9574
62.6710 18.2982 0.9533
62.6910 18.2848 0.9565
62.7110 18.2715 0.9520
62.7310 18.2582 0.9547
62.7510 18.2449 0.9511
62.7710 18.2316 0.9520
62.7910 18.2182 0.9504
62.8110 18.2048 0.9511
62.8310 18.1915 0.9495
62.8510 18.1782 0.9484
62.8710 18.1648 0.9496
62.8910 18.1514 0.9457
62.9110 18.1381 0.9490
62.9310 18.1248 0.9440
62.9510 18.1115 0.9477
62.9710 18.0981 0.9423
62.9910 18.0848 0.9472
63.0110 18.0715 0.9406
63.0310 18.0582 0.9453
63.0510 18.0449 0.9407
63.0710 18.0315 0.9427
63.0910 18.0182 0.9399
63.1110 18.0049 0.9414
63.1310 17.9916 0.9391
63.1510 17.9782 0.9389
63.1710 17.9649 0.9395
63.1910 17.9515 0.9362
63.2110 17.9382 0.9384
63.2310 17.9248 0.9344
63.2510 17.9114 0.9377
63.2710 17.8981 0.9329
63.2910 17.8848 0.9369
63.3110 17.8715 0.9300
63.3310 17.8582 0.9356
63.3510 17.8448 0.9305
63.3710 17.8315 0.9327
63.3910 17.8182 0.9299
63.4110 17.8048 0.9313
63.4310 17.7915 0.9291
63.4510 17.7782 0.9288
63.4710 17.7649 0.9285
63.4910 17.7515 0.9270
63.5110 17.7382 0.9271
63.5310 17.7248 0.9260
63.5510 17.7115 0.9264
63.5710 17.6982 0.9236
63.5910 17.6848 0.9254
63.6110 17.6715 0.9221
63.6310 17.6581 0.9244
63.6510 17.6448 0.9208
63.6710 17.6315 0.9229
63.6910 17.6181 0.9190
63.7110 17.6048 0.9221
63.7310 17.5915 0.9189
63.7510 17.5782 0.9189
63.7710 17.5649 0.9186
63.7910 17.5515 0.9172
63.8110 17.5382 0.9170
63.8310 17.5249 0.9162
63.8510 17.5115 0.9163
63.8710 17.4982 0.9129
63.8910 17.4848 0.9167
63.9110 17.4715 0.9108
63.9310 17.4582 0.9152
63.9510 17.4448 0.9094
63.9710 17.4315 0.9139
63.9910 17.4182 0.9084
64.0110 17.4048 0.9122
64.0310 17.3915 0.9077
64.0510 17.3782 0.9098
64.0710 17.3648 0.9080
64.0910 17.3515 0.9077
64.1110 17.3382 0.9068
64.1310 17.3249 0.9061
64.1510 17.3115 0.9063
64.1710 17.2982 0.9034
64.1910 17.2849 0.9064
64.2110 17.2716 0.9016
64.2310 17.2582 0.9049
64.2510 17.2449 0.9004
64.2710 17.2315 0.9037
64.2910 17.2182 0.8992
64.3110 17.2049 0.9022
64.3310 17.1915 0.8983
64.3510 17.1781 0.8995
64.3710 17.1648 0.8981
64.3910 17.1515 0.8978
64.4110 17.1381 0.8968
64.4310 17.1248 0.8965
64.4510 17.1114 0.8965
64.4710 17.0981 0.8936
64.4910 17.0848 0.8958
64.5110 17.0715 0.8925
64.5310 17.0582 0.8946
64.5510 17.0449 0.8915
64.5710 17.0316 0.8926
64.5910 17.0182 0.8894
64.6110 17.0048 0.8921
64.6310 16.9915 0.8883
64.6510 16.9782 0.8899
64.6710 16.9649 0.8878
64.6910 16.9515 0.8875
64.7110 16.9381 0.8867
64.7310 16.9248 0.8868
64.7510 16.9115 0.8861
64.7710 16.8981 0.8839
64.7910 16.8848 0.8859
64.8110 16.8715 0.8825
64.8310 16.8582 0.8838
64.8510 16.8449 0.8819
64.8710 16.8315 0.8831
64.8910 16.8182 0.8794
64.9110 16.8049 0.8827
64.9310 16.7916 0.8783
64.9510 16.7782 0.8799
64.9710 16.7649 0.8782
64.9910 16.7515 0.8789
65.0110 16.7382 0.8765
65.0310 16.7249 0.8775
65.0510 16.7115 0.8759
65.0710 16.6981 0.8748
65.0910 16.6848 0.8752
65.1110 16.6715 0.8735
65.1310 16.6581 0.8738
65.1510 16.6448 0.8724
65.1710 16.6315 0.8729
65.1910 16.6182 0.8698
65.2110 16.6049 0.8722
65.2310 16.5915 0.8688
65.2510 16.5782 0.8706
65.2710 16.5649 0.8673
65.2910 16.5515 0.8692
65.3110 16.5382 0.8660
65.3310 16.5248 0.8675
65.3510 16.5115 0.8665
65.3710 16.4982 0.8641
65.3910 16.4849 0.8661
65.4110 16.4715 0.8627
65.4310 16.4581 0.8641
65.4510 16.4448 0.8620
65.4710 16.4315 0.8634
65.4910 16.4182 0.8594
65.5110 16.4048 0.8622
65.5310 16.3915 0.8586
65.5510 16.3782 0.8606
65.5710 16.3648 0.8576
65.5910 16.3515 0.8596
65.6110 16.3382 0.8560
65.6310 16.3249 0.8581
65.6510 16.3115 0.8556
65.6710 16.2982 0.8545
65.6910 16.2848 0.8560
65.7110 16.2715 0.8534
65.7310 16.2582 0.8536
65.7510 16.2449 0.8524
65.7710 16.2315 0.8530
65.7910 16.2181 0.8501
65.8110 16.2048 0.8528
65.8310 16.1915 0.8484
65.8510 16.1781 0.8518
65.8710 16.1648 0.8470
65.8910 16.1515 0.8510
65.9110 16.1382 0.8453
65.9310 16.1248 0.8494
65.9510 16.1115 0.8452
65.9710 16.0981 0.8471
65.9910 16.0849 0.8447
66.0110 16.0715 0.8454
66.0310 16.0582 0.8431
66.0510 16.0449 0.8434
66.0710 16.0315 0.8436
66.0910 16.0182 0.8406
66.1110 16.0049 0.8433
66.1310 15.9915 0.8394
66.1510 15.9782 0.8419
66.1710 15.9649 0.8377
66.1910 15.9516 0.8417
66.2110 15.9382 0.8350
66.2310 15.9248 0.8400
66.2510 15.9114 0.8353
66.2710 15.8981 0.8374
66.2910 15.8848 0.8346
66.3110 15.8715 0.8358
66.3310 15.8581 0.8332
66.3510 15.8449 0.8338
66.3710 15.8316 0.8336
66.3910 15.8183 0.8312
66.4110 15.8049 0.8336
66.4310 15.7916 0.8295
66.4510 15.7782 0.8315
66.4710 15.7649 0.8282
66.4910 15.7515 0.8313
66.5110 15.7381 0.8266
66.5310 15.7248 0.8296
66.5510 15.7115 0.8256
66.5710 15.6981 0.8278
66.5910 15.6848 0.8251
66.6110 15.6715 0.8263
66.6310 15.6582 0.8239
66.6510 15.6449 0.8240
66.6710 15.6315 0.8232
66.6910 15.6182 0.8222
66.7110 15.6049 0.8230
66.7310 15.5916 0.8204
66.7510 15.5782 0.8214
66.7710 15.5649 0.8188
66.7910 15.5515 0.8206
66.8110 15.5382 0.8173
66.8310 15.5249 0.8199
66.8510 15.5115 0.8152
66.8710 15.4981 0.8185
66.8910 15.4848 0.8140
66.9110 15.4715 0.8176
66.9310 15.4581 0.8125
66.9510 15.4448 0.8162
66.9710 15.4314 0.8126
66.9910 15.4182 0.8133
67.0110 15.4048 0.8117
67.0310 15.3915 0.8118
67.0510 15.3782 0.8112
67.0710 15.3649 0.8093
67.0910 15.3516 0.8108
67.1110 15.3383 0.8070
67.1310 15.3249 0.8103
67.1510 15.3115 0.8056
67.1710 15.2982 0.8089
67.1910 15.2848 0.8043
67.2110 15.2715 0.8080
67.2310 15.2581 0.8032
67.2510 15.2448 0.8057
67.2710 15.2315 0.8030
67.2910 15.2181 0.8028
67.3110 15.2048 0.8025
67.3310 15.1915 0.8019
67.3510 15.1782 0.8015
67.3710 15.1649 0.8000
67.3910 15.1515 0.8008
67.4110 15.1382 0.7981
67.4310 15.1249 0.8001
67.4510 15.1116 0.7972
67.4710 15.0983 0.7984
67.4910 15.0849 0.7946
67.5110 15.0715 0.7976
67.5310 15.0582 0.7935
67.5510 15.0449 0.7961
67.5710 15.0315 0.7933
67.5910 15.0181 0.7936
67.6110 15.0048 0.7926
67.6310 14.9915 0.7921
67.6510 14.9781 0.7916
67.6710 14.9648 0.7903
67.6910 14.9514 0.7914
67.7110 14.9381 0.7882
67.7310 14.9248 0.7900
67.7510 14.9115 0.7877
67.7710 14.8982 0.7888
67.7910 14.8849 0.7861
67.8110 14.8716 0.7878
67.8310 14.8582 0.7845
67.8510 14.8449 0.7864
67.8710 14.8316 0.7836
67.8910 14.8182 0.7845
67.9110 14.8049 0.7821
67.9310 14.7915 0.7833
67.9510 14.7781 0.7816
67.9710 14.7648 0.7816
67.9910 14.7515 0.7807
68.0110 14.7381 0.7802
68.0310 14.7248 0.7793
68.0510 14.7114 0.7792
68.0710 14.6981 0.7785
68.0910 14.6848 0.7764
68.1110 14.6715 0.7787
68.1310 14.6582 0.7741
68.1510 14.6449 0.7773
68.1710 14.6316 0.7736
68.1910 14.6183 0.7759
68.2110 14.6049 0.7720
68.2310 14.5915 0.7748
68.2510 14.5782 0.7717
68.2710 14.5649 0.7711
68.2910 14.5515 0.7711
68.3110 14.5381 0.7700
68.3310 14.5248 0.7696
68.3510 14.5115 0.7683
68.3710 14.4981 0.7691
68.3910 14.4848 0.7664
68.4110 14.4714 0.7690
68.4310 14.4581 0.7647
68.4510 14.4449 0.7674
68.4710 14.4315 0.7638
68.4910 14.4182 0.7661
68.5110 14.4049 0.7627
68.5310 14.3916 0.7644
68.5510 14.3783 0.7630
68.5710 14.3649 0.7612
68.5910 14.3516 0.7617
68.6110 14.3382 0.7602
68.6310 14.3249 0.7599
68.6510 14.3115 0.7596
68.6710 14.2981 0.7586
68.6910 14.2848 0.7576
68.7110 14.2715 0.7579
68.7310 14.2581 0.7568
68.7510 14.2448 0.7558
68.7710 14.2315 0.7563
68.7910 14.2182 0.7551
68.8110 14.2049 0.7535
68.8310 14.1915 0.7543
68.8510 14.1782 0.7531
68.8710 14.1649 0.7530
68.8910 14.1516 0.7509
68.9110 14.1383 0.7518
68.9310 14.1249 0.7491
68.9510 14.1115 0.7508
68.9710 14.0982 0.7483
68.9910 14.0849 0.7480
69.0110 14.0715 0.7474
69.0310 14.0581 0.7469
69.0510 14.0448 0.7463
69.0710 14.0315 0.7448
69.0910 14.0182 0.7465
69.1110 14.0048 0.7429
69.1310 13.9915 0.7450
69.1510 13.9781 0.7419
69.1710 13.9648 0.7435
69.1910 13.9515 0.7411
69.2110 13.9382 0.7416
69.2310 13.9248 0.7400
69.2510 13.9115 0.7401
69.2710 13.8982 0.7399
69.2910 13.8849 0.7382
69.3110 13.8715 0.7395
69.3310 13.8582 0.7370
69.3510 13.8449 0.7372
69.3710 13.8315 0.7356
69.3910 13.8181 0.7365
69.4110 13.8048 0.7342
69.4310 13.7915 0.7352
69.4510 13.7782 0.7329
69.4710 13.7648 0.7328
69.4910 13.7515 0.7328
69.5110 13.7381 0.7312
69.5310 13.7248 0.7315
69.5510 13.7115 0.7300
69.5710 13.6981 0.7311
69.5910 13.6848 0.7276
69.6110 13.6715 0.7297
69.6310 13.6582 0.7267
69.6510 13.6449 0.7280
69.6710 13.6315 0.7259
69.6910 13.6182 0.7266
69.7110 13.6049 0.7237
69.7310 13.5915 0.7256
69.7510 13.5782 0.7229
69.7710 13.5648 0.7238
69.7910 13.5515 0.7221
69.8110 13.5381 0.7223
69.8310 13.5248 0.7201
69.8510 13.5114 0.7210
69.8710 13.4982 0.7201
69.8910 13.4849 0.7190
69.9110 13.4715 0.7190
69.9310 13.4582 0.7173
69.9510 13.4448 0.7182
69.9710 13.4316 0.7155
69.9910 13.4182 0.7170
70.0110 13.4049 0.7138
70.0310 13.3915 0.7166
70.0510 13.3782 0.7128
70.0710 13.3649 0.7144
70.0910 13.3515 0.7110
70.1110 13.3382 0.7135
70.1310 13.3248 0.7103
70.1510 13.3115 0.7112
70.1710 13.2982 0.7101
70.1910 13.2848 0.7083
70.2110 13.2715 0.7099
70.2310 13.2581 0.7068
70.2510 13.2448 0.7087
70.2710 13.2316 0.7054
70.2910 13.2182 0.7075
70.3110 13.2049 0.7038
70.3310 13.1916 0.7066
70.3510 13.1783 0.7032
70.3710 13.1649 0.7044
70.3910 13.1515 0.7024
70.4110 13.1382 0.7030
70.4310 13.1248 0.7012
70.4510 13.1115 0.6999
70.4710 13.0981 0.7024
70.4910 13.0848 0.6977
70.5110 13.0715 0.7014
70.5310 13.0582 0.6961
70.5510 13.0448 0.7002
70.5710 13.0315 0.6947
70.5910 13.0182 0.6995
70.6110 13.0049 0.6940
70.6310 12.9915 0.6965
70.6510 12.9782 0.6942
70.6710 12.9648 0.6947
70.6910 12.9515 0.6931
70.7110 12.9382 0.6932
70.7310 12.9249 0.6921
70.7510 12.9115 0.6910
70.7710 12.8982 0.6916
70.7910 12.8848 0.6888
70.8110 12.8715 0.6906
70.8310 12.8582 0.6877
70.8510 12.8448 0.6896
70.8710 12.8315 0.6859
70.8910 12.8182 0.6886
70.9110 12.8048 0.6847
70.9310 12.7914 0.6870
70.9510 12.7781 0.6835
70.9710 12.7648 0.6859
70.9910 12.7515 0.6817
71.0110 12.7382 0.6848
71.0310 12.7248 0.6805
71.0510 12.7115 0.6830
71.0710 12.6982 0.6798
71.0910 12.6849 0.6806
71.1110 12.6715 0.6802
71.1310 12.6582 0.6783
71.1510 12.6449 0.6801
71.1710 12.6315 0.6750
71.1910 12.6182 0.6799
71.2110 12.6048 0.6735
71.2310 12.5915 0.6782
71.2510 12.5782 0.6728
71.2710 12.5648 0.6766
71.2910 12.5515 0.6718
71.3110 12.5382 0.6756
71.3310 12.5249 0.6705
71.3510 12.5115 0.6729
71.3710 12.4982 0.6714
71.3910 12.4848 0.6706
71.4110 12.4715 0.6704
71.4310 12.4582 0.6684
71.4510 12.4449 0.6699
71.4710 12.4316 0.6657
71.4910 12.4182 0.6700
71.5110 12.4049 0.6639
71.5310 12.3916 0.6684
71.5510 12.3782 0.6631
71.5710 12.3648 0.6666
71.5910 12.3515 0.6621
71.6110 12.3382 0.6648
71.6310 12.3248 0.6616
71.6510 12.3114 0.6632
71.6710 12.2981 0.6611
71.6910 12.2848 0.6612
71.7110 12.2715 0.6599
71.7310 12.2582 0.6595
71.7510 12.2448 0.6595
71.7710 12.2315 0.6571
71.7910 12.2182 0.6590
71.8110 12.2049 0.6554
71.8310 12.1915 0.6572
71.8510 12.1782 0.6544
71.8710 12.1649 0.6558
71.8910 12.1515 0.6524
71.9110 12.1382 0.6546
71.9310 12.1248 0.6515
71.9510 12.1114 0.6533
71.9710 12.0981 0.6503
71.9910 12.0848 0.6516
72.0110 12.0714 0.6488
72.0310 12.0581 0.6504
72.0510 12.0448 0.6481
72.0710 12.0315 0.6482
72.0910 12.0182 0.6484
72.1110 12.0048 0.6464
72.1310 11.9915 0.6475
72.1510 11.9782 0.6442
72.1710 11.9649 0.6472
72.1910 11.9515 0.6421
72.2110 11.9382 0.6462
72.2310 11.9249 0.6408
72.2510 11.9115 0.6442
72.2710 11.8982 0.6404
72.2910 11.8848 0.6423
72.3110 11.8715 0.6398
72.3310 11.8582 0.6406
72.3510 11.8448 0.6394
72.3710 11.8315 0.6375
72.3910 11.8181 0.6391
72.4110 11.8048 0.6365
72.4310 11.7915 0.6376
72.4510 11.7782 0.6351
72.4710 11.7648 0.6374
72.4910 11.7515 0.6328
72.5110 11.7382 0.6356
72.5310 11.7249 0.6317
72.5510 11.7115 0.6338
72.5710 11.6982 0.6317
72.5910 11.6849 0.6316
72.6110 11.6716 0.6295
72.6310 11.6582 0.6307
72.6510 11.6448 0.6291
72.6710 11.6315 0.6286
72.6910 11.6182 0.6273
72.7110 11.6049 0.6273
72.7310 11.5915 0.6259
72.7510 11.5781 0.6258
72.7710 11.5648 0.6253
72.7910 11.5515 0.6238
72.8110 11.5382 0.6245
72.8310 11.5249 0.6226
72.8510 11.5115 0.6221
72.8710 11.4982 0.6216
72.8910 11.4849 0.6208
72.9110 11.4715 0.6198
72.9310 11.4582 0.6201
72.9510 11.4449 0.6189
72.9710 11.4316 0.6185
72.9910 11.4182 0.6166
73.0110 11.4048 0.6178
73.0310 11.3915 0.6159
73.0510 11.3782 0.6153
73.0710 11.3648 0.6157
73.0910 11.3515 0.6121
73.1110 11.3381 0.6153
73.1310 11.3248 0.6115
73.1510 11.3115 0.6133
73.1710 11.2981 0.6103
73.1910 11.2848 0.6126
73.2110 11.2715 0.6087
73.2310 11.2582 0.6107
73.2510 11.2449 0.6080
73.2710 11.2316 0.6084
73.2910 11.2182 0.6069
73.3110 11.2049 0.6071
73.3310 11.1915 0.6057
73.3510 11.1782 0.6049
73.3710 11.1648 0.6061
73.3910 11.1515 0.6023
73.4110 11.1382 0.6049
73.4310 11.1248 0.6011
73.4510 11.1115 0.6033
73.4710 11.0981 0.6003
73.4910 11.0848 0.6019
73.5110 11.0715 0.5992
73.5310 11.0581 0.6004
73.5510 11.0448 0.5990
73.5710 11.0315 0.5984
73.5910 11.0182 0.5974
73.6110 11.0049 0.5970
73.6310 10.9916 0.5966
73.6510 10.9782 0.5951
73.6710 10.9649 0.5967
73.6910 10.9516 0.5925
73.7110 10.9382 0.5949
73.7310 10.9248 0.5918
73.7510 10.9115 0.5942
73.7710 10.8981 0.5898
73.7910 10.8848 0.5929
73.8110 10.8714 0.5889
73.8310 10.8581 0.5909
73.8510 10.8448 0.5883
73.8710 10.8315 0.5886
73.8910 10.8182 0.5880
73.9110 10.8049 0.5869
73.9310 10.7915 0.5870
73.9510 10.7782 0.5849
73.9710 10.7649 0.5866
73.9910 10.7516 0.5826
74.0110 10.7382 0.5849
74.0310 10.7249 0.5816
74.0510 10.7116 0.5832
74.0710 10.6982 0.5794
74.0910 10.6848 0.5834
74.1110 10.6714 0.5781
74.1310 10.6581 0.5810
74.1510 10.6448 0.5776
74.1710 10.6315 0.5789
74.1910 10.6181 0.5768
74.2110 10.6048 0.5771
74.2310 10.5915 0.5758
74.2510 10.5782 0.5748
74.2710 10.5648 0.5759
74.2910 10.5515 0.5731
74.3110 10.5382 0.5742
74.3310 10.5249 0.5720
74.3510 10.5116 0.5727
74.3710 10.4982 0.5703
74.3910 10.4848 0.5724
74.4110 10.4715 0.5681
74.4310 10.4582 0.5705
74.4510 10.4448 0.5674
74.4710 10.4315 0.5689
74.4910 10.4182 0.5666
74.5110 10.4048 0.5665
74.5310 10.3915 0.5659
74.5510 10.3781 0.5641
74.5710 10.3648 0.5662
74.5910 10.3515 0.5621
74.6110 10.3382 0.5648
74.6310 10.3248 0.5605
74.6510 10.3115 0.5641
74.6710 10.2982 0.5589
74.6910 10.2849 0.5625
74.7110 10.2716 0.5571
74.7310 10.2582 0.5609
74.7510 10.2448 0.5565
74.7710 10.2315 0.5586
74.7910 10.2182 0.5565
74.8110 10.2048 0.5555
74.8310 10.1915 0.5564
74.8510 10.1781 0.5531
74.8710 10.1648 0.5560
74.8910 10.1515 0.5519
74.9110 10.1381 0.5539
74.9310 10.1248 0.5514
74.9510 10.1115 0.5523
74.9710 10.0982 0.5487
74.9910 10.0848 0.5523
75.0110 10.0715 0.5475
75.0310 10.0582 0.5509
75.0510 10.0449 0.5467
75.0710 10.0315 0.5487
75.0910 10.0182 0.5447
75.1110 10.0049 0.5473
75.1310 9.9916 0.5445
75.1510 9.9782 0.5444
75.1710 9.9648 0.5448
75.1910 9.9515 0.5422
75.2110 9.9381 0.5433
75.2310 9.9248 0.5411
75.2510 9.9114 0.5424
75.2710 9.8981 0.5390
75.2910 9.8848 0.5417
75.3110 9.8715 0.5374
75.3310 9.8582 0.5400
75.3510 9.8448 0.5363
75.3710 9.8315 0.5387
75.3910 9.8182 0.5344
75.4110 9.8049 0.5373
75.4310 9.7916 0.5342
75.4510 9.7782 0.5345
75.4710 9.7649 0.5343
75.4910 9.7515 0.5324
75.5110 9.7382 0.5330
75.5310 9.7248 0.5304
75.5510 9.7114 0.5328
75.5710 9.6981 0.5281
75.5910 9.6848 0.5312
75.6110 9.6715 0.5273
75.6310 9.6581 0.5301
75.6510 9.6448 0.5262
75.6710 9.6315 0.5282
75.6910 9.6182 0.5244
75.7110 9.6048 0.5271
75.7310 9.5915 0.5240
75.7510 9.5782 0.5242
75.7710 9.5649 0.5235
75.7910 9.5516 0.5228
75.8110 9.5382 0.5218
75.8310 9.5249 0.5205
75.8510 9.5115 0.5215
75.8710 9.4982 0.5183
75.8910 9.4848 0.5203
75.9110 9.4714 0.5176
75.9310 9.4581 0.5186
75.9510 9.4448 0.5161
75.9710 9.4315 0.5178
75.9910 9.4181 0.5140
76.0110 9.4048 0.5167
76.0310 9.3915 0.5132
76.0510 9.3782 0.5132
76.0710 9.3649 0.5129
76.0910 9.3515 0.5123
76.1110 9.3382 0.5120
76.1310 9.3249 0.5104
76.1510 9.3116 0.5109
76.1710 9.2982 0.5078
76.1910 9.2848 0.5102
76.2110 9.2715 0.5066
76.2310 9.2582 0.5080
76.2510 9.2448 0.5058
76.2710 9.2315 0.5067
76.2910 9.2181 0.5042
76.3110 9.2048 0.5056
76.3310 9.1915 0.5026
76.3510 9.1781 0.5037
76.3710 9.1648 0.5016
76.3910 9.1515 0.5024
76.4110 9.1382 0.5004
76.4310 9.1248 0.5011
76.4510 9.1115 0.5002
76.4710 9.0982 0.4982
76.4910 9.0849 0.4994
76.5110 9.0715 0.4964
76.5310 9.0582 0.4979
76.5510 9.0448 0.4948
76.5710 9.0315 0.4972
76.5910 9.0182 0.4924
76.6110 9.0048 0.4963
76.6310 8.9915 0.4922
76.6510 8.9781 0.4944
76.6710 8.9648 0.4910
76.6910 8.9515 0.4929
76.7110 8.9381 0.4893
76.7310 8.9248 0.4909
76.7510 8.9115 0.4894
76.7710 8.8982 0.4882
76.7910 8.8848 0.4888
76.8110 8.8715 0.4867
76.8310 8.8582 0.4873
76.8510 8.8449 0.4850
76.8710 8.8315 0.4865
76.8910 8.8182 0.4828
76.9110 8.8048 0.4845
76.9310 8.7915 0.4821
76.9510 8.7782 0.4824
76.9710 8.7649 0.4816
76.9910 8.7515 0.4821
77.0110 8.7382 0.4796
77.0310 8.7248 0.4816
77.0510 8.7115 0.4833
77.0710 8.6981 0.4832
77.0910 8.6848 0.4835
77.1110 8.6715 0.4814
77.1310 8.6582 0.4807
77.1510 8.6448 0.4793
77.1710 8.6315 0.4797
77.1910 8.6182 0.4769
77.2110 8.6049 0.4781
77.2310 8.5916 0.4753
77.2510 8.5782 0.4759
77.2710 8.5648 0.4739
77.2910 8.5515 0.4750
77.3110 8.5382 0.4711
77.3310 8.5248 0.4724
77.3510 8.5115 0.4707
77.3710 8.4981 0.4703
77.3910 8.4848 0.4699
77.4110 8.4715 0.4685
77.4310 8.4581 0.4682
77.4510 8.4448 0.4658
77.4710 8.4315 0.4677
77.4910 8.4182 0.4634
77.5110 8.4049 0.4657
77.5310 8.3915 0.4627
77.5510 8.3782 0.4630
77.5710 8.3649 0.4606
77.5910 8.3516 0.4624
77.6110 8.3382 0.4588
77.6310 8.3249 0.4600
77.6510 8.3115 0.4579
77.6710 8.2982 0.4565
77.6910 8.2848 0.4575
77.7110 8.2715 0.4556
77.7310 8.2581 0.4564
77.7510 8.2448 0.4531
77.7710 8.2315 0.4559
77.7910 8.2182 0.4514
77.8110 8.2048 0.4549
77.8310 8.1915 0.4507
77.8510 8.1782 0.4520
77.8710 8.1649 0.4485
77.8910 8.1515 0.4508
77.9110 8.1382 0.4475
77.9310 8.1249 0.4480
77.9510 8.1116 0.4473
77.9710 8.0982 0.4453
77.9910 8.0848 0.4464
78.0110 8.0715 0.4441
78.0310 8.0582 0.4439
78.0510 8.0449 0.4413
78.0710 8.0315 0.4445
78.0910 8.0181 0.4402
78.1110 8.0048 0.4420
78.1310 7.9915 0.4392
78.1510 7.9781 0.4403
78.1710 7.9648 0.4384
78.1910 7.9515 0.4390
78.2110 7.9382 0.4366
78.2310 7.9249 0.4368
78.2510 7.9115 0.4357
78.2710 7.8982 0.4356
78.2910 7.8849 0.4346
78.3110 7.8716 0.4335
78.3310 7.8582 0.4331
78.3510 7.8448 0.4313
78.3710 7.8315 0.4321
78.3910 7.8182 0.4290
78.4110 7.8049 0.4304
78.4310 7.7915 0.4276
78.4510 7.7782 0.4288
78.4710 7.7648 0.4257
78.4910 7.7515 0.4273
78.5110 7.7382 0.4244
78.5310 7.7248 0.4254
78.5510 7.7115 0.4244
78.5710 7.6982 0.4225
78.5910 7.6848 0.4229
78.6110 7.6715 0.4212
78.6310 7.6582 0.4221
78.6510 7.6449 0.4183
78.6710 7.6316 0.4211
78.6910 7.6182 0.4160
78.7110 7.6049 0.4194
78.7310 7.5915 0.4155
78.7510 7.5782 0.4176
78.7710 7.5649 0.4133
78.7910 7.5515 0.4155
78.8110 7.5381 0.4128
78.8310 7.5248 0.4125
78.8510 7.5115 0.4124
78.8710 7.4981 0.4103
78.8910 7.4848 0.4112
78.9110 7.4715 0.4086
78.9310 7.4581 0.4100
78.9510 7.4448 0.4063
78.9710 7.4315 0.4090
78.9910 7.4181 0.4053
79.0110 7.4049 0.4066
79.0310 7.3916 0.4037
79.0510 7.3782 0.4053
79.0710 7.3649 0.4023
79.0910 7.3515 0.4040
79.1110 7.3382 0.4009
79.1310 7.3249 0.4004
79.1510 7.3115 0.4006
79.1710 7.2981 0.3991
79.1910 7.2848 0.3993
79.2110 7.2714 0.3967
79.2310 7.2581 0.3980
79.2510 7.2448 0.3947
79.2710 7.2315 0.3970
79.2910 7.2182 0.3931
79.3110 7.2048 0.3954
79.3310 7.1915 0.3920
79.3510 7.1782 0.3942
79.3710 7.1649 0.3901
79.3910 7.1516 0.3927
79.4110 7.1382 0.3891
79.4310 7.1249 0.3905
79.4510 7.1115 0.3888
79.4710 7.0982 0.3879
79.4910 7.0849 0.3872
79.5110 7.0715 0.3858
79.5310 7.0581 0.3872
79.5510 7.0448 0.3838
79.5710 7.0315 0.3861
79.5910 7.0181 0.3821
79.6110 7.0048 0.3836
79.6310 6.9915 0.3812
79.6510 6.9782 0.3831
79.6710 6.9649 0.3771
79.6910 6.9515 0.3818
79.7110 6.9382 0.3768
79.7310 6.9249 0.3784
79.7510 6.9116 0.3768
79.7710 6.8982 0.3770
79.7910 6.8849 0.3755
79.8110 6.8716 0.3742
79.8310 6.8583 0.3749
79.8510 6.8449 0.3713
79.8710 6.8315 0.3739
79.8910 6.8181 0.3699
79.9110 6.8048 0.3720
79.9310 6.7915 0.3682
79.9510 6.7782 0.3710
79.9710 6.7648 0.3663
79.9910 6.7515 0.3700
80.0110 6.7382 0.3654
80.0310 6.7249 0.3666
80.0510 6.7115 0.3654
80.0710 6.6982 0.3641
80.0910 6.6849 0.3641
80.1110 6.6715 0.3616
80.1310 6.6582 0.3641
80.1510 6.6448 0.3589
80.1710 6.6315 0.3625
80.1910 6.6182 0.3585
80.2110 6.6049 0.3598
80.2310 6.5915 0.3566
80.2510 6.5782 0.3589
80.2710 6.5648 0.3542
80.2910 6.5515 0.3572
80.3110 6.5381 0.3545
80.3310 6.5248 0.3541
80.3510 6.5114 0.3539
80.3710 6.4981 0.3524
80.3910 6.4848 0.3518
80.4110 6.4715 0.3504
80.4310 6.4581 0.3522
80.4510 6.4449 0.3470
80.4710 6.4316 0.3503
80.4910 6.4182 0.3465
80.5110 6.4049 0.3479
80.5310 6.3915 0.3446
80.5510 6.3782 0.3471
80.5710 6.3649 0.3422
80.5910 6.3515 0.3447
80.6110 6.3382 0.3421
80.6310 6.3248 0.3423
80.6510 6.3115 0.3414
80.6710 6.2982 0.3409
80.6910 6.2848 0.3402
80.7110 6.2714 0.3397
80.7310 6.2581 0.3393
80.7510 6.2448 0.3368
80.7710 6.2315 0.3384
80.7910 6.2181 0.3350
80.8110 6.2049 0.3363
80.8310 6.1916 0.3330
80.8510 6.1783 0.3352
80.8710 6.1649 0.3308
80.8910 6.1515 0.3336
80.9110 6.1382 0.3300
80.9310 6.1249 0.3305
80.9510 6.1116 0.3291
80.9710 6.0982 0.3294
80.9910 6.0848 0.3272
81.0110 6.0715 0.3269
81.0310 6.0581 0.3275
81.0510 6.0448 0.3239
81.0710 6.0314 0.3273
81.0910 6.0182 0.3227
81.1110 6.0049 0.3252
81.1310 5.9915 0.3209
81.1510 5.9782 0.3247
81.1710 5.9649 0.3190
81.1910 5.9516 0.3221
81.2110 5.9383 0.3181
81.2310 5.9249 0.3190
81.2510 5.9115 0.3173
81.2710 5.8982 0.3179
81.2910 5.8849 0.3148
81.3110 5.8715 0.3154
81.3310 5.8581 0.3150
81.3510 5.8448 0.3130
81.3710 5.8315 0.3134
81.3910 5.8181 0.3122
81.4110 5.8048 0.3125
81.4310 5.7914 0.3101
81.4510 5.7781 0.3114
81.4710 5.7648 0.3075
81.4910 5.7515 0.3098
81.5110 5.7382 0.3072
81.5310 5.7249 0.3068
81.5510 5.7116 0.3054
81.5710 5.6983 0.3059
81.5910 5.6849 0.3032
81.6110 5.6715 0.3047
81.6310 5.6581 0.3028
81.6510 5.6448 0.3016
81.6710 5.6315 0.3002
81.6910 5.6181 0.3005
81.7110 5.6048 0.2998
81.7310 5.5915 0.2976
81.7510 5.5782 0.2998
81.7710 5.5648 0.2951
81.7910 5.5515 0.2977
81.8110 5.5382 0.2945
81.8310 5.5249 0.2947
81.8510 5.5115 0.2927
81.8710 5.4982 0.2942
81.8910 5.4849 0.2905
81.9110 5.4716 0.2922
81.9310 5.4583 0.2904
81.9510 5.4449 0.2896
81.9710 5.4315 0.2893
81.9910 5.4182 0.2879
82.0110 5.4049 0.2877
82.0310 5.3915 0.2851
82.0510 5.3781 0.2881
82.0710 5.3648 0.2824
82.0910 5.3515 0.2863
82.1110 5.3382 0.2820
82.1310 5.3248 0.2833
82.1510 5.3115 0.2804
82.1710 5.2981 0.2817
82.1910 5.2848 0.2787
82.2110 5.2715 0.2796
82.2310 5.2582 0.2785
82.2510 5.2449 0.2774
82.2710 5.2316 0.2761
82.2910 5.2182 0.2764
82.3110 5.2049 0.2763
82.3310 5.1915 0.2739
82.3510 5.1782 0.2758
82.3710 5.1649 0.2707
82.3910 5.1515 0.2732
82.4110 5.1382 0.2704
82.4310 5.1248 0.2710
82.4510 5.1115 0.2685
82.4710 5.0981 0.2694
82.4910 5.0848 0.2670
82.5110 5.0714 0.2665
82.5310 5.0581 0.2667
82.5510 5.0448 0.2652
82.5710 5.0315 0.2656
82.5910 5.0182 0.2644
82.6110 5.0049 0.2643
82.6310 4.9916 0.2615
82.6510 4.9783 0.2635
82.6710 4.9649 0.2595
82.6910 4.9515 0.2614
82.7110 4.9382 0.2579
82.7310 4.9249 0.2590
82.7510 4.9115 0.2558
82.7710 4.8981 0.2579
82.7910 4.8848 0.2550
82.8110 4.8715 0.2555
82.8310 4.8581 0.2547
82.8510 4.8448 0.2538
82.8710 4.8314 0.2539
82.8910 4.8181 0.2526
82.9110 4.8048 0.2520
82.9310 4.7915 0.2499
82.9510 4.7782 0.2514
82.9710 4.7648 0.2475
82.9910 4.7516 0.2497
83.0110 4.7383 0.2471
83.0310 4.7249 0.2480
83.0510 4.7115 0.2446
83.0710 4.6982 0.2466
83.0910 4.6849 0.2427
83.1110 4.6715 0.2440
83.1310 4.6581 0.2420
83.1510 4.6448 0.2419
83.1710 4.6314 0.2411
83.1910 4.6181 0.2400
83.2110 4.6048 0.2411
83.2310 4.5914 0.2381
83.2510 4.5782 0.2401
83.2710 4.5649 0.2361
83.2910 4.5515 0.2371
83.3110 4.5382 0.2349
83.3310 4.5249 0.2352
83.3510 4.5116 0.2332
83.3710 4.4983 0.2327
83.3910 4.4849 0.2323
83.4110 4.4715 0.2300
83.4310 4.4582 0.2322
83.4510 4.4449 0.2286
83.4710 4.4315 0.2316
83.4910 4.4181 0.2275
83.5110 4.4048 0.2303
83.5310 4.3915 0.2250
83.5510 4.3782 0.2285
83.5710 4.3648 0.2239
83.5910 4.3515 0.2251
83.6110 4.3381 0.2228
83.6310 4.3248 0.2235
83.6510 4.3115 0.2209
83.6710 4.2982 0.2230
83.6910 4.2848 0.2201
83.7110 4.2715 0.2198
83.7310 4.2582 0.2192
83.7510 4.2449 0.2173
83.7710 4.2315 0.2172
83.7910 4.2182 0.2152
83.8110 4.2049 0.2160
83.8310 4.1915 0.2137
83.8510 4.1781 0.2157
83.8710 4.1648 0.2137
83.8910 4.1515 0.2123
83.9110 4.1382 0.2119
83.9310 4.1248 0.2106
83.9510 4.1115 0.2097
83.9710 4.0981 0.2099
83.9910 4.0848 0.2080
84.0110 4.0715 0.2075
84.0310 4.0581 0.2069
84.0510 4.0448 0.2059
84.0710 4.0315 0.2048
84.0910 4.0182 0.2040
84.1110 4.0049 0.2051
84.1310 3.9915 0.2009
84.1510 3.9782 0.2045
84.1710 3.9649 0.1997
84.1910 3.9515 0.2014
84.2110 3.9382 0.1984
84.2310 3.9248 0.2006
84.2510 3.9115 0.1967
84.2710 3.8982 0.1984
84.2910 3.8848 0.1955
84.3110 3.8715 0.1957
84.3310 3.8581 0.1950
84.3510 3.8449 0.1933
84.3710 3.8315 0.1930
84.3910 3.8182 0.1914
84.4110 3.8048 0.1948
84.4310 3.7915 0.1883
84.4510 3.7782 0.1933
84.4710 3.7649 0.1872
84.4910 3.7515 0.1896
84.5110 3.7382 0.1867
84.5310 3.7249 0.1874
84.5510 3.7115 0.1852
84.5710 3.6982 0.1858
84.5910 3.6848 0.1841
84.6110 3.6714 0.1820
84.6310 3.6581 0.1830
84.6510 3.6448 0.1805
84.6710 3.6315 0.1816
84.6910 3.6181 0.1801
84.7110 3.6048 0.1813
84.7310 3.5915 0.1768
84.7510 3.5782 0.1799
84.7710 3.5649 0.1761
84.7910 3.5516 0.1769
84.8110 3.5383 0.1751
84.8310 3.5249 0.1753
84.8510 3.5115 0.1736
84.8710 3.4982 0.1738
84.8910 3.4849 0.1718
84.9110 3.4715 0.1709
84.9310 3.4581 0.1698
84.9510 3.4448 0.1699
84.9710 3.4315 0.1681
84.9910 3.4182 0.1669
85.0110 3.4048 0.1684
85.0310 3.3915 0.1651
85.0510 3.3781 0.1677
85.0710 3.3648 0.1635
85.0910 3.3515 0.1656
85.1110 3.3382 0.1615
85.1310 3.3248 0.1642
85.1510 3.3115 0.1591
85.1710 3.2982 0.1619
85.1910 3.2849 0.1590
85.2110 3.2715 0.1601
85.2310 3.2582 0.1570
85.2510 3.2449 0.1584
85.2710 3.2315 0.1552
85.2910 3.2182 0.1551
85.3110 3.2048 0.1551
85.3310 3.1915 0.1516
85.3510 3.1782 0.1537
85.3710 3.1648 0.1507
85.3910 3.1515 0.1534
85.4110 3.1381 0.1500
85.4310 3.1248 0.1522
85.4510 3.1115 0.1474
85.4710 3.0982 0.1501
85.4910 3.0849 0.1471
85.5110 3.0715 0.1469
85.5310 3.0582 0.1457
85.5510 3.0449 0.1443
85.5710 3.0315 0.1444
85.5910 3.0182 0.1425
85.6110 3.0048 0.1446
85.6310 2.9915 0.1400
85.6510 2.9782 0.1428
85.6710 2.9648 0.1395
85.6910 2.9515 0.1403
85.7110 2.9382 0.1371
85.7310 2.9249 0.1391
85.7510 2.9115 0.1357
85.7710 2.8981 0.1363
85.7910 2.8848 0.1350
85.8110 2.8715 0.1343
85.8310 2.8582 0.1343
85.8510 2.8448 0.1329
85.8710 2.8315 0.1322
85.8910 2.8182 0.1316
85.9110 2.8049 0.1315
85.9310 2.7916 0.1287
85.9510 2.7782 0.1294
85.9710 2.7649 0.1276
85.9910 2.7515 0.1271
86.0110 2.7382 0.1245
86.0310 2.7248 0.1265
86.0510 2.7115 0.1221
86.0710 2.6982 0.1258
86.0910 2.6848 0.1214
86.1110 2.6714 0.1228
86.1310 2.6581 0.1197
86.1510 2.6448 0.1204
86.1710 2.6315 0.1183
86.1910 2.6182 0.1180
86.2110 2.6048 0.1185
86.2310 2.5915 0.1163
86.2510 2.5782 0.1176
86.2710 2.5649 0.1152
86.2910 2.5515 0.1160
86.3110 2.5382 0.1124
86.3310 2.5248 0.1151
86.3510 2.5115 0.1092
86.3710 2.4982 0.1126
86.3910 2.4848 0.1083
86.4110 2.4715 0.1103
86.4310 2.4581 0.1071
86.4510 2.4448 0.1074
86.4710 2.4314 0.1060
86.4910 2.4181 0.1046
86.5110 2.4048 0.1063
86.5310 2.3915 0.1020
86.5510 2.3782 0.1045
86.5710 2.3648 0.1011
86.5910 2.3515 0.1024
86.6110 2.3383 0.0992
86.6310 2.3249 0.1018
86.6510 2.3116 0.0967
86.6710 2.2982 0.0989
86.6910 2.2848 0.0958
86.7110 2.2715 0.0957
86.7310 2.2582 0.0946
86.7510 2.2448 0.0942
86.7710 2.2315 0.0946
86.7910 2.2182 0.0912
86.8110 2.2048 0.0939
86.8310 2.1915 0.0891
86.8510 2.1781 0.0915
86.8710 2.1648 0.0874
86.8910 2.1515 0.0891
86.9110 2.1382 0.0852
86.9310 2.1248 0.0880
86.9510 2.1115 0.0837
86.9710 2.0982 0.0858
86.9910 2.0849 0.0832
87.0110 2.0715 0.0851
87.0310 2.0582 0.0815
87.0510 2.0449 0.0832
87.0710 2.0315 0.0799
87.0910 2.0182 0.0790
87.1110 2.0048 0.0795
87.1310 1.9915 0.0779
87.1510 1.9782 0.0769
87.1710 1.9649 0.0760
87.1910 1.9515 0.0750
87.2110 1.9381 0.0726
87.2310 1.9248 0.0749
87.2510 1.9115 0.0704
87.2710 1.8982 0.0723
87.2910 1.8848 0.0700
87.3110 1.8715 0.0716
87.3310 1.8582 0.0668
87.3510 1.8449 0.0692
87.3710 1.8315 0.0661
87.3910 1.8182 0.0656
87.4110 1.8049 0.0663
87.4310 1.7916 0.0625
87.4510 1.7782 0.0651
87.4710 1.7648 0.0607
87.4910 1.7515 0.0631
87.5110 1.7382 0.0573
87.5310 1.7248 0.0615
87.5510 1.7115 0.0560
87.5710 1.6981 0.0591
87.5910 1.6848 0.0562
87.6110 1.6715 0.0570
87.6310 1.6582 0.0534
87.6510 1.6448 0.0543
87.6710 1.6315 0.0529
87.6910 1.6182 0.0516
87.7110 1.6049 0.0512
87.7310 1.5916 0.0486
87.7510 1.5782 0.0495
87.7710 1.5649 0.0471
87.7910 1.5515 0.0475
87.8110 1.5382 0.0441
87.8310 1.5248 0.0456
87.8510 1.5115 0.0427
87.8710 1.4982 0.0425
87.8910 1.4849 0.0413
87.9110 1.4715 0.0409
87.9310 1.4581 0.0391
87.9510 1.4448 0.0390
87.9710 1.4315 0.0377
87.9910 1.4181 0.0368
88.0110 1.4048 0.0365
88.0310 1.3915 0.0350
88.0510 1.3782 0.0336
88.0710 1.3649 0.0324
88.0910 1.3516 0.0319
88.1110 1.3382 0.0295
88.1310 1.3249 0.0306
88.1510 1.3116 0.0276
88.1710 1.2982 0.0285
88.1910 1.2848 0.0256
88.2110 1.2715 0.0263
88.2310 1.2582 0.0234
88.2510 1.2448 0.0241
88.2710 1.2315 0.0217
88.2910 1.2181 0.0213
88.3110 1.2048 0.0207
88.3310 1.1915 0.0199
88.3510 1.1782 0.0177
88.3710 1.1649 0.0181
88.3910 1.1515 0.0176
88.4110 1.1382 0.0140
88.4310 1.1249 0.0164
88.4510 1.1116 0.0118
88.4710 1.0982 0.0139
88.4910 1.0848 0.0095
88.5110 1.0715 0.0122
88.5310 1.0582 0.0068
88.5510 1.0448 0.0101
88.5710 1.0314 0.0059
88.5910 1.0181 0.0065
88.6110 1.0048 0.0053
88.6310 0.9915 0.0044
88.6510 0.9781 0.0030
88.6710 0.9648 0.0022
88.6910 0.9515 0.0024
88.7110 0.9382 -0.0010
88.7310 0.9248 0.0027
88.7510 0.9115 -0.0005
88.7710 0.8982 0.0015
88.7910 0.8849 -0.0014
88.8110 0.8716 -0.0002
88.8310 0.8582 -0.0039
88.8510 0.8448 -0.0020
88.8710 0.8315 -0.0050
88.8910 0.8182 -0.0050
88.9110 0.8048 -0.0069
88.9310 0.7914 -0.0071
88.9510 0.7781 -0.0093
88.9710 0.7648 -0.0095
88.9910 0.7515 -0.0100
89.0110 0.7381 -0.0135
89.0310 0.7248 -0.0116
89.0510 0.7115 -0.0155
89.0710 0.6982 -0.0134
89.0910 0.6848 -0.0180
89.1110 0.6715 -0.0148
89.1310 0.6582 -0.0207
89.1510 0.6449 -0.0180
89.1710 0.6316 -0.0208
89.1910 0.6182 -0.0211
89.2110 0.6048 -0.0229
89.2310 0.5915 -0.0221
89.2510 0.5782 -0.0255
89.2710 0.5648 -0.0241
89.2910 0.5514 -0.0257
89.3110 0.5381 -0.0268
89.3310 0.5248 -0.0271
89.3510 0.5115 -0.0288
89.3710 0.4981 -0.0284
89.3910 0.4848 -0.0307
89.4110 0.4715 -0.0286
89.4310 0.4582 -0.0333
89.4510 0.4448 -0.0301
89.4710 0.4315 -0.0339
89.4910 0.4182 -0.0322
89.5110 0.4049 -0.0342
89.5310 0.3916 -0.0330
89.5510 0.3782 -0.0357
89.5710 0.3649 -0.0335
89.5910 0.3516 -0.0334
89.6110 0.3382 -0.0343
89.6310 0.3248 -0.0332
89.6510 0.3115 -0.0349
89.6710 0.2981 -0.0321
89.6910 0.2848 -0.0364
89.7110 0.2715 -0.0311
89.7310 0.2581 -0.0367
89.7510 0.2447 -0.0314
89.7710 0.2315 -0.0356
89.7910 0.2182 -0.0332
89.8110 0.2048 -0.0345
89.8310 0.1915 -0.0329
89.8510 0.1782 -0.0343
89.8710 0.1649 -0.0345
89.8910 0.1516 -0.0326
89.9110 0.1382 -0.0352
89.9310 0.1248 -0.0323
89.9510 0.1115 -0.0349
89.9710 0.0982 -0.0327
89.9910 0.0848 -0.0356
90.0110 0.0715 -0.0317
90.0310 0.0581 -0.0361
90.0510 0.0448 -0.0322
90.0710 0.0315 -0.0352
90.0910 0.0181 -0.0334
90.1110 0.0048 -0.0336
90.1190 -0.0004 -0.0309
