Raw Data
Time Displacement Force
(s) (mm) (N)
0.0000 0.0000 -0.0004
0.0200 0.0001 0.0034
0.0400 0.0020 0.0138
0.0600 0.0095 0.0130
0.0800 0.0211 0.0053
0.1000 0.0335 0.0112
0.1200 0.0461 0.0117
0.1400 0.0595 0.0184
0.1600 0.0737 0.0182
0.1800 0.0880 0.0212
0.2000 0.1019 0.0235
0.2200 0.1156 0.0253
0.2400 0.1290 0.0291
0.2600 0.1423 0.0319
0.2800 0.1555 0.0354
0.3000 0.1688 0.0364
0.3200 0.1822 0.0424
0.3400 0.1956 0.0415
0.3600 0.2089 0.0471
0.3800 0.2222 0.0462
0.4000 0.2355 0.0527
0.4200 0.2489 0.0496
0.4400 0.2622 0.0566
0.4600 0.2756 0.0559
0.4800 0.2889 0.0613
0.5000 0.3023 0.0622
0.5200 0.3157 0.0656
0.5400 0.3290 0.0663
0.5600 0.3423 0.0704
0.5800 0.3556 0.0721
0.6000 0.3690 0.0734
0.6200 0.3823 0.0783
0.6400 0.3956 0.0776
0.6600 0.4089 0.0830
0.6800 0.4222 0.0825
0.7000 0.4355 0.0883
0.7200 0.4488 0.0857
0.7400 0.4622 0.0931
0.7600 0.4755 0.0911
0.7800 0.4889 0.0956
0.8000 0.5023 0.0971
0.8200 0.5156 0.0995
0.8400 0.5290 0.1014
0.8600 0.5424 0.1041
0.8800 0.5557 0.1067
0.9000 0.5690 0.1071
0.9200 0.5823 0.1113
0.9400 0.5956 0.1118
0.9600 0.6090 0.1150
0.9800 0.6223 0.1162
1.0000 0.6356 0.1196
1.0200 0.6489 0.1199
1.0400 0.6622 0.1243
1.0600 0.6756 0.1248
1.0800 0.6889 0.1273
1.1000 0.7022 0.1288
1.1200 0.7155 0.1322
1.1400 0.7289 0.1326
1.1600 0.7422 0.1359
1.1800 0.7556 0.1371
1.2000 0.7689 0.1398
1.2200 0.7823 0.1418
1.2400 0.7956 0.1434
1.2600 0.8090 0.1464
1.2800 0.8223 0.1473
1.3000 0.8356 0.1509
1.3200 0.8490 0.1506
1.3400 0.8623 0.1549
1.3600 0.8756 0.1547
1.3800 0.8890 0.1586
1.4000 0.9023 0.1592
1.4200 0.9157 0.1631
1.4400 0.9290 0.1624
1.4600 0.9422 0.1668
1.4800 0.9555 0.1670
1.5000 0.9689 0.1699
1.5200 0.9822 0.1718
1.5400 0.9955 0.1732
1.5600 1.0089 0.1751
1.5800 1.0222 0.1771
1.6000 1.0356 0.1799
1.6200 1.0490 0.1804
1.6400 1.0623 0.1843
1.6600 1.0757 0.1839
1.6800 1.0890 0.1880
1.7000 1.1024 0.1877
1.7200 1.1157 0.1929
1.7400 1.1289 0.1907
1.7600 1.1423 0.1966
1.7800 1.1556 0.1952
1.8000 1.1689 0.1987
1.8200 1.1822 0.2007
1.8400 1.1955 0.2021
1.8600 1.2089 0.2039
1.8800 1.2222 0.2049
1.9000 1.2356 0.2088
1.9200 1.2489 0.2083
1.9400 1.2623 0.2124
1.9600 1.2757 0.2123
1.9800 1.2890 0.2157
2.0000 1.3023 0.2154
2.0200 1.3157 0.2201
2.0400 1.3290 0.2188
2.0600 1.3423 0.2232
2.0800 1.3556 0.2240
2.1000 1.3689 0.2258
2.1200 1.3823 0.2283
2.1400 1.3956 0.2299
2.1600 1.4089 0.2309
2.1800 1.4222 0.2331
2.2000 1.4355 0.2353
2.2200 1.4489 0.2364
2.2400 1.4622 0.2386
2.2600 1.4756 0.2405
2.2800 1.4889 0.2420
2.3000 1.5023 0.2438
2.3200 1.5157 0.2467
2.3400 1.5290 0.2456
2.3600 1.5424 0.2505
2.3800 1.5557 0.2495
2.4000 1.5690 0.2534
2.4200 1.5824 0.2526
2.4400 1.5956 0.2573
2.4600 1.6089 0.2566
2.4800 1.6222 0.2598
2.5000 1.6355 0.2612
2.5200 1.6489 0.2629
2.5400 1.6622 0.2640
2.5600 1.6755 0.2665
2.5800 1.6888 0.2676
2.6000 1.7022 0.2691
2.6200 1.7156 0.2728
2.6400 1.7289 0.2712
2.6600 1.7423 0.2763
2.6800 1.7557 0.2750
2.7000 1.7690 0.2791
2.7200 1.7823 0.2784
2.7400 1.7956 0.2834
2.7600 1.8090 0.2818
2.7800 1.8223 0.2858
2.8000 1.8356 0.2861
2.8200 1.8489 0.2888
2.8400 1.8622 0.2890
2.8600 1.8756 0.2920
2.8800 1.8889 0.2929
2.9000 1.9022 0.2941
2.9200 1.9156 0.2981
2.9400 1.9289 0.2967
2.9600 1.9423 0.3007
2.9800 1.9556 0.3002
3.0000 1.9689 0.3045
3.0200 1.9823 0.3027
3.0400 1.9956 0.3077
3.0600 2.0090 0.3063
3.0800 2.0222 0.3106
3.1000 2.0355 0.3104
3.1200 2.0489 0.3134
3.1400 2.0623 0.3131
3.1600 2.0757 0.3170
3.1800 2.0889 0.3164
3.2000 2.1022 0.3189
3.2200 2.1156 0.3208
3.2400 2.1290 0.3214
3.2600 2.1423 0.3241
3.2800 2.1556 0.3248
3.3000 2.1689 0.3280
3.3200 2.1823 0.3267
3.3400 2.1956 0.3320
3.3600 2.2089 0.3289
3.3800 2.2222 0.3347
3.4000 2.2356 0.3334
3.4200 2.2490 0.3377
3.4400 2.2623 0.3359
3.4600 2.2756 0.3413
3.4800 2.2890 0.3396
3.5000 2.3023 0.3431
3.5200 2.3156 0.3442
3.5400 2.3289 0.3457
3.5600 2.3422 0.3473
3.5800 2.3556 0.3486
3.6000 2.3690 0.3510
3.6200 2.3822 0.3508
3.6400 2.3955 0.3556
3.6600 2.4089 0.3534
3.6800 2.4222 0.3582
3.7000 2.4355 0.3571
3.7200 2.4489 0.3615
3.7400 2.4622 0.3596
3.7600 2.4756 0.3645
3.7800 2.4890 0.3630
3.8000 2.5024 0.3668
3.8200 2.5157 0.3666
3.8400 2.5290 0.3695
3.8600 2.5424 0.3690
3.8800 2.5556 0.3726
3.9000 2.5689 0.3737
3.9200 2.5822 0.3744
3.9400 2.5956 0.3771
3.9600 2.6089 0.3771
3.9800 2.6222 0.3801
4.0000 2.6355 0.3804
4.0200 2.6489 0.3835
4.0400 2.6623 0.3820
4.0600 2.6756 0.3866
4.0800 2.6889 0.3863
4.1000 2.7023 0.3890
4.1200 2.7157 0.3893
4.1400 2.7290 0.3918
4.1600 2.7423 0.3918
4.1800 2.7556 0.3951
4.2000 2.7690 0.3954
4.2200 2.7823 0.3971
4.2400 2.7956 0.3989
4.2600 2.8089 0.3995
4.2800 2.8222 0.4018
4.3000 2.8356 0.4031
4.3200 2.8489 0.4048
4.3400 2.8623 0.4049
4.3600 2.8756 0.4090
4.3800 2.8889 0.4074
4.4000 2.9022 0.4109
4.4200 2.9156 0.4106
4.4400 2.9289 0.4145
4.4600 2.9423 0.4129
4.4800 2.9556 0.4175
4.5000 2.9690 0.4158
4.5200 2.9823 0.4201
4.5400 2.9956 0.4202
4.5600 3.0089 0.4217
4.5800 3.0223 0.4230
4.6000 3.0356 0.4240
4.6200 3.0489 0.4276
4.6400 3.0623 0.4259
4.6600 3.0756 0.4308
4.6800 3.0889 0.4287
4.7000 3.1022 0.4325
4.7200 3.1155 0.4327
4.7400 3.1289 0.4362
4.7600 3.1423 0.4341
4.7800 3.1556 0.4388
4.8000 3.1689 0.4376
4.8200 3.1823 0.4412
4.8400 3.1956 0.4409
4.8600 3.2090 0.4435
4.8800 3.2223 0.4430
4.9000 3.2356 0.4469
4.9200 3.2489 0.4472
4.9400 3.2623 0.4477
4.9600 3.2756 0.4513
4.9800 3.2889 0.4508
5.0000 3.3022 0.4540
5.0200 3.3156 0.4538
5.0400 3.3289 0.4567
5.0600 3.3423 0.4554
5.0800 3.3556 0.4598
5.1000 3.3689 0.4589
5.1200 3.3822 0.4624
5.1400 3.3956 0.4616
5.1600 3.4089 0.4651
5.1800 3.4222 0.4637
5.2000 3.4356 0.4677
5.2200 3.4490 0.4686
5.2400 3.4623 0.4683
5.2600 3.4756 0.4715
5.2800 3.4890 0.4713
5.3000 3.5023 0.4736
5.3200 3.5157 0.4740
5.3400 3.5290 0.4776
5.3600 3.5423 0.4757
5.3800 3.5556 0.4804
5.4000 3.5690 0.4783
5.4200 3.5823 0.4828
5.4400 3.5956 0.4815
5.4600 3.6089 0.4863
5.4800 3.6222 0.4827
5.5000 3.6355 0.4888
5.5200 3.6488 0.4872
5.5400 3.6622 0.4903
5.5600 3.6756 0.4900
5.5800 3.6890 0.4923
5.6000 3.7023 0.4930
5.6200 3.7156 0.4950
5.6400 3.7290 0.4965
5.6600 3.7424 0.4958
5.6800 3.7557 0.5001
5.7000 3.7690 0.4987
5.7200 3.7823 0.5026
5.7400 3.7956 0.5017
5.7600 3.8089 0.5048
5.7800 3.8222 0.5036
5.8000 3.8355 0.5082
5.8200 3.8489 0.5072
5.8400 3.8622 0.5093
5.8600 3.8756 0.5101
5.8800 3.8889 0.5120
5.9000 3.9022 0.5122
5.9200 3.9156 0.5147
5.9400 3.9290 0.5156
5.9600 3.9423 0.5155
5.9800 3.9556 0.5190
6.0000 3.9690 0.5189
6.0200 3.9823 0.5214
6.0400 3.9957 0.5212
6.0600 4.0089 0.5241
6.0800 4.0222 0.5234
6.1000 4.0355 0.5274
6.1200 4.0489 0.5259
6.1400 4.0622 0.5296
6.1600 4.0755 0.5293
6.1800 4.0889 0.5317
6.2000 4.1022 0.5313
6.2200 4.1156 0.5334
6.2400 4.1290 0.5354
6.2600 4.1423 0.5344
6.2800 4.1556 0.5388
6.3000 4.1690 0.5382
6.3200 4.1823 0.5406
6.3400 4.1956 0.5405
6.3600 4.2089 0.5441
6.3800 4.2223 0.5423
6.4000 4.2356 0.5468
6.4200 4.2490 0.5444
6.4400 4.2623 0.5490
6.4600 4.2756 0.5475
6.4800 4.2890 0.5519
6.5000 4.3023 0.5502
6.5200 4.3156 0.5545
6.5400 4.3289 0.5532
6.5600 4.3422 0.5553
6.5800 4.3556 0.5566
6.6000 4.3689 0.5577
6.6200 4.3822 0.5593
6.6400 4.3956 0.5605
6.6600 4.4089 0.5619
6.6800 4.4223 0.5622
6.7000 4.4356 0.5650
6.7200 4.4490 0.5654
6.7400 4.4623 0.5671
6.7600 4.4757 0.5668
6.7800 4.4890 0.5697
6.8000 4.5023 0.5697
6.8200 4.5156 0.5720
6.8400 4.5290 0.5731
6.8600 4.5423 0.5729
6.8800 4.5556 0.5754
6.9000 4.5689 0.5764
6.9200 4.5822 0.5776
6.9400 4.5956 0.5779
6.9600 4.6089 0.5801
6.9800 4.6222 0.5800
7.0000 4.6356 0.5831
7.0200 4.6490 0.5827
7.0400 4.6623 0.5855
7.0600 4.6756 0.5841
7.0800 4.6890 0.5889
7.1000 4.7023 0.5863
7.1200 4.7157 0.5914
7.1400 4.7290 0.5897
7.1600 4.7423 0.5930
7.1800 4.7556 0.5918
7.2000 4.7690 0.5957
7.2200 4.7823 0.5945
7.2400 4.7956 0.5977
7.2600 4.8089 0.5973
7.2800 4.8222 0.5991
7.3000 4.8356 0.6005
7.3200 4.8489 0.6016
7.3400 4.8622 0.6037
7.3600 4.8756 0.6016
7.3800 4.8889 0.6074
7.4000 4.9023 0.6035
7.4200 4.9156 0.6094
7.4400 4.9290 0.6063
7.4600 4.9423 0.6115
7.4800 4.9557 0.6088
7.5000 4.9690 0.6144
7.5200 4.9823 0.6111
7.5400 4.9956 0.6153
7.5600 5.0090 0.6146
7.5800 5.0223 0.6171
7.6000 5.0356 0.6175
7.6200 5.0489 0.6197
7.6400 5.0622 0.6194
7.6600 5.0756 0.6202
7.6800 5.0889 0.6234
7.7000 5.1022 0.6223
7.7200 5.1156 0.6261
7.7400 5.1290 0.6242
7.7600 5.1424 0.6280
7.7800 5.1557 0.6271
7.8000 5.1690 0.6303
7.8200 5.1823 0.6295
7.8400 5.1957 0.6324
7.8600 5.2090 0.6326
7.8800 5.2222 0.6348
7.9000 5.2355 0.6342
7.9200 5.2489 0.6376
7.9400 5.2622 0.6370
7.9600 5.2755 0.6388
7.9800 5.2889 0.6405
8.0000 5.3022 0.6407
8.0200 5.3156 0.6425
8.0400 5.3289 0.6429
8.0600 5.3423 0.6453
8.0800 5.3556 0.6442
8.1000 5.3690 0.6482
8.1200 5.3823 0.6471
8.1400 5.3956 0.6505
8.1600 5.4090 0.6491
8.1800 5.4223 0.6528
8.2000 5.4357 0.6508
8.2200 5.4490 0.6554
8.2400 5.4623 0.6540
8.2600 5.4756 0.6565
8.2800 5.4889 0.6573
8.3000 5.5022 0.6582
8.3200 5.5155 0.6596
8.3400 5.5288 0.6604
8.3600 5.5422 0.6620
8.3800 5.5556 0.6611
8.4000 5.5689 0.6644
8.4200 5.5822 0.6634
8.4400 5.5956 0.6665
8.4600 5.6090 0.6659
8.4800 5.6223 0.6677
8.5000 5.6356 0.6691
8.5200 5.6489 0.6702
8.5400 5.6623 0.6708
8.5600 5.6757 0.6712
8.5800 5.6890 0.6731
8.6000 5.7023 0.6742
8.6200 5.7156 0.6748
8.6400 5.7290 0.6759
8.6600 5.7423 0.6771
8.6800 5.7556 0.6773
8.7000 5.7689 0.6803
8.7200 5.7822 0.6802
8.7400 5.7955 0.6812
8.7600 5.8089 0.6818
8.7800 5.8222 0.6836
8.8000 5.8356 0.6842
8.8200 5.8490 0.6860
8.8400 5.8623 0.6867
8.8600 5.8757 0.6880
8.8800 5.8890 0.6882
8.9000 5.9024 0.6906
8.9200 5.9157 0.6903
8.9400 5.9290 0.6933
8.9600 5.9423 0.6927
8.9800 5.9556 0.6942
9.0000 5.9689 0.6959
9.0200 5.9823 0.6958
9.0400 5.9956 0.6976
9.0600 6.0089 0.6980
9.0800 6.0222 0.7005
9.1000 6.0356 0.6990
9.1200 6.0489 0.7028
9.1400 6.0622 0.7018
9.1600 6.0756 0.7046
9.1800 6.0890 0.7034
9.2000 6.1023 0.7068
9.2200 6.1157 0.7057
9.2400 6.1290 0.7092
9.2600 6.1423 0.7078
9.2800 6.1557 0.7103
9.3000 6.1690 0.7110
9.3200 6.1823 0.7120
9.3400 6.1956 0.7141
9.3600 6.2089 0.7133
9.3800 6.2223 0.7169
9.4000 6.2356 0.7146
9.4200 6.2489 0.7187
9.4400 6.2622 0.7176
9.4600 6.2755 0.7198
9.4800 6.2889 0.7198
9.5000 6.3022 0.7226
9.5200 6.3156 0.7217
9.5400 6.3290 0.7248
9.5600 6.3424 0.7236
9.5800 6.3557 0.7254
9.6000 6.3690 0.7265
9.6200 6.3823 0.7278
9.6400 6.3957 0.7289
9.6600 6.4090 0.7292
9.6800 6.4223 0.7319
9.7000 6.4356 0.7307
9.7200 6.4489 0.7343
9.7400 6.4622 0.7334
9.7600 6.4755 0.7357
9.7800 6.4888 0.7350
9.8000 6.5022 0.7381
9.8200 6.5155 0.7367
9.8400 6.5289 0.7398
9.8600 6.5422 0.7393
9.8800 6.5556 0.7417
9.9000 6.5690 0.7410
9.9200 6.5824 0.7443
9.9400 6.5957 0.7431
9.9600 6.6090 0.7453
9.9800 6.6223 0.7463
10.0000 6.6357 0.7464
10.0200 6.6490 0.7485
10.0400 6.6623 0.7489
10.0600 6.6756 0.7506
10.0800 6.6889 0.7498
10.1000 6.7023 0.7534
10.1200 6.7156 0.7513
10.1400 6.7289 0.7564
10.1600 6.7422 0.7534
10.1800 6.7556 0.7573
10.2000 6.7689 0.7550
10.2200 6.7822 0.7597
10.2400 6.7956 0.7575
10.2600 6.8090 0.7607
10.2800 6.8223 0.7604
10.3000 6.8356 0.7618
10.3200 6.8489 0.7636
10.3400 6.8622 0.7638
10.3600 6.8756 0.7659
10.3800 6.8890 0.7647
10.4000 6.9023 0.7686
10.4200 6.9156 0.7670
10.4400 6.9289 0.7700
10.4600 6.9423 0.7688
10.4800 6.9556 0.7717
10.5000 6.9689 0.7711
10.5200 6.9822 0.7740
10.5400 6.9955 0.7735
10.5600 7.0089 0.7757
10.5800 7.0222 0.7758
10.6000 7.0356 0.7772
10.6200 7.0489 0.7779
10.6400 7.0623 0.7791
10.6600 7.0756 0.7799
10.6800 7.0889 0.7813
10.7000 7.1023 0.7825
10.7200 7.1156 0.7830
10.7400 7.1290 0.7842
10.7600 7.1423 0.7851
10.7800 7.1556 0.7872
10.8000 7.1689 0.7864
10.8200 7.1823 0.7899
10.8400 7.1956 0.7874
10.8600 7.2089 0.7918
10.8800 7.2222 0.7893
10.9000 7.2355 0.7945
10.9200 7.2489 0.7911
10.9400 7.2622 0.7957
10.9600 7.2755 0.7934
10.9800 7.2889 0.7965
11.0000 7.3023 0.7966
11.0200 7.3157 0.7981
11.0400 7.3290 0.7989
11.0600 7.3424 0.7996
11.0800 7.3557 0.8018
11.1000 7.3690 0.8002
11.1200 7.3823 0.8052
11.1400 7.3956 0.8018
11.1600 7.4089 0.8069
11.1800 7.4222 0.8039
11.2000 7.4356 0.8087
11.2200 7.4489 0.8059
11.2400 7.4622 0.8103
11.2600 7.4756 0.8090
11.2800 7.4889 0.8110
11.3000 7.5023 0.8121
11.3200 7.5156 0.8119
11.3400 7.5290 0.8145
11.3600 7.5423 0.8141
11.3800 7.5557 0.8158
11.4000 7.5690 0.8160
11.4200 7.5823 0.8180
11.4400 7.5956 0.8176
11.4600 7.6090 0.8197
11.4800 7.6223 0.8196
11.5000 7.6356 0.8227
11.5200 7.6489 0.8208
11.5400 7.6623 0.8251
11.5600 7.6756 0.8228
11.5800 7.6889 0.8261
11.6000 7.7022 0.8253
11.6200 7.7156 0.8284
11.6400 7.7289 0.8266
11.6600 7.7423 0.8305
11.6800 7.7556 0.8289
11.7000 7.7689 0.8318
11.7200 7.7823 0.8323
11.7400 7.7956 0.8321
11.7600 7.8089 0.8346
11.7800 7.8223 0.8335
11.8000 7.8356 0.8369
11.8200 7.8490 0.8345
11.8400 7.8623 0.8398
11.8600 7.8756 0.8357
11.8800 7.8889 0.8418
11.9000 7.9022 0.8381
11.9200 7.9156 0.8433
11.9400 7.9289 0.8400
11.9600 7.9422 0.8444
11.9800 7.9556 0.8434
12.0000 7.9690 0.8450
12.0200 7.9823 0.8455
12.0400 7.9956 0.8467
12.0600 8.0089 0.8472
12.0800 8.0223 0.8484
12.1000 8.0357 0.8500
12.1200 8.0490 0.8488
12.1400 8.0623 0.8531
12.1600 8.0756 0.8508
12.1800 8.0890 0.8536
12.2000 8.1023 0.8535
12.2200 8.1156 0.8552
12.2400 8.1289 0.8551
12.2600 8.1423 0.8565
12.2800 8.1556 0.8575
12.3000 8.1689 0.8586
12.3200 8.1822 0.8595
12.3400 8.1956 0.8604
12.3600 8.2089 0.8607
12.3800 8.2222 0.8636
12.4000 8.2356 0.8631
12.4200 8.2489 0.8638
12.4400 8.2623 0.8658
12.4600 8.2757 0.8654
12.4800 8.2890 0.8678
12.5000 8.3023 0.8670
12.5200 8.3156 0.8712
12.5400 8.3290 0.8678
12.5600 8.3423 0.8730
12.5800 8.3556 0.8709
12.6000 8.3690 0.8744
12.6200 8.3823 0.8722
12.6400 8.3956 0.8767
12.6600 8.4089 0.8733
12.6800 8.4222 0.8781
12.7000 8.4355 0.8765
12.7200 8.4489 0.8782
12.7400 8.4622 0.8790
12.7600 8.4755 0.8795
12.7800 8.4889 0.8811
12.8000 8.5023 0.8803
12.8200 8.5156 0.8840
12.8400 8.5289 0.8819
12.8600 8.5423 0.8856
12.8800 8.5556 0.8838
12.9000 8.5690 0.8873
12.9200 8.5824 0.8856
12.9400 8.5956 0.8888
12.9600 8.6089 0.8876
12.9800 8.6223 0.8904
13.0000 8.6356 0.8901
13.0200 8.6489 0.8911
13.0400 8.6622 0.8930
13.0600 8.6755 0.8919
13.0800 8.6889 0.8940
13.1000 8.7022 0.8936
13.1200 8.7155 0.8970
13.1400 8.7289 0.8949
13.1600 8.7423 0.8984
13.1800 8.7557 0.8969
13.2000 8.7690 0.9002
13.2200 8.7823 0.8988
13.2400 8.7956 0.9030
13.2600 8.8090 0.9009
13.2800 8.8223 0.9038
13.3000 8.8356 0.9032
13.3200 8.8489 0.9048
13.3400 8.8623 0.9052
13.3600 8.8756 0.9063
13.3800 8.8889 0.9079
13.4000 8.9022 0.9074
13.4200 8.9155 0.9097
13.4400 8.9289 0.9083
13.4600 8.9423 0.9121
13.4800 8.9556 0.9098
13.5000 8.9690 0.9135
13.5200 8.9823 0.9107
13.5400 8.9957 0.9162
13.5600 9.0090 0.9123
13.5800 9.0223 0.9187
13.6000 9.0356 0.9144
13.6200 9.0490 0.9189
13.6400 9.0623 0.9167
13.6600 9.0756 0.9210
13.6800 9.0889 0.9187
13.7000 9.1023 0.9219
13.7200 9.1156 0.9213
13.7400 9.1289 0.9224
13.7600 9.1422 0.9245
13.7800 9.1556 0.9235
13.8000 9.1689 0.9266
13.8200 9.1823 0.9244
13.8400 9.1956 0.9289
13.8600 9.2089 0.9267
13.8800 9.2223 0.9304
13.9000 9.2356 0.9289
13.9200 9.2490 0.9317
13.9400 9.2623 0.9310
13.9600 9.2756 0.9335
13.9800 9.2890 0.9328
14.0000 9.3023 0.9352
14.0200 9.3156 0.9350
14.0400 9.3289 0.9359
14.0600 9.3423 0.9377
14.0800 9.3556 0.9370
14.1000 9.3689 0.9397
14.1200 9.3822 0.9387
14.1400 9.3955 0.9426
14.1600 9.4089 0.9398
14.1800 9.4222 0.9439
14.2000 9.4356 0.9430
14.2200 9.4489 0.9447
14.2400 9.4623 0.9437
14.2600 9.4757 0.9471
14.2800 9.4890 0.9442
14.3000 9.5023 0.9480
14.3200 9.5156 0.9470
14.3400 9.5290 0.9488
14.3600 9.5423 0.9489
14.3800 9.5556 0.9500
14.4000 9.5690 0.9505
14.4200 9.5823 0.9504
14.4400 9.5956 0.9530
14.4600 9.6089 0.9517
14.4800 9.6222 0.9538
14.5000 9.6356 0.9535
14.5200 9.6489 0.9564
14.5400 9.6622 0.9536
14.5600 9.6756 0.9587
14.5800 9.6889 0.9562
14.6000 9.7022 0.9604
14.6200 9.7156 0.9575
14.6400 9.7289 0.9619
14.6600 9.7423 0.9597
14.6800 9.7556 0.9636
14.7000 9.7690 0.9623
14.7200 9.7824 0.9637
14.7400 9.7956 0.9652
14.7600 9.8089 0.9657
14.7800 9.8223 0.9667
14.8000 9.8356 0.9671
14.8200 9.8489 0.9687
14.8400 9.8622 0.9679
14.8600 9.8755 0.9715
14.8800 9.8889 0.9693
14.9000 9.9022 0.9723
14.9200 9.9156 0.9712
14.9400 9.9289 0.9735
14.9600 9.9423 0.9735
14.9800 9.9557 0.9753
15.0000 9.9690 0.9756
15.0200 9.9823 0.9758
15.0400 9.9956 0.9782
15.0600 10.0090 0.9775
15.0800 10.0223 0.9794
15.1000 10.0356 0.9791
15.1200 10.0489 0.9813
15.1400 10.0622 0.9806
15.1600 10.0755 0.9830
15.1800 10.0889 0.9825
15.2000 10.1022 0.9848
15.2200 10.1155 0.9835
15.2400 10.1289 0.9870
15.2600 10.1423 0.9849
15.2800 10.1556 0.9890
15.3000 10.1689 0.9869
15.3200 10.1823 0.9891
15.3400 10.1957 0.9885
15.3600 10.2090 0.9908
15.3800 10.2223 0.9900
15.4000 10.2356 0.9917
15.4200 10.2490 0.9919
15.4400 10.2623 0.9917
15.4600 10.2756 0.9943
15.4800 10.2889 0.9928
15.5000 10.3022 0.9959
15.5200 10.3156 0.9944
15.5400 10.3289 0.9981
15.5600 10.3422 0.9944
15.5800 10.3555 0.9999
15.6000 10.3689 0.9966
15.6200 10.3822 1.0006
15.6400 10.3956 0.9990
15.6600 10.4089 1.0022
15.6800 10.4223 1.0010
15.7000 10.4357 1.0029
15.7200 10.4490 1.0040
15.7400 10.4623 1.0033
15.7600 10.4756 1.0065
15.7800 10.4890 1.0045
15.8000 10.5023 1.0071
15.8200 10.5156 1.0071
15.8400 10.5290 1.0092
15.8600 10.5423 1.0077
15.8800 10.5557 1.0100
15.9000 10.5690 1.0094
15.9200 10.5822 1.0065
15.9400 10.5955 0.9979
15.9600 10.6089 0.9908
15.9800 10.6222 0.9889
16.0000 10.6355 0.9876
16.0200 10.6489 0.9873
16.0400 10.6622 0.9764
16.0600 10.6756 0.9749
16.0800 10.6890 0.9715
16.1000 10.7023 0.9757
16.1200 10.7157 0.9768
16.1400 10.7290 0.9804
16.1600 10.7424 0.9802
16.1800 10.7557 0.9853
16.2000 10.7689 0.9844
16.2200 10.7822 0.9885
16.2400 10.7956 0.9881
16.2600 10.8089 0.9934
16.2800 10.8222 0.9914
16.3000 10.8355 0.9973
16.3200 10.8489 0.9961
16.3400 10.8622 0.9986
16.3600 10.8756 1.0003
16.3800 10.8889 1.0023
16.4000 10.9023 1.0028
16.4200 10.9157 1.0054
16.4400 10.9290 1.0058
16.4600 10.9423 1.0068
16.4800 10.9557 1.0102
16.5000 10.9690 1.0093
16.5200 10.9823 1.0132
16.5400 10.9956 1.0117
16.5600 11.0089 1.0159
16.5800 11.0222 1.0138
16.6000 11.0356 1.0179
16.6200 11.0489 1.0175
16.6400 11.0622 1.0192
16.6600 11.0755 1.0206
16.6800 11.0889 1.0213
16.7000 11.1022 1.0222
16.7200 11.1156 1.0225
16.7400 11.1289 1.0253
16.7600 11.1422 1.0245
16.7800 11.1556 1.0273
16.8000 11.1690 1.0266
16.8200 11.1823 1.0292
16.8400 11.1957 1.0292
16.8600 11.2090 1.0322
16.8800 11.2223 1.0298
16.9000 11.2356 1.0339
16.9200 11.2489 1.0331
16.9400 11.2623 1.0345
16.9600 11.2756 1.0355
16.9800 11.2889 1.0368
17.0000 11.3022 1.0367
17.0200 11.3155 1.0387
17.0400 11.3289 1.0389
17.0600 11.3422 1.0393
17.0800 11.3556 1.0409
17.1000 11.3689 1.0415
17.1200 11.3823 1.0430
17.1400 11.3957 1.0427
17.1600 11.4090 1.0452
17.1800 11.4223 1.0432
17.2000 11.4356 1.0472
17.2200 11.4490 1.0453
17.2400 11.4623 1.0480
17.2600 11.4756 1.0460
17.2800 11.4889 1.0508
17.3000 11.5022 1.0478
17.3200 11.5156 1.0515
17.3400 11.5289 1.0505
17.3600 11.5423 1.0523
17.3800 11.5556 1.0523
17.4000 11.5689 1.0534
17.4200 11.5823 1.0539
17.4400 11.5956 1.0548
17.4600 11.6089 1.0566
17.4800 11.6222 1.0555
17.5000 11.6356 1.0587
17.5200 11.6490 1.0573
17.5400 11.6623 1.0601
17.5600 11.6755 1.0588
17.5800 11.6889 1.0625
17.6000 11.7023 1.0608
17.6200 11.7156 1.0631
17.6400 11.7289 1.0636
17.6600 11.7422 1.0643
17.6800 11.7556 1.0658
17.7000 11.7689 1.0665
17.7200 11.7822 1.0672
17.7400 11.7955 1.0679
17.7600 11.8089 1.0698
17.7800 11.8222 1.0685
17.8000 11.8356 1.0716
17.8200 11.8489 1.0710
17.8400 11.8622 1.0729
17.8600 11.8756 1.0723
17.8800 11.8890 1.0755
17.9000 11.9023 1.0733
17.9200 11.9156 1.0769
17.9400 11.9290 1.0762
17.9600 11.9423 1.0774
17.9800 11.9556 1.0774
18.0000 11.9689 1.0803
18.0200 11.9822 1.0792
18.0400 11.9956 1.0811
18.0600 12.0089 1.0807
18.0800 12.0223 1.0826
18.1000 12.0355 1.0822
18.1200 12.0489 1.0841
18.1400 12.0622 1.0838
18.1600 12.0755 1.0852
18.1800 12.0889 1.0864
18.2000 12.1022 1.0861
18.2200 12.1156 1.0878
18.2400 12.1290 1.0873
18.2600 12.1424 1.0891
18.2800 12.1557 1.0887
18.3000 12.1690 1.0914
18.3200 12.1824 1.0895
18.3400 12.1957 1.0921
18.3600 12.2089 1.0915
18.3800 12.2222 1.0947
18.4000 12.2356 1.0929
18.4200 12.2489 1.0964
18.4400 12.2622 1.0942
18.4600 12.2755 1.0972
18.4800 12.2889 1.0976
18.5000 12.3022 1.0980
18.5200 12.3156 1.0994
18.5400 12.3289 1.1000
18.5600 12.3423 1.1015
18.5800 12.3556 1.1009
18.6000 12.3690 1.1037
18.6200 12.3823 1.1024
18.6400 12.3956 1.1050
18.6600 12.4089 1.1050
18.6800 12.4223 1.1068
18.7000 12.4356 1.1051
18.7200 12.4489 1.1093
18.7400 12.4622 1.1075
18.7600 12.4756 1.1094
18.7800 12.4889 1.1087
18.8000 12.5023 1.1085
18.8200 12.5156 1.1092
18.8400 12.5289 1.1106
18.8600 12.5422 1.1121
18.8800 12.5556 1.1115
18.9000 12.5689 1.1143
18.9200 12.5822 1.1135
18.9400 12.5956 1.1146
18.9600 12.6090 1.1159
18.9800 12.6223 1.1166
19.0000 12.6356 1.1162
19.0200 12.6489 1.1203
19.0400 12.6623 1.1172
19.0600 12.6756 1.1210
19.0800 12.6889 1.1195
19.1000 12.7022 1.1231
19.1200 12.7156 1.1208
19.1400 12.7289 1.1243
19.1600 12.7422 1.1232
19.1800 12.7555 1.1247
19.2000 12.7689 1.1262
19.2200 12.7822 1.1260
19.2400 12.7956 1.1273
19.2600 12.8089 1.1279
19.2800 12.8223 1.1296
19.3000 12.8356 1.1281
19.3200 12.8490 1.1323
19.3400 12.8623 1.1286
19.3600 12.8756 1.1338
19.3800 12.8889 1.1307
19.4000 12.9023 1.1349
19.4200 12.9156 1.1321
19.4400 12.9289 1.1357
19.4600 12.9422 1.1349
19.4800 12.9556 1.1348
19.5000 12.9689 1.1369
19.5200 12.9823 1.1357
19.5400 12.9956 1.1381
19.5600 13.0089 1.1378
19.5800 13.0222 1.1405
19.6000 13.0356 1.1381
19.6200 13.0489 1.1431
19.6400 13.0623 1.1398
19.6600 13.0756 1.1444
19.6800 13.0890 1.1422
19.7000 13.1023 1.1458
19.7200 13.1156 1.1434
19.7400 13.1290 1.1472
19.7600 13.1423 1.1470
19.7800 13.1557 1.1480
19.8000 13.1690 1.1494
19.8200 13.1823 1.1498
19.8400 13.1956 1.1507
19.8600 13.2090 1.1515
19.8800 13.2223 1.1530
19.9000 13.2356 1.1526
19.9200 13.2489 1.1552
19.9400 13.2622 1.1541
19.9600 13.2755 1.1564
19.9800 13.2888 1.1559
20.0000 13.3022 1.1597
20.0200 13.3156 1.1568
20.0400 13.3290 1.1616
20.0600 13.3423 1.1585
20.0800 13.3557 1.1625
20.1000 13.3690 1.1608
20.1200 13.3824 1.1637
20.1400 13.3957 1.1623
20.1600 13.4090 1.1648
20.1800 13.4223 1.1651
20.2000 13.4356 1.1654
20.2200 13.4489 1.1682
20.2400 13.4623 1.1660
20.2600 13.4756 1.1695
20.2800 13.4889 1.1675
20.3000 13.5022 1.1718
20.3200 13.5155 1.1680
20.3400 13.5289 1.1740
20.3600 13.5422 1.1705
20.3800 13.5556 1.1746
20.4000 13.5690 1.1719
20.4200 13.5823 1.1762
20.4400 13.5956 1.1736
20.4600 13.6090 1.1770
20.4800 13.6223 1.1769
20.5000 13.6357 1.1765
20.5200 13.6490 1.1794
20.5400 13.6623 1.1780
20.5600 13.6756 1.1807
20.5800 13.6889 1.1798
20.6000 13.7022 1.1835
20.6200 13.7155 1.1799
20.6400 13.7289 1.1851
20.6600 13.7422 1.1809
20.6800 13.7556 1.1857
20.7000 13.7690 1.1817
20.7200 13.7823 1.1873
20.7400 13.7956 1.1828
20.7600 13.8090 1.1875
20.7800 13.8223 1.1861
20.8000 13.8356 1.1882
20.8200 13.8489 1.1885
20.8400 13.8623 1.1898
20.8600 13.8756 1.1887
20.8800 13.8889 1.1915
20.9000 13.9023 1.1921
20.9200 13.9156 1.1923
20.9400 13.9290 1.1947
20.9600 13.9423 1.1937
20.9800 13.9556 1.1966
21.0000 13.9689 1.1953
21.0200 13.9822 1.1995
21.0400 13.9956 1.1956
21.0600 14.0089 1.2013
21.0800 14.0222 1.1986
21.1000 14.0356 1.2019
21.1200 14.0489 1.2005
21.1400 14.0623 1.2038
21.1600 14.0756 1.2023
21.1800 14.0890 1.2047
21.2000 14.1023 1.2058
21.2200 14.1157 1.2048
21.2400 14.1290 1.2084
21.2600 14.1423 1.2067
21.2800 14.1556 1.2100
21.3000 14.1689 1.2072
21.3200 14.1823 1.2125
21.3400 14.1956 1.2088
21.3600 14.2089 1.2140
21.3800 14.2222 1.2114
21.4000 14.2356 1.2144
21.4200 14.2489 1.2131
21.4400 14.2622 1.2164
21.4600 14.2756 1.2150
21.4800 14.2890 1.2168
21.5000 14.3023 1.2174
21.5200 14.3156 1.2171
21.5400 14.3290 1.2178
21.5600 14.3423 1.2174
21.5800 14.3557 1.2196
21.6000 14.3690 1.2173
21.6200 14.3823 1.2233
21.6400 14.3956 1.2182
21.6600 14.4090 1.2248
21.6800 14.4223 1.2210
21.7000 14.4356 1.2255
21.7200 14.4489 1.2234
21.7400 14.4622 1.2277
21.7600 14.4756 1.2247
21.7800 14.4889 1.2292
21.8000 14.5022 1.2277
21.8200 14.5155 1.2294
21.8400 14.5289 1.2293
21.8600 14.5423 1.2309
21.8800 14.5556 1.2315
21.9000 14.5690 1.2321
21.9200 14.5823 1.2338
21.9400 14.5957 1.2325
21.9600 14.6090 1.2356
21.9800 14.6223 1.2341
22.0000 14.6356 1.2362
22.0200 14.6490 1.2343
22.0400 14.6623 1.2382
22.0600 14.6756 1.2350
22.0800 14.6889 1.2392
22.1000 14.7022 1.2372
22.1200 14.7156 1.2404
22.1400 14.7289 1.2382
22.1600 14.7422 1.2427
22.1800 14.7556 1.2410
22.2000 14.7690 1.2435
22.2200 14.7823 1.2442
22.2400 14.7957 1.2447
22.2600 14.8090 1.2472
22.2800 14.8223 1.2455
22.3000 14.8357 1.2489
22.3200 14.8490 1.2467
22.3400 14.8623 1.2520
22.3600 14.8756 1.2481
22.3800 14.8889 1.2534
22.4000 14.9022 1.2507
22.4200 14.9156 1.2543
22.4400 14.9289 1.2527
22.4600 14.9422 1.2564
22.4800 14.9555 1.2546
22.5000 14.9689 1.2570
22.5200 14.9822 1.2578
22.5400 14.9956 1.2580
22.5600 15.0090 1.2595
22.5800 15.0224 1.2596
22.6000 15.0357 1.2613
22.6200 15.0490 1.2599
22.6400 15.0623 1.2650
22.6600 15.0757 1.2614
22.6800 15.0890 1.2661
22.7000 15.1023 1.2644
22.7200 15.1156 1.2674
22.7400 15.1289 1.2661
22.7600 15.1423 1.2697
22.7800 15.1556 1.2674
22.8000 15.1689 1.2709
22.8200 15.1822 1.2692
22.8400 15.1956 1.2722
22.8600 15.2089 1.2709
22.8800 15.2222 1.2741
22.9000 15.2356 1.2733
22.9200 15.2489 1.2743
22.9400 15.2623 1.2757
22.9600 15.2756 1.2745
22.9800 15.2889 1.2771
23.0000 15.3023 1.2756
23.0200 15.3156 1.2781
23.0400 15.3290 1.2758
23.0600 15.3423 1.2800
23.0800 15.3556 1.2775
23.1000 15.3690 1.2809
23.1200 15.3823 1.2795
23.1400 15.3956 1.2824
23.1600 15.4089 1.2805
23.1800 15.4222 1.2851
23.2000 15.4355 1.2833
23.2200 15.4488 1.2849
23.2400 15.4622 1.2874
23.2600 15.4755 1.2862
23.2800 15.4889 1.2897
23.3000 15.5023 1.2878
23.3200 15.5157 1.2916
23.3400 15.5290 1.2891
23.3600 15.5423 1.2938
23.3800 15.5557 1.2919
23.4000 15.5690 1.2943
23.4200 15.5823 1.2941
23.4400 15.5956 1.2965
23.4600 15.6089 1.2954
23.4800 15.6223 1.2985
23.5000 15.6356 1.2978
23.5200 15.6489 1.2987
23.5400 15.6622 1.3009
23.5600 15.6755 1.3003
23.5800 15.6889 1.3025
23.6000 15.7022 1.3023
23.6200 15.7156 1.3043
23.6400 15.7290 1.3032
23.6600 15.7423 1.3061
23.6800 15.7557 1.3053
23.7000 15.7690 1.3071
23.7200 15.7823 1.3075
23.7400 15.7957 1.3098
23.7600 15.8090 1.3074
23.7800 15.8223 1.3108
23.8000 15.8356 1.3063
23.8200 15.8489 1.3087
23.8400 15.8623 1.3080
23.8600 15.8756 1.3106
23.8800 15.8889 1.3101
23.9000 15.9022 1.3130
23.9200 15.9155 1.3132
23.9400 15.9289 1.3136
23.9600 15.9422 1.3156
23.9800 15.9556 1.3159
24.0000 15.9689 1.3174
24.0200 15.9823 1.3172
24.0400 15.9957 1.3204
24.0600 16.0090 1.3181
24.0800 16.0223 1.3226
24.1000 16.0357 1.3216
24.1200 16.0490 1.3228
24.1400 16.0623 1.3235
24.1600 16.0756 1.3244
24.1800 16.0889 1.3252
24.2000 16.1023 1.3253
24.2200 16.1156 1.3276
24.2400 16.1288 1.3251
24.2600 16.1422 1.3287
24.2800 16.1555 1.3268
24.3000 16.1689 1.3297
24.3200 16.1822 1.3288
24.3400 16.1956 1.3319
24.3600 16.2089 1.3302
24.3800 16.2223 1.3339
24.4000 16.2357 1.3325
24.4200 16.2490 1.3358
24.4400 16.2623 1.3351
24.4600 16.2757 1.3376
24.4800 16.2890 1.3372
24.5000 16.3023 1.3393
24.5200 16.3156 1.3398
24.5400 16.3289 1.3410
24.5600 16.3423 1.3420
24.5800 16.3556 1.3430
24.6000 16.3689 1.3434
24.6200 16.3822 1.3447
24.6400 16.3956 1.3465
24.6600 16.4089 1.3458
24.6800 16.4222 1.3490
24.7000 16.4356 1.3481
24.7200 16.4489 1.3504
24.7400 16.4623 1.3496
24.7600 16.4756 1.3528
24.7800 16.4889 1.3506
24.8000 16.5022 1.3552
24.8200 16.5156 1.3532
24.8400 16.5290 1.3554
24.8600 16.5423 1.3559
24.8800 16.5556 1.3577
24.9000 16.5689 1.3574
24.9200 16.5823 1.3597
24.9400 16.5956 1.3605
24.9600 16.6089 1.3596
24.9800 16.6222 1.3626
25.0000 16.6356 1.3617
25.0200 16.6489 1.3643
25.0400 16.6622 1.3634
25.0600 16.6756 1.3666
25.0800 16.6889 1.3647
25.1000 16.7023 1.3679
25.1200 16.7156 1.3677
25.1400 16.7290 1.3685
25.1600 16.7423 1.3700
25.1800 16.7556 1.3697
25.2000 16.7690 1.3719
25.2200 16.7823 1.3705
25.2400 16.7956 1.3748
25.2600 16.8089 1.3721
25.2800 16.8223 1.3757
25.3000 16.8356 1.3740
25.3200 16.8489 1.3759
25.3400 16.8622 1.3756
25.3600 16.8755 1.3784
25.3800 16.8889 1.3755
25.4000 16.9022 1.3793
25.4200 16.9155 1.3781
25.4400 16.9289 1.3802
25.4600 16.9423 1.3790
25.4800 16.9557 1.3825
25.5000 16.9690 1.3791
25.5200 16.9823 1.3809
25.5400 16.9957 1.3792
25.5600 17.0090 1.3808
25.5800 17.0223 1.3819
25.6000 17.0356 1.3843
25.6200 17.0489 1.3844
25.6400 17.0622 1.3862
25.6600 17.0756 1.3889
25.6800 17.0889 1.3865
25.7000 17.1022 1.3911
25.7200 17.1155 1.3897
25.7400 17.1289 1.3930
25.7600 17.1423 1.3913
25.7800 17.1556 1.3960
25.8000 17.1690 1.3938
25.8200 17.1823 1.3970
25.8400 17.1957 1.3978
25.8600 17.2090 1.3980
25.8800 17.2223 1.3999
25.9000 17.2356 1.4008
25.9200 17.2490 1.4012
25.9400 17.2623 1.4020
25.9600 17.2756 1.4048
25.9800 17.2889 1.4035
26.0000 17.3022 1.4059
26.0200 17.3156 1.4059
26.0400 17.3289 1.4078
26.0600 17.3422 1.4077
26.0800 17.3556 1.4109
26.1000 17.3689 1.4092
26.1200 17.3823 1.4116
26.1400 17.3956 1.4127
26.1600 17.4089 1.4122
26.1800 17.4223 1.4146
26.2000 17.4357 1.4141
26.2200 17.4490 1.4165
26.2400 17.4623 1.4152
26.2600 17.4756 1.4189
26.2800 17.4890 1.4170
26.3000 17.5023 1.4200
26.3200 17.5156 1.4190
26.3400 17.5289 1.4220
26.3600 17.5423 1.4195
26.3800 17.5556 1.4238
26.4000 17.5689 1.4211
26.4200 17.5822 1.4248
26.4400 17.5956 1.4238
26.4600 17.6089 1.4258
26.4800 17.6223 1.4251
26.5000 17.6356 1.4287
26.5200 17.6489 1.4268
26.5400 17.6623 1.4305
26.5600 17.6757 1.4295
26.5800 17.6890 1.4320
26.6000 17.7023 1.4319
26.6200 17.7156 1.4339
26.6400 17.7290 1.4343
26.6600 17.7423 1.4350
26.6800 17.7556 1.4379
26.7000 17.7689 1.4358
26.7200 17.7822 1.4393
26.7400 17.7956 1.4383
26.7600 17.8089 1.4416
26.7800 17.8222 1.4396
26.8000 17.8356 1.4435
26.8200 17.8489 1.4411
26.8400 17.8622 1.4416
26.8600 17.8756 1.4383
26.8800 17.8889 1.4406
26.9000 17.9023 1.4408
26.9200 17.9157 1.4427
26.9400 17.9290 1.4440
26.9600 17.9423 1.4452
26.9800 17.9556 1.4481
27.0000 17.9690 1.4464
27.0200 17.9823 1.4502
27.0400 17.9956 1.4497
27.0600 18.0089 1.4522
27.0800 18.0223 1.4516
27.1000 18.0356 1.4544
27.1200 18.0489 1.4542
27.1400 18.0622 1.4560
27.1600 18.0755 1.4565
27.1800 18.0889 1.4581
27.2000 18.1022 1.4588
27.2200 18.1155 1.4606
27.2400 18.1289 1.4607
27.2600 18.1423 1.4616
27.2800 18.1557 1.4636
27.3000 18.1690 1.4628
27.3200 18.1823 1.4650
27.3400 18.1956 1.4656
27.3600 18.2090 1.4678
27.3800 18.2224 1.4660
27.4000 18.2356 1.4705
27.4200 18.2489 1.4687
27.4400 18.2623 1.4719
27.4600 18.2756 1.4695
27.4800 18.2889 1.4731
27.5000 18.3022 1.4695
27.5200 18.3155 1.4748
27.5400 18.3289 1.4711
27.5600 18.3422 1.4757
27.5800 18.3556 1.4739
27.6000 18.3689 1.4768
27.6200 18.3823 1.4754
27.6400 18.3957 1.4789
27.6600 18.4090 1.4787
27.6800 18.4223 1.4794
27.7000 18.4356 1.4829
27.7200 18.4490 1.4810
27.7400 18.4623 1.4851
27.7600 18.4756 1.4838
27.7800 18.4889 1.4869
27.8000 18.5022 1.4852
27.8200 18.5156 1.4892
27.8400 18.5289 1.4873
27.8600 18.5422 1.4903
27.8800 18.5555 1.4904
27.9000 18.5689 1.4928
27.9200 18.5823 1.4919
27.9400 18.5956 1.4941
27.9600 18.6090 1.4959
27.9800 18.6223 1.4942
28.0000 18.6357 1.4986
28.0200 18.6490 1.4961
28.0400 18.6623 1.5006
28.0600 18.6756 1.4985
28.0800 18.6889 1.5018
28.1000 18.7023 1.4999
28.1200 18.7156 1.5041
28.1400 18.7289 1.5003
28.1600 18.7423 1.4985
28.1800 18.7556 1.4966
28.2000 18.7690 1.4988
28.2200 18.7822 1.4989
28.2400 18.7956 1.5022
28.2600 18.8089 1.5032
28.2800 18.8222 1.5036
28.3000 18.8355 1.5067
28.3200 18.8489 1.5057
28.3400 18.8622 1.5094
28.3600 18.8756 1.5079
28.3800 18.8890 1.5116
28.4000 18.9023 1.5106
28.4200 18.9156 1.5141
28.4400 18.9290 1.5128
28.4600 18.9423 1.5157
28.4800 18.9556 1.5142
28.5000 18.9689 1.5194
28.5200 18.9823 1.5154
28.5400 18.9956 1.5209
28.5600 19.0089 1.5188
28.5800 19.0222 1.5214
28.6000 19.0355 1.5218
28.6200 19.0489 1.5228
28.6400 19.0622 1.5241
28.6600 19.0756 1.5241
28.6800 19.0889 1.5263
28.7000 19.1023 1.5246
28.7200 19.1156 1.5279
28.7400 19.1290 1.5252
28.7600 19.1423 1.5289
28.7800 19.1556 1.5265
28.8000 19.1690 1.5302
28.8200 19.1823 1.5281
28.8400 19.1956 1.5328
28.8600 19.2089 1.5313
28.8800 19.2223 1.5327
28.9000 19.2356 1.5349
28.9200 19.2489 1.5344
28.9400 19.2622 1.5376
28.9600 19.2755 1.5355
28.9800 19.2889 1.5410
29.0000 19.3023 1.5366
29.0200 19.3156 1.5430
29.0400 19.3289 1.5400
29.0600 19.3423 1.5442
29.0800 19.3556 1.5413
29.1000 19.3690 1.5460
29.1200 19.3823 1.5440
29.1400 19.3956 1.5481
29.1600 19.4090 1.5464
29.1800 19.4223 1.5481
29.2000 19.4357 1.5484
29.2200 19.4490 1.5512
29.2400 19.4623 1.5505
29.2600 19.4756 1.5524
29.2800 19.4889 1.5528
29.3000 19.5022 1.5529
29.3200 19.5155 1.5545
29.3400 19.5289 1.5556
29.3600 19.5422 1.5563
29.3800 19.5556 1.5560
29.4000 19.5689 1.5592
29.4200 19.5823 1.5567
29.4400 19.5957 1.5617
29.4600 19.6090 1.5584
29.4800 19.6223 1.5626
29.5000 19.6356 1.5554
29.5200 19.6490 1.5583
29.5400 19.6623 1.5529
29.5600 19.6756 1.5592
29.5800 19.6889 1.5571
29.6000 19.7022 1.5610
29.6200 19.7155 1.5613
29.6400 19.7289 1.5635
29.6600 19.7422 1.5643
29.6800 19.7556 1.5649
29.7000 19.7689 1.5678
29.7200 19.7822 1.5657
29.7400 19.7956 1.5701
29.7600 19.8089 1.5689
29.7800 19.8223 1.5718
29.8000 19.8357 1.5699
29.8200 19.8490 1.5749
29.8400 19.8623 1.5719
29.8600 19.8757 1.5762
29.8800 19.8890 1.5751
29.9000 19.9024 1.5764
29.9200 19.9156 1.5772
29.9400 19.9289 1.5765
29.9600 19.9422 1.5779
29.9800 19.9556 1.5770
30.0000 19.9689 1.5794
30.0200 19.9822 1.5781
30.0400 19.9955 1.5810
30.0600 20.0089 1.5814
30.0800 20.0222 1.5827
30.1000 20.0356 1.5828
30.1200 20.0489 1.5863
30.1400 20.0623 1.5842
30.1600 20.0756 1.5876
30.1800 20.0890 1.5873
30.2000 20.1023 1.5898
30.2200 20.1156 1.5892
30.2400 20.1290 1.5923
30.2600 20.1423 1.5914
30.2800 20.1556 1.5932
30.3000 20.1690 1.5948
30.3200 20.1823 1.5946
30.3400 20.1957 1.5962
30.3600 20.2090 1.5967
30.3800 20.2223 1.5985
30.4000 20.2355 1.5976
30.4200 20.2488 1.6022
30.4400 20.2622 1.5983
30.4600 20.2755 1.6037
30.4800 20.2889 1.6005
30.5000 20.3022 1.6051
30.5200 20.3156 1.6021
30.5400 20.3290 1.6061
30.5600 20.3423 1.6049
30.5800 20.3557 1.6063
30.6000 20.3690 1.6083
30.6200 20.3824 1.6074
30.6400 20.3957 1.6099
30.6600 20.4090 1.6097
30.6800 20.4222 1.6120
30.7000 20.4356 1.6103
30.7200 20.4489 1.6147
30.7400 20.4622 1.6122
30.7600 20.4755 1.6162
30.7800 20.4888 1.6142
30.8000 20.5022 1.6170
30.8200 20.5156 1.6157
30.8400 20.5289 1.6185
30.8600 20.5423 1.6180
30.8800 20.5556 1.6189
30.9000 20.5690 1.6198
30.9200 20.5823 1.6205
30.9400 20.5957 1.6209
30.9600 20.6090 1.6199
30.9800 20.6224 1.6176
31.0000 20.6357 1.6162
31.0200 20.6489 1.6187
31.0400 20.6622 1.6183
31.0600 20.6756 1.6208
31.0800 20.6889 1.6197
31.1000 20.7022 1.6226
31.1200 20.7155 1.6199
31.1400 20.7288 1.6246
31.1600 20.7422 1.6217
31.1800 20.7556 1.6263
31.2000 20.7689 1.6252
31.2200 20.7822 1.6294
31.2400 20.7956 1.6268
31.2600 20.8090 1.6319
31.2800 20.8223 1.6302
31.3000 20.8357 1.6329
31.3200 20.8490 1.6335
31.3400 20.8624 1.6347
31.3600 20.8757 1.6357
31.3800 20.8890 1.6362
31.4000 20.9023 1.6385
31.4200 20.9156 1.6374
31.4400 20.9289 1.6417
31.4600 20.9422 1.6386
31.4800 20.9555 1.6428
31.5000 20.9688 1.6415
31.5200 20.9822 1.6447
31.5400 20.9956 1.6430
31.5600 21.0089 1.6464
31.5800 21.0223 1.6453
31.6000 21.0356 1.6473
31.6200 21.0490 1.6480
31.6400 21.0623 1.6490
31.6600 21.0756 1.6496
31.6800 21.0890 1.6514
31.7000 21.1023 1.6515
31.7200 21.1157 1.6526
31.7400 21.1290 1.6546
31.7600 21.1423 1.6540
31.7800 21.1556 1.6553
31.8000 21.1689 1.6556
31.8200 21.1823 1.6578
31.8400 21.1956 1.6568
31.8600 21.2089 1.6598
31.8800 21.2223 1.6588
31.9000 21.2356 1.6602
31.9200 21.2489 1.6609
31.9400 21.2622 1.6622
31.9600 21.2756 1.6617
31.9800 21.2890 1.6640
32.0000 21.3023 1.6636
32.0200 21.3156 1.6647
32.0400 21.3289 1.6665
32.0600 21.3423 1.6656
32.0800 21.3557 1.6674
32.1000 21.3690 1.6654
32.1200 21.3823 1.6678
32.1400 21.3956 1.6656
32.1600 21.4090 1.6691
32.1800 21.4223 1.6673
32.2000 21.4356 1.6691
32.2200 21.4489 1.6657
32.2400 21.4622 1.6671
32.2600 21.4756 1.6657
32.2800 21.4889 1.6696
32.3000 21.5022 1.6691
32.3200 21.5156 1.6717
32.3400 21.5289 1.6725
32.3600 21.5423 1.6738
32.3800 21.5556 1.6749
32.4000 21.5689 1.6754
32.4200 21.5823 1.6788
32.4400 21.5956 1.6767
32.4600 21.6089 1.6816
32.4800 21.6222 1.6793
32.5000 21.6356 1.6827
32.5200 21.6489 1.6819
32.5400 21.6623 1.6848
32.5600 21.6755 1.6838
32.5800 21.6889 1.6865
32.6000 21.7022 1.6858
32.6200 21.7155 1.6884
32.6400 21.7289 1.6880
32.6600 21.7422 1.6903
32.6800 21.7556 1.6899
32.7000 21.7690 1.6913
32.7200 21.7824 1.6933
32.7400 21.7957 1.6920
32.7600 21.8090 1.6953
32.7800 21.8224 1.6943
32.8000 21.8357 1.6962
32.8200 21.8490 1.6957
32.8400 21.8622 1.6993
32.8600 21.8755 1.6971
32.8800 21.8889 1.7004
32.9000 21.9022 1.6994
32.9200 21.9155 1.7019
32.9400 21.9289 1.7006
32.9600 21.9422 1.7043
32.9800 21.9556 1.7019
33.0000 21.9690 1.7045
33.0200 21.9823 1.7051
33.0400 21.9956 1.7052
33.0600 22.0090 1.7072
33.0800 22.0223 1.7065
33.1000 22.0356 1.7077
33.1200 22.0490 1.7060
33.1400 22.0623 1.7073
33.1600 22.0757 1.7053
33.1800 22.0889 1.7093
33.2000 22.1023 1.7070
33.2200 22.1156 1.7108
33.2400 22.1289 1.7093
33.2600 22.1423 1.7136
33.2800 22.1556 1.7115
33.3000 22.1689 1.7142
33.3200 22.1822 1.7118
33.3400 22.1956 1.7105
33.3600 22.2089 1.7124
33.3800 22.2222 1.7129
33.4000 22.2356 1.7159
33.4200 22.2490 1.7148
33.4400 22.2623 1.7186
33.4600 22.2756 1.7171
33.4800 22.2890 1.7215
33.5000 22.3023 1.7191
33.5200 22.3157 1.7234
33.5400 22.3290 1.7217
33.5600 22.3423 1.7258
33.5800 22.3556 1.7239
33.6000 22.3689 1.7268
33.6200 22.3823 1.7272
33.6400 22.3955 1.7279
33.6600 22.4089 1.7297
33.6800 22.4222 1.7299
33.7000 22.4356 1.7309
33.7200 22.4489 1.7321
33.7400 22.4622 1.7339
33.7600 22.4756 1.7329
33.7800 22.4890 1.7358
33.8000 22.5023 1.7350
33.8200 22.5156 1.7369
33.8400 22.5289 1.7367
33.8600 22.5423 1.7395
33.8800 22.5556 1.7379
33.9000 22.5689 1.7412
33.9200 22.5823 1.7402
33.9400 22.5956 1.7431
33.9600 22.6089 1.7415
33.9800 22.6223 1.7446
34.0000 22.6356 1.7431
34.0200 22.6489 1.7457
34.0400 22.6622 1.7462
34.0600 22.6756 1.7460
34.0800 22.6889 1.7484
34.1000 22.7023 1.7477
34.1200 22.7156 1.7501
34.1400 22.7290 1.7471
34.1600 22.7423 1.7505
34.1800 22.7556 1.7461
34.2000 22.7689 1.7497
34.2200 22.7823 1.7484
34.2400 22.7957 1.7520
34.2600 22.8090 1.7510
34.2800 22.8223 1.7539
34.3000 22.8356 1.7532
34.3200 22.8490 1.7553
34.3400 22.8623 1.7544
34.3600 22.8756 1.7519
34.3800 22.8889 1.7545
34.4000 22.9022 1.7540
34.4200 22.9155 1.7566
34.4400 22.9288 1.7564
34.4600 22.9422 1.7608
34.4800 22.9556 1.7581
34.5000 22.9690 1.7626
34.5200 22.9823 1.7608
34.5400 22.9956 1.7646
34.5600 23.0090 1.7629
34.5800 23.0223 1.7676
34.6000 23.0357 1.7644
34.6200 23.0490 1.7692
34.6400 23.0623 1.7682
34.6600 23.0756 1.7701
34.6800 23.0889 1.7705
34.7000 23.1023 1.7713
34.7200 23.1156 1.7724
34.7400 23.1289 1.7728
34.7600 23.1422 1.7752
34.7800 23.1555 1.7745
34.8000 23.1689 1.7773
34.8200 23.1822 1.7768
34.8400 23.1956 1.7788
34.8600 23.2090 1.7774
34.8800 23.2223 1.7813
34.9000 23.2356 1.7795
34.9200 23.2490 1.7824
34.9400 23.2623 1.7820
34.9600 23.2756 1.7836
34.9800 23.2890 1.7837
35.0000 23.3023 1.7853
35.0200 23.3156 1.7863
35.0400 23.3289 1.7870
35.0600 23.3422 1.7878
35.0800 23.3555 1.7884
35.1000 23.3689 1.7899
35.1200 23.3822 1.7896
35.1400 23.3956 1.7925
35.1600 23.4090 1.7898
35.1800 23.4223 1.7949
35.2000 23.4356 1.7916
35.2200 23.4490 1.7962
35.2400 23.4623 1.7939
35.2600 23.4756 1.7973
35.2800 23.4889 1.7957
35.3000 23.5023 1.7984
35.3200 23.5157 1.7987
35.3400 23.5290 1.7988
35.3600 23.5423 1.8009
35.3800 23.5556 1.7989
35.4000 23.5690 1.7978
35.4200 23.5823 1.7939
35.4400 23.5956 1.7966
35.4600 23.6089 1.7941
35.4800 23.6222 1.7996
35.5000 23.6356 1.7972
35.5200 23.6489 1.8019
35.5400 23.6622 1.8007
35.5600 23.6756 1.8050
35.5800 23.6889 1.8033
35.6000 23.7023 1.8069
35.6200 23.7156 1.8067
35.6400 23.7290 1.8093
35.6600 23.7423 1.8087
35.6800 23.7557 1.8117
35.7000 23.7690 1.8105
35.7200 23.7823 1.8139
35.7400 23.7956 1.8134
35.7600 23.8090 1.8149
35.7800 23.8223 1.8156
35.8000 23.8356 1.8166
35.8200 23.8489 1.8181
35.8400 23.8622 1.8182
35.8600 23.8755 1.8210
35.8800 23.8889 1.8189
35.9000 23.9022 1.8225
35.9200 23.9155 1.8213
35.9400 23.9289 1.8246
35.9600 23.9423 1.8232
35.9800 23.9556 1.8263
36.0000 23.9690 1.8249
36.0200 23.9823 1.8279
36.0400 23.9956 1.8278
36.0600 24.0090 1.8292
36.0800 24.0223 1.8307
36.1000 24.0356 1.8306
36.1200 24.0490 1.8331
36.1400 24.0623 1.8314
36.1600 24.0756 1.8355
36.1800 24.0889 1.8328
36.2000 24.1022 1.8376
36.2200 24.1156 1.8350
36.2400 24.1289 1.8391
36.2600 24.1422 1.8360
36.2800 24.1555 1.8407
36.3000 24.1689 1.8383
36.3200 24.1823 1.8413
36.3400 24.1956 1.8414
36.3600 24.2090 1.8419
36.3800 24.2223 1.8429
36.4000 24.2357 1.8418
36.4200 24.2490 1.8426
36.4400 24.2623 1.8404
36.4600 24.2756 1.8415
36.4800 24.2889 1.8378
36.5000 24.3023 1.8425
36.5200 24.3156 1.8406
36.5400 24.3289 1.8456
36.5600 24.3422 1.8436
36.5800 24.3556 1.8482
36.6000 24.3689 1.8463
36.6200 24.3822 1.8503
36.6400 24.3956 1.8498
36.6600 24.4090 1.8521
36.6800 24.4224 1.8515
36.7000 24.4357 1.8546
36.7200 24.4490 1.8543
36.7400 24.4623 1.8562
36.7600 24.4757 1.8571
36.7800 24.4890 1.8576
36.8000 24.5023 1.8596
36.8200 24.5156 1.8600
36.8400 24.5289 1.8614
36.8600 24.5422 1.8616
36.8800 24.5555 1.8642
36.9000 24.5689 1.8619
36.9200 24.5822 1.8661
36.9400 24.5956 1.8656
36.9600 24.6089 1.8673
36.9800 24.6223 1.8671
37.0000 24.6356 1.8689
37.0200 24.6490 1.8669
37.0400 24.6624 1.8676
37.0600 24.6757 1.8686
37.0800 24.6890 1.8689
37.1000 24.7023 1.8717
37.1200 24.7157 1.8705
37.1400 24.7290 1.8744
37.1600 24.7423 1.8717
37.1800 24.7556 1.8779
37.2000 24.7689 1.8729
37.2200 24.7822 1.8793
37.2400 24.7956 1.8759
37.2600 24.8089 1.8812
37.2800 24.8222 1.8780
37.3000 24.8355 1.8824
37.3200 24.8489 1.8802
37.3400 24.8622 1.8835
37.3600 24.8756 1.8836
37.3800 24.8889 1.8836
37.4000 24.9023 1.8860
37.4200 24.9156 1.8855
37.4400 24.9290 1.8889
37.4600 24.9423 1.8864
37.4800 24.9556 1.8920
37.5000 24.9690 1.8871
37.5200 24.9823 1.8930
37.5400 24.9956 1.8903
37.5600 25.0090 1.8935
37.5800 25.0223 1.8905
37.6000 25.0357 1.8917
37.6200 25.0489 1.8885
37.6400 25.0622 1.8895
37.6600 25.0755 1.8895
37.6800 25.0889 1.8917
37.7000 25.1022 1.8922
37.7200 25.1155 1.8947
37.7400 25.1289 1.8955
37.7600 25.1423 1.8962
37.7800 25.1557 1.8988
37.8000 25.1690 1.8989
37.8200 25.1823 1.9013
37.8400 25.1957 1.9015
37.8600 25.2090 1.9041
37.8800 25.2223 1.9038
37.9000 25.2356 1.9067
37.9200 25.2489 1.9058
37.9400 25.2623 1.9088
37.9600 25.2756 1.9083
37.9800 25.2889 1.9110
38.0000 25.3022 1.9097
38.0200 25.3155 1.9136
38.0400 25.3289 1.9130
38.0600 25.3422 1.9133
38.0800 25.3556 1.9170
38.1000 25.3690 1.9145
38.1200 25.3823 1.9188
38.1400 25.3957 1.9157
38.1600 25.4090 1.9215
38.1800 25.4223 1.9179
38.2000 25.4357 1.9236
38.2200 25.4490 1.9200
38.2400 25.4623 1.9250
38.2600 25.4756 1.9220
38.2800 25.4889 1.9272
38.3000 25.5022 1.9245
38.3200 25.5156 1.9281
38.3400 25.5289 1.9277
38.3600 25.5422 1.9283
38.3800 25.5555 1.9303
38.4000 25.5689 1.9299
38.4200 25.5823 1.9323
38.4400 25.5956 1.9314
38.4600 25.6089 1.9347
38.4800 25.6223 1.9323
38.5000 25.6357 1.9367
38.5200 25.6490 1.9347
38.5400 25.6623 1.9369
38.5600 25.6757 1.9354
38.5800 25.6890 1.9351
38.6000 25.7023 1.9336
38.6200 25.7156 1.9367
38.6400 25.7289 1.9360
38.6600 25.7423 1.9379
38.6800 25.7556 1.9364
38.7000 25.7688 1.9376
38.7200 25.7821 1.9380
38.7400 25.7955 1.9403
38.7600 25.8089 1.9405
38.7800 25.8222 1.9418
38.8000 25.8356 1.9443
38.8200 25.8490 1.9444
38.8400 25.8623 1.9464
38.8600 25.8757 1.9467
38.8800 25.8890 1.9492
38.9000 25.9023 1.9481
38.9200 25.9156 1.9522
38.9400 25.9290 1.9506
38.9600 25.9423 1.9534
38.9800 25.9556 1.9538
39.0000 25.9689 1.9551
39.0200 25.9823 1.9558
39.0400 25.9956 1.9564
39.0600 26.0089 1.9591
39.0800 26.0222 1.9567
39.1000 26.0356 1.9623
39.1200 26.0489 1.9583
39.1400 26.0622 1.9631
39.1600 26.0756 1.9588
39.1800 26.0889 1.9634
39.2000 26.1023 1.9595
39.2200 26.1157 1.9647
39.2400 26.1289 1.9627
39.2600 26.1422 1.9658
39.2800 26.1556 1.9656
39.3000 26.1690 1.9676
39.3200 26.1823 1.9679
39.3400 26.1956 1.9695
39.3600 26.2089 1.9703
39.3800 26.2223 1.9701
39.4000 26.2356 1.9725
39.4200 26.2489 1.9728
39.4400 26.2622 1.9753
39.4600 26.2756 1.9752
39.4800 26.2889 1.9767
39.5000 26.3023 1.9771
39.5200 26.3156 1.9788
39.5400 26.3289 1.9796
39.5600 26.3423 1.9805
39.5800 26.3556 1.9815
39.6000 26.3689 1.9833
39.6200 26.3823 1.9825
39.6400 26.3956 1.9862
39.6600 26.4090 1.9833
39.6800 26.4223 1.9838
39.7000 26.4356 1.9816
39.7200 26.4489 1.9838
39.7400 26.4623 1.9840
39.7600 26.4756 1.9860
39.7800 26.4889 1.9885
39.8000 26.5022 1.9880
39.8200 26.5155 1.9913
39.8400 26.5289 1.9905
39.8600 26.5422 1.9938
39.8800 26.5555 1.9926
39.9000 26.5689 1.9968
39.9200 26.5823 1.9947
39.9400 26.5957 1.9993
39.9600 26.6090 1.9971
39.9800 26.6224 2.0006
40.0000 26.6357 2.0002
40.0200 26.6490 2.0022
40.0400 26.6623 2.0030
40.0600 26.6756 2.0032
40.0800 26.6889 2.0064
40.1000 26.7022 2.0045
40.1200 26.7156 2.0078
40.1400 26.7289 2.0074
40.1600 26.7422 2.0093
40.1800 26.7556 2.0087
40.2000 26.7689 2.0121
40.2200 26.7823 2.0099
40.2400 26.7956 2.0128
40.2600 26.8089 2.0109
40.2800 26.8223 2.0132
40.3000 26.8357 2.0122
40.3200 26.8490 2.0153
40.3400 26.8623 2.0145
40.3600 26.8756 2.0169
40.3800 26.8890 2.0167
40.4000 26.9023 2.0184
40.4200 26.9156 2.0196
40.4400 26.9289 2.0212
40.4600 26.9423 2.0210
40.4800 26.9556 2.0227
40.5000 26.9689 2.0230
40.5200 26.9822 2.0241
40.5400 26.9955 2.0248
40.5600 27.0089 2.0236
40.5800 27.0223 2.0228
40.6000 27.0356 2.0202
40.6200 27.0489 2.0241
40.6400 27.0623 2.0224
40.6600 27.0757 2.0257
40.6800 27.0890 2.0260
40.7000 27.1023 2.0283
40.7200 27.1156 2.0299
40.7400 27.1290 2.0317
40.7600 27.1423 2.0325
40.7800 27.1556 2.0339
40.8000 27.1689 2.0361
40.8200 27.1823 2.0361
40.8400 27.1956 2.0394
40.8600 27.2089 2.0382
40.8800 27.2222 2.0417
40.9000 27.2355 2.0396
40.9200 27.2489 2.0452
40.9400 27.2623 2.0422
40.9600 27.2756 2.0467
40.9800 27.2889 2.0456
41.0000 27.3023 2.0476
41.0200 27.3157 2.0482
41.0400 27.3290 2.0499
41.0600 27.3423 2.0514
41.0800 27.3556 2.0512
41.1000 27.3690 2.0536
41.1200 27.3823 2.0531
41.1400 27.3956 2.0564
41.1600 27.4089 2.0553
41.1800 27.4223 2.0582
41.2000 27.4356 2.0565
41.2200 27.4489 2.0613
41.2400 27.4622 2.0591
41.2600 27.4755 2.0624
41.2800 27.4889 2.0618
41.3000 27.5023 2.0640
41.3200 27.5156 2.0636
41.3400 27.5289 2.0660
41.3600 27.5423 2.0661
41.3800 27.5556 2.0659
41.4000 27.5690 2.0665
41.4200 27.5823 2.0669
41.4400 27.5956 2.0662
41.4600 27.6090 2.0663
41.4800 27.6223 2.0656
41.5000 27.6357 2.0668
41.5200 27.6490 2.0692
41.5400 27.6623 2.0696
41.5600 27.6756 2.0722
41.5800 27.6889 2.0727
41.6000 27.7022 2.0755
41.6200 27.7155 2.0744
41.6400 27.7289 2.0784
41.6600 27.7422 2.0768
41.6800 27.7555 2.0802
41.7000 27.7689 2.0801
41.7200 27.7823 2.0821
41.7400 27.7957 2.0819
41.7600 27.8090 2.0843
41.7800 27.8223 2.0847
41.8000 27.8356 2.0853
41.8200 27.8490 2.0880
41.8400 27.8624 2.0867
41.8600 27.8756 2.0896
41.8800 27.8889 2.0884
41.9000 27.9023 2.0922
41.9200 27.9156 2.0882
41.9400 27.9289 2.0936
41.9600 27.9422 2.0908
41.9800 27.9555 2.0941
42.0000 27.9689 2.0940
42.0200 27.9822 2.0956
42.0400 27.9955 2.0961
42.0600 28.0089 2.0977
42.0800 28.0222 2.0993
42.1000 28.0357 2.0996
42.1200 28.0490 2.1019
42.1400 28.0623 2.1026
42.1600 28.0757 2.1036
42.1800 28.0890 2.1048
42.2000 28.1023 2.1068
42.2200 28.1156 2.1065
42.2400 28.1289 2.1102
42.2600 28.1422 2.1085
42.2800 28.1556 2.1116
42.3000 28.1689 2.1116
42.3200 28.1822 2.1140
42.3400 28.1955 2.1123
42.3600 28.2089 2.1146
42.3800 28.2223 2.1108
42.4000 28.2356 2.1137
42.4200 28.2490 2.1123
42.4400 28.2623 2.1170
42.4600 28.2757 2.1146
42.4800 28.2890 2.1194
42.5000 28.3023 2.1194
42.5200 28.3156 2.1203
42.5400 28.3289 2.1237
42.5600 28.3423 2.1230
42.5800 28.3556 2.1262
42.6000 28.3690 2.1251
42.6200 28.3823 2.1290
42.6400 28.3957 2.1269
42.6600 28.4090 2.1312
42.6800 28.4222 2.1303
42.7000 28.4356 2.1329
42.7200 28.4489 2.1318
42.7400 28.4622 2.1346
42.7600 28.4756 2.1329
42.7800 28.4889 2.1365
42.8000 28.5022 2.1365
42.8200 28.5156 2.1368
42.8400 28.5290 2.1394
42.8600 28.5423 2.1383
42.8800 28.5556 2.1416
42.9000 28.5690 2.1407
42.9200 28.5823 2.1447
42.9400 28.5956 2.1422
42.9600 28.6089 2.1468
42.9800 28.6223 2.1454
43.0000 28.6356 2.1485
43.0200 28.6489 2.1482
43.0400 28.6622 2.1512
43.0600 28.6755 2.1500
43.0800 28.6889 2.1532
43.1000 28.7022 2.1534
43.1200 28.7155 2.1541
43.1400 28.7288 2.1565
43.1600 28.7422 2.1565
43.1800 28.7556 2.1580
43.2000 28.7689 2.1591
43.2200 28.7823 2.1607
43.2400 28.7956 2.1606
43.2600 28.8090 2.1629
43.2800 28.8223 2.1625
43.3000 28.8357 2.1644
43.3200 28.8490 2.1627
43.3400 28.8623 2.1651
43.3600 28.8756 2.1610
43.3800 28.8890 2.1658
43.4000 28.9022 2.1642
43.4200 28.9155 2.1673
43.4400 28.9289 2.1669
43.4600 28.9422 2.1703
43.4800 28.9556 2.1697
43.5000 28.9689 2.1725
43.5200 28.9822 2.1741
43.5400 28.9956 2.1734
43.5600 29.0090 2.1777
43.5800 29.0223 2.1754
43.6000 29.0356 2.1809
43.6200 29.0490 2.1781
43.6400 29.0624 2.1840
43.6600 29.0757 2.1804
43.6800 29.0890 2.1859
43.7000 29.1023 2.1837
43.7200 29.1156 2.1872
43.7400 29.1290 2.1866
43.7600 29.1422 2.1889
43.7800 29.1556 2.1889
43.8000 29.1689 2.1897
43.8200 29.1822 2.1918
43.8400 29.1956 2.1906
43.8600 29.2089 2.1958
43.8800 29.2223 2.1930
43.9000 29.2356 2.1973
43.9200 29.2490 2.1954
43.9400 29.2623 2.1999
43.9600 29.2756 2.1982
43.9800 29.2890 2.2016
44.0000 29.3023 2.2014
44.0200 29.3157 2.2027
44.0400 29.3289 2.2035
44.0600 29.3422 2.2060
44.0800 29.3555 2.2052
44.1000 29.3689 2.2078
44.1200 29.3822 2.2088
44.1400 29.3955 2.2087
44.1600 29.4089 2.2114
44.1800 29.4222 2.2100
44.2000 29.4356 2.2112
44.2200 29.4489 2.2110
44.2400 29.4623 2.2132
44.2600 29.4757 2.2112
44.2800 29.4890 2.2142
44.3000 29.5023 2.2118
44.3200 29.5156 2.2148
44.3400 29.5290 2.2124
44.3600 29.5423 2.2177
44.3800 29.5556 2.2135
44.4000 29.5689 2.2192
44.4200 29.5822 2.2182
44.4400 29.5956 2.2207
44.4600 29.6089 2.2222
44.4800 29.6222 2.2234
44.5000 29.6355 2.2257
44.5200 29.6489 2.2249
44.5400 29.6622 2.2304
44.5600 29.6756 2.2268
44.5800 29.6889 2.2330
44.6000 29.7022 2.2307
44.6200 29.7156 2.2356
44.6400 29.7290 2.2328
44.6600 29.7423 2.2392
44.6800 29.7556 2.2356
44.7000 29.7689 2.2408
44.7200 29.7823 2.2392
44.7400 29.7957 2.2416
44.7600 29.8090 2.2425
44.7800 29.8223 2.2443
44.8000 29.8357 2.2445
44.8200 29.8490 2.2452
44.8400 29.8623 2.2476
44.8600 29.8756 2.2473
44.8800 29.8889 2.2496
44.9000 29.9022 2.2502
44.9200 29.9155 2.2513
44.9400 29.9289 2.2507
44.9600 29.9422 2.2538
44.9800 29.9556 2.2521
45.0000 29.9690 2.2546
45.0200 29.9823 2.2531
45.0400 29.9956 2.2539
45.0470 30.0002 2.2517
45.0480 30.0008 2.2513
45.0490 30.0015 2.2507
45.0690 30.0119 2.2350
45.0890 30.0141 2.2235
45.1090 30.0057 2.2227
45.1290 29.9929 2.2238
45.1490 29.9800 2.2057
45.1690 29.9671 2.1979
45.1890 29.9537 2.1823
45.2090 29.9397 2.1762
45.2290 29.9256 2.1626
45.2490 29.9118 2.1571
45.2690 29.8983 2.1458
45.2890 29.8850 2.1351
45.3090 29.8717 2.1284
45.3290 29.8584 2.1192
45.3490 29.8450 2.1135
45.3690 29.8317 2.1036
45.3890 29.8184 2.0996
45.4090 29.8050 2.0878
45.4290 29.7916 2.0852
45.4490 29.7783 2.0746
45.4690 29.7649 2.0712
45.4890 29.7516 2.0603
45.5090 29.7382 2.0591
45.5290 29.7249 2.0476
45.5490 29.7115 2.0468
45.5690 29.6982 2.0372
45.5890 29.6849 2.0330
45.6090 29.6716 2.0262
45.6290 29.6582 2.0214
45.6490 29.6449 2.0153
45.6690 29.6316 2.0098
45.6890 29.6183 2.0066
45.7090 29.6049 1.9983
45.7290 29.5916 1.9962
45.7490 29.5784 1.9887
45.7690 29.5650 1.9861
45.7890 29.5517 1.9783
45.8090 29.5383 1.9768
45.8290 29.5250 1.9677
45.8490 29.5116 1.9672
45.8690 29.4983 1.9600
45.8890 29.4849 1.9567
45.9090 29.4716 1.9524
45.9290 29.4582 1.9476
45.9490 29.4449 1.9428
45.9690 29.4316 1.9387
45.9890 29.4182 1.9364
46.0090 29.4049 1.9293
46.0290 29.3916 1.9273
46.0490 29.3783 1.9217
46.0690 29.3649 1.9197
46.0890 29.3516 1.9137
46.1090 29.3383 1.9130
46.1290 29.3250 1.9047
46.1490 29.3117 1.9048
46.1690 29.2983 1.8980
46.1890 29.2850 1.8967
46.2090 29.2717 1.8906
46.2290 29.2583 1.8896
46.2490 29.2449 1.8832
46.2690 29.2316 1.8819
46.2890 29.2182 1.8771
46.3090 29.2049 1.8734
46.3290 29.1915 1.8702
46.3490 29.1782 1.8671
46.3690 29.1649 1.8639
46.3890 29.1516 1.8595
46.4090 29.1383 1.8590
46.4290 29.1249 1.8518
46.4490 29.1116 1.8525
46.4690 29.0983 1.8460
46.4890 29.0850 1.8461
46.5090 29.0716 1.8390
46.5290 29.0583 1.8400
46.5490 29.0449 1.8335
46.5690 29.0316 1.8327
46.5890 29.0182 1.8285
46.6090 29.0049 1.8256
46.6290 28.9915 1.8226
46.6490 28.9782 1.8201
46.6690 28.9649 1.8169
46.6890 28.9515 1.8133
46.7090 28.9381 1.8127
46.7290 28.9248 1.8057
46.7490 28.9116 1.8072
46.7690 28.8983 1.8016
46.7890 28.8849 1.8013
46.8090 28.8716 1.7956
46.8290 28.8583 1.7962
46.8490 28.8450 1.7903
46.8690 28.8316 1.7903
46.8890 28.8183 1.7866
46.9090 28.8050 1.7837
46.9290 28.7916 1.7808
46.9490 28.7782 1.7782
46.9690 28.7649 1.7757
46.9890 28.7515 1.7731
47.0090 28.7382 1.7717
47.0290 28.7249 1.7666
47.0490 28.7115 1.7659
47.0690 28.6982 1.7625
47.0890 28.6849 1.7614
47.1090 28.6716 1.7570
47.1290 28.6583 1.7575
47.1490 28.6450 1.7515
47.1690 28.6316 1.7523
47.1890 28.6183 1.7475
47.2090 28.6050 1.7472
47.2290 28.5916 1.7425
47.2490 28.5783 1.7428
47.2690 28.5649 1.7375
47.2890 28.5516 1.7366
47.3090 28.5383 1.7345
47.3290 28.5249 1.7314
47.3490 28.5116 1.7299
47.3690 28.4982 1.7265
47.3890 28.4849 1.7257
47.4090 28.4716 1.7210
47.4290 28.4582 1.7229
47.4490 28.4449 1.7162
47.4690 28.4316 1.7180
47.4890 28.4182 1.7122
47.5090 28.4049 1.7135
47.5290 28.3916 1.7083
47.5490 28.3783 1.7088
47.5690 28.3649 1.7043
47.5890 28.3516 1.7028
47.6090 28.3383 1.7018
47.6290 28.3249 1.6981
47.6490 28.3116 1.6974
47.6690 28.2983 1.6942
47.6890 28.2849 1.6938
47.7090 28.2715 1.6889
47.7290 28.2582 1.6909
47.7490 28.2449 1.6846
47.7690 28.2316 1.6858
47.7890 28.2182 1.6818
47.8090 28.2049 1.6815
47.8290 28.1916 1.6769
47.8490 28.1782 1.6785
47.8690 28.1649 1.6736
47.8890 28.1516 1.6723
47.9090 28.1383 1.6710
47.9290 28.1249 1.6682
47.9490 28.1116 1.6670
47.9690 28.0982 1.6651
47.9890 28.0849 1.6624
48.0090 28.0716 1.6614
48.0290 28.0583 1.6596
48.0490 28.0449 1.6558
48.0690 28.0315 1.6570
48.0890 28.0182 1.6514
48.1090 28.0049 1.6536
48.1290 27.9916 1.6471
48.1490 27.9782 1.6499
48.1690 27.9649 1.6449
48.1890 27.9516 1.6445
48.2090 27.9383 1.6418
48.2290 27.9249 1.6415
48.2490 27.9116 1.6374
48.2690 27.8983 1.6379
48.2890 27.8850 1.6343
48.3090 27.8716 1.6327
48.3290 27.8583 1.6331
48.3490 27.8449 1.6281
48.3690 27.8316 1.6290
48.3890 27.8183 1.6249
48.4090 27.8049 1.6259
48.4290 27.7915 1.6209
48.4490 27.7782 1.6228
48.4690 27.7649 1.6174
48.4890 27.7516 1.6183
48.5090 27.7382 1.6146
48.5290 27.7249 1.6154
48.5490 27.7116 1.6119
48.5690 27.6983 1.6112
48.5890 27.6850 1.6087
48.6090 27.6716 1.6071
48.6290 27.6583 1.6056
48.6490 27.6450 1.6041
48.6690 27.6316 1.6021
48.6890 27.6183 1.6004
48.7090 27.6049 1.6003
48.7290 27.5916 1.5959
48.7490 27.5782 1.5971
48.7690 27.5649 1.5929
48.7890 27.5515 1.5930
48.8090 27.5382 1.5905
48.8290 27.5249 1.5897
48.8490 27.5116 1.5869
48.8690 27.4982 1.5869
48.8890 27.4849 1.5839
48.9090 27.4716 1.5828
48.9290 27.4583 1.5808
48.9490 27.4449 1.5807
48.9690 27.4316 1.5772
48.9890 27.4183 1.5765
49.0090 27.4050 1.5749
49.0290 27.3916 1.5724
49.0490 27.3782 1.5725
49.0690 27.3649 1.5695
49.0890 27.3516 1.5681
49.1090 27.3383 1.5663
49.1290 27.3249 1.5658
49.1490 27.3115 1.5629
49.1690 27.2982 1.5634
49.1890 27.2849 1.5599
49.2090 27.2716 1.5595
49.2290 27.2582 1.5570
49.2490 27.2449 1.5570
49.2690 27.2316 1.5542
49.2890 27.2183 1.5536
49.3090 27.2049 1.5520
49.3290 27.1916 1.5493
49.3490 27.1783 1.5497
49.3690 27.1649 1.5464
49.3890 27.1516 1.5466
49.4090 27.1382 1.5433
49.4290 27.1249 1.5445
49.4490 27.1116 1.5395
49.4690 27.0983 1.5415
49.4890 27.0849 1.5376
49.5090 27.0716 1.5375
49.5290 27.0582 1.5356
49.5490 27.0449 1.5352
49.5690 27.0316 1.5318
49.5890 27.0182 1.5322
49.6090 27.0049 1.5301
49.6290 26.9916 1.5283
49.6490 26.9783 1.5272
49.6690 26.9649 1.5267
49.6890 26.9516 1.5239
49.7090 26.9383 1.5234
49.7290 26.9250 1.5219
49.7490 26.9116 1.5195
49.7690 26.8983 1.5188
49.7890 26.8849 1.5169
49.8090 26.8716 1.5156
49.8290 26.8583 1.5138
49.8490 26.8449 1.5139
49.8690 26.8315 1.5101
49.8890 26.8182 1.5114
49.9090 26.8049 1.5073
49.9290 26.7916 1.5086
49.9490 26.7782 1.5042
49.9690 26.7648 1.5067
49.9890 26.7515 1.5018
50.0090 26.7382 1.5029
50.0290 26.7249 1.5014
50.0490 26.7116 1.4993
50.0690 26.6983 1.4994
50.0890 26.6850 1.4965
50.1090 26.6716 1.4960
50.1290 26.6583 1.4933
50.1490 26.6449 1.4946
50.1690 26.6316 1.4897
50.1890 26.6183 1.4916
50.2090 26.6050 1.4872
50.2290 26.5916 1.4886
50.2490 26.5782 1.4847
50.2690 26.5649 1.4868
50.2890 26.5515 1.4817
50.3090 26.5382 1.4835
50.3290 26.5248 1.4808
50.3490 26.5116 1.4788
50.3690 26.4982 1.4786
50.3890 26.4849 1.4769
50.4090 26.4716 1.4761
50.4290 26.4583 1.4737
50.4490 26.4450 1.4739
50.4690 26.4316 1.4707
50.4890 26.4183 1.4714
50.5090 26.4049 1.4682
50.5290 26.3916 1.4696
50.5490 26.3783 1.4646
50.5690 26.3649 1.4672
50.5890 26.3516 1.4618
50.6090 26.3382 1.4642
50.6290 26.3249 1.4613
50.6490 26.3116 1.4603
50.6690 26.2982 1.4586
50.6890 26.2849 1.4584
50.7090 26.2715 1.4561
50.7290 26.2582 1.4550
50.7490 26.2449 1.4547
50.7690 26.2316 1.4519
50.7890 26.2183 1.4522
50.8090 26.2050 1.4496
50.8290 26.1916 1.4491
50.8490 26.1782 1.4471
50.8690 26.1649 1.4480
50.8890 26.1516 1.4432
50.9090 26.1383 1.4450
50.9290 26.1249 1.4416
50.9490 26.1115 1.4427
50.9690 26.0982 1.4394
50.9890 26.0849 1.4394
51.0090 26.0716 1.4373
51.0290 26.0583 1.4370
51.0490 26.0449 1.4359
51.0690 26.0315 1.4346
51.0890 26.0182 1.4331
51.1090 26.0049 1.4324
51.1290 25.9916 1.4313
51.1490 25.9782 1.4289
51.1690 25.9649 1.4308
51.1890 25.9516 1.4258
51.2090 25.9382 1.4280
51.2290 25.9249 1.4238
51.2490 25.9116 1.4257
51.2690 25.8983 1.4210
51.2890 25.8849 1.4230
51.3090 25.8716 1.4194
51.3290 25.8582 1.4197
51.3490 25.8449 1.4176
51.3690 25.8316 1.4165
51.3890 25.8182 1.4155
51.4090 25.8049 1.4142
51.4290 25.7915 1.4136
51.4490 25.7782 1.4108
51.4690 25.7649 1.4125
51.4890 25.7515 1.4080
51.5090 25.7382 1.4105
51.5290 25.7250 1.4059
51.5490 25.7117 1.4074
51.5690 25.6983 1.4033
51.5890 25.6849 1.4058
51.6090 25.6716 1.4015
51.6290 25.6583 1.4017
51.6490 25.6449 1.4009
51.6690 25.6316 1.3990
51.6890 25.6182 1.3982
51.7090 25.6049 1.3973
51.7290 25.5916 1.3962
51.7490 25.5782 1.3935
51.7690 25.5648 1.3951
51.7890 25.5515 1.3913
51.8090 25.5382 1.3926
51.8290 25.5249 1.3896
51.8490 25.5115 1.3905
51.8690 25.4982 1.3868
51.8890 25.4849 1.3886
51.9090 25.4716 1.3837
51.9290 25.4583 1.3862
51.9490 25.4449 1.3827
51.9690 25.4316 1.3833
51.9890 25.4183 1.3801
52.0090 25.4050 1.3813
52.0290 25.3916 1.3785
52.0490 25.3782 1.3775
52.0690 25.3649 1.3777
52.0890 25.3516 1.3747
52.1090 25.3382 1.3751
52.1290 25.3248 1.3730
52.1490 25.3115 1.3741
52.1690 25.2982 1.3689
52.1890 25.2849 1.3731
52.2090 25.2716 1.3670
52.2290 25.2582 1.3703
52.2490 25.2450 1.3652
52.2690 25.2317 1.3672
52.2890 25.2183 1.3632
52.3090 25.2049 1.3645
52.3290 25.1916 1.3624
52.3490 25.1783 1.3607
52.3690 25.1649 1.3611
52.3890 25.1515 1.3588
52.4090 25.1382 1.3588
52.4290 25.1249 1.3570
52.4490 25.1115 1.3568
52.4690 25.0982 1.3538
52.4890 25.0849 1.3557
52.5090 25.0715 1.3521
52.5290 25.0582 1.3533
52.5490 25.0449 1.3498
52.5690 25.0316 1.3515
52.5890 25.0182 1.3482
52.6090 25.0050 1.3487
52.6290 24.9916 1.3463
52.6490 24.9783 1.3466
52.6690 24.9649 1.3444
52.6890 24.9516 1.3450
52.7090 24.9382 1.3408
52.7290 24.9249 1.3428
52.7490 24.9115 1.3402
52.7690 24.8982 1.3399
52.7890 24.8849 1.3389
52.8090 24.8716 1.3373
52.8290 24.8582 1.3372
52.8490 24.8449 1.3352
52.8690 24.8315 1.3362
52.8890 24.8183 1.3316
52.9090 24.8049 1.3346
52.9290 24.7916 1.3300
52.9490 24.7782 1.3321
52.9690 24.7649 1.3288
52.9890 24.7516 1.3301
53.0090 24.7383 1.3264
53.0290 24.7249 1.3272
53.0490 24.7116 1.3258
53.0690 24.6983 1.3236
53.0890 24.6849 1.3249
53.1090 24.6716 1.3211
53.1290 24.6582 1.3235
53.1490 24.6449 1.3182
53.1690 24.6316 1.3224
53.1890 24.6182 1.3152
53.2090 24.6049 1.3207
53.2290 24.5915 1.3144
53.2490 24.5782 1.3174
53.2690 24.5649 1.3133
53.2890 24.5516 1.3155
53.3090 24.5382 1.3115
53.3290 24.5249 1.3125
53.3490 24.5116 1.3105
53.3690 24.4983 1.3091
53.3890 24.4849 1.3095
53.4090 24.4716 1.3069
53.4290 24.4583 1.3071
53.4490 24.4450 1.3043
53.4690 24.4316 1.3065
53.4890 24.4182 1.3014
53.5090 24.4049 1.3046
53.5290 24.3916 1.2999
53.5490 24.3782 1.3017
53.5690 24.3648 1.2990
53.5890 24.3515 1.3000
53.6090 24.3382 1.2962
53.6290 24.3249 1.2978
53.6490 24.3116 1.2949
53.6690 24.2982 1.2958
53.6890 24.2849 1.2935
53.7090 24.2716 1.2931
53.7290 24.2583 1.2911
53.7490 24.2449 1.2913
53.7690 24.2316 1.2907
53.7890 24.2183 1.2876
53.8090 24.2049 1.2899
53.8290 24.1915 1.2853
53.8490 24.1782 1.2878
53.8690 24.1649 1.2836
53.8890 24.1516 1.2862
53.9090 24.1382 1.2807
53.9290 24.1249 1.2845
53.9490 24.1115 1.2796
53.9690 24.0982 1.2817
53.9890 24.0849 1.2777
54.0090 24.0716 1.2798
54.0290 24.0583 1.2764
54.0490 24.0450 1.2777
54.0690 24.0317 1.2757
54.0890 24.0183 1.2730
54.1090 24.0050 1.2762
54.1290 23.9916 1.2695
54.1490 23.9783 1.2744
54.1690 23.9649 1.2669
54.1890 23.9515 1.2740
54.2090 23.9382 1.2646
54.2290 23.9249 1.2715
54.2490 23.9115 1.2639
54.2690 23.8982 1.2685
54.2890 23.8849 1.2632
54.3090 23.8715 1.2668
54.3290 23.8583 1.2617
54.3490 23.8450 1.2640
54.3690 23.8316 1.2607
54.3890 23.8183 1.2608
54.4090 23.8050 1.2595
54.4290 23.7917 1.2590
54.4490 23.7783 1.2588
54.4690 23.7650 1.2555
54.4890 23.7516 1.2584
54.5090 23.7383 1.2525
54.5290 23.7249 1.2566
54.5490 23.7116 1.2504
54.5690 23.6982 1.2549
54.5890 23.6849 1.2481
54.6090 23.6716 1.2540
54.6290 23.6583 1.2457
54.6490 23.6449 1.2518
54.6690 23.6315 1.2451
54.6890 23.6182 1.2495
54.7090 23.6049 1.2435
54.7290 23.5916 1.2469
54.7490 23.5782 1.2428
54.7690 23.5649 1.2432
54.7890 23.5516 1.2428
54.8090 23.5383 1.2394
54.8290 23.5249 1.2422
54.8490 23.5116 1.2375
54.8690 23.4983 1.2399
54.8890 23.4849 1.2349
54.9090 23.4716 1.2396
54.9290 23.4582 1.2327
54.9490 23.4449 1.2374
54.9690 23.4316 1.2318
54.9890 23.4182 1.2351
55.0090 23.4049 1.2299
55.0290 23.3915 1.2337
55.0490 23.3782 1.2289
55.0690 23.3649 1.2301
55.0890 23.3516 1.2293
55.1090 23.3382 1.2272
55.1290 23.3249 1.2273
55.1490 23.3116 1.2250
55.1690 23.2983 1.2260
55.1890 23.2849 1.2218
55.2090 23.2716 1.2262
55.2290 23.2583 1.2197
55.2490 23.2450 1.2236
55.2690 23.2316 1.2184
55.2890 23.2182 1.2226
55.3090 23.2049 1.2163
55.3290 23.1916 1.2204
55.3490 23.1783 1.2150
55.3690 23.1649 1.2174
55.3890 23.1515 1.2152
55.4090 23.1382 1.2147
55.4290 23.1249 1.2137
55.4490 23.1116 1.2133
55.4690 23.0982 1.2127
55.4890 23.0849 1.2098
55.5090 23.0716 1.2124
55.5290 23.0583 1.2073
55.5490 23.0449 1.2102
55.5690 23.0316 1.2064
55.5890 23.0183 1.2081
55.6090 23.0049 1.2038
55.6290 22.9916 1.2075
55.6490 22.9782 1.2016
55.6690 22.9649 1.2058
55.6890 22.9515 1.2007
55.7090 22.9382 1.2025
55.7290 22.9249 1.1997
55.7490 22.9115 1.2011
55.7690 22.8982 1.1990
55.7890 22.8849 1.1984
55.8090 22.8716 1.1975
55.8290 22.8583 1.1961
55.8490 22.8450 1.1969
55.8690 22.8317 1.1936
55.8890 22.8183 1.1959
55.9090 22.8049 1.1911
55.9290 22.7916 1.1947
55.9490 22.7782 1.1895
55.9690 22.7649 1.1917
55.9890 22.7515 1.1893
56.0090 22.7382 1.1893
56.0290 22.7248 1.1879
56.0490 22.7116 1.1874
56.0690 22.6983 1.1873
56.0890 22.6849 1.1843
56.1090 22.6715 1.1863
56.1290 22.6582 1.1827
56.1490 22.6449 1.1846
56.1690 22.6316 1.1813
56.1890 22.6182 1.1829
56.2090 22.6049 1.1792
56.2290 22.5916 1.1809
56.2490 22.5783 1.1779
56.2690 22.5649 1.1784
56.2890 22.5516 1.1774
56.3090 22.5382 1.1766
56.3290 22.5249 1.1744
56.3490 22.5116 1.1753
56.3690 22.4982 1.1738
56.3890 22.4849 1.1729
56.4090 22.4716 1.1723
56.4290 22.4583 1.1708
56.4490 22.4449 1.1703
56.4690 22.4315 1.1698
56.4890 22.4182 1.1683
56.5090 22.4049 1.1672
56.5290 22.3916 1.1684
56.5490 22.3783 1.1652
56.5690 22.3649 1.1667
56.5890 22.3516 1.1632
56.6090 22.3383 1.1661
56.6290 22.3249 1.1604
56.6490 22.3116 1.1646
56.6690 22.2982 1.1601
56.6890 22.2849 1.1616
56.7090 22.2716 1.1593
56.7290 22.2582 1.1589
56.7490 22.2449 1.1585
56.7690 22.2316 1.1564
56.7890 22.2183 1.1581
56.8090 22.2049 1.1533
56.8290 22.1915 1.1576
56.8490 22.1782 1.1521
56.8690 22.1649 1.1552
56.8890 22.1516 1.1501
56.9090 22.1382 1.1552
56.9290 22.1249 1.1482
56.9490 22.1116 1.1522
56.9690 22.0983 1.1469
56.9890 22.0850 1.1494
57.0090 22.0716 1.1471
57.0290 22.0583 1.1469
57.0490 22.0449 1.1459
57.0690 22.0316 1.1450
57.0890 22.0182 1.1449
57.1090 22.0049 1.1423
57.1290 21.9916 1.1435
57.1490 21.9782 1.1416
57.1690 21.9649 1.1412
57.1890 21.9515 1.1397
57.2090 21.9382 1.1403
57.2290 21.9249 1.1378
57.2490 21.9116 1.1386
57.2690 21.8982 1.1359
57.2890 21.8849 1.1366
57.3090 21.8716 1.1356
57.3290 21.8583 1.1347
57.3490 21.8450 1.1338
57.3690 21.8316 1.1331
57.3890 21.8183 1.1324
57.4090 21.8049 1.1313
57.4290 21.7916 1.1307
57.4490 21.7782 1.1304
57.4690 21.7649 1.1288
57.4890 21.7515 1.1280
57.5090 21.7382 1.1288
57.5290 21.7249 1.1254
57.5490 21.7115 1.1281
57.5690 21.6982 1.1230
57.5890 21.6849 1.1264
57.6090 21.6716 1.1218
57.6290 21.6582 1.1250
57.6490 21.6449 1.1207
57.6690 21.6316 1.1229
57.6890 21.6183 1.1194
57.7090 21.6050 1.1201
57.7290 21.5916 1.1194
57.7490 21.5783 1.1183
57.7690 21.5649 1.1185
57.7890 21.5516 1.1149
57.8090 21.5382 1.1176
57.8290 21.5249 1.1129
57.8490 21.5116 1.1171
57.8690 21.4982 1.1106
57.8890 21.4849 1.1154
57.9090 21.4715 1.1095
57.9290 21.4582 1.1138
57.9490 21.4449 1.1084
57.9690 21.4316 1.1118
57.9890 21.4182 1.1081
58.0090 21.4049 1.1098
58.0290 21.3916 1.1061
58.0490 21.3783 1.1085
58.0690 21.3649 1.1053
58.0890 21.3516 1.1064
58.1090 21.3382 1.1046
58.1290 21.3250 1.1038
58.1490 21.3116 1.1028
58.1690 21.2982 1.1029
58.1890 21.2849 1.1013
58.2090 21.2716 1.1010
58.2290 21.2583 1.1005
58.2490 21.2450 1.0972
58.2690 21.2316 1.0997
58.2890 21.2182 1.0968
58.3090 21.2049 1.0982
58.3290 21.1916 1.0950
58.3490 21.1783 1.0968
58.3690 21.1649 1.0939
58.3890 21.1516 1.0948
58.4090 21.1383 1.0930
58.4290 21.1249 1.0930
58.4490 21.1116 1.0919
58.4690 21.0983 1.0908
58.4890 21.0850 1.0913
58.5090 21.0716 1.0879
58.5290 21.0583 1.0911
58.5490 21.0449 1.0857
58.5690 21.0316 1.0899
58.5890 21.0182 1.0846
58.6090 21.0049 1.0882
58.6290 20.9915 1.0828
58.6490 20.9782 1.0868
58.6690 20.9649 1.0817
58.6890 20.9516 1.0842
58.7090 20.9382 1.0816
58.7290 20.9249 1.0822
58.7490 20.9116 1.0803
58.7690 20.8983 1.0800
58.7890 20.8850 1.0791
58.8090 20.8716 1.0779
58.8290 20.8583 1.0788
58.8490 20.8449 1.0759
58.8690 20.8316 1.0772
58.8890 20.8183 1.0745
58.9090 20.8049 1.0767
58.9290 20.7916 1.0730
58.9490 20.7783 1.0740
58.9690 20.7649 1.0713
58.9890 20.7515 1.0725
59.0090 20.7382 1.0706
59.0290 20.7249 1.0714
59.0490 20.7115 1.0686
59.0690 20.6982 1.0707
59.0890 20.6849 1.0665
59.1090 20.6716 1.0685
59.1290 20.6583 1.0659
59.1490 20.6450 1.0668
59.1690 20.6316 1.0647
59.1890 20.6183 1.0652
59.2090 20.6050 1.0640
59.2290 20.5916 1.0624
59.2490 20.5783 1.0631
59.2690 20.5649 1.0609
59.2890 20.5515 1.0612
59.3090 20.5382 1.0598
59.3290 20.5249 1.0597
59.3490 20.5115 1.0578
59.3690 20.4982 1.0591
59.3890 20.4849 1.0568
59.4090 20.4716 1.0564
59.4290 20.4583 1.0560
59.4490 20.4449 1.0554
59.4690 20.4316 1.0546
59.4890 20.4183 1.0527
59.5090 20.4050 1.0535
59.5290 20.3916 1.0503
59.5490 20.3782 1.0530
59.5690 20.3649 1.0492
59.5890 20.3516 1.0510
59.6090 20.3382 1.0478
59.6290 20.3249 1.0493
59.6490 20.3115 1.0458
59.6690 20.2982 1.0488
59.6890 20.2849 1.0445
59.7090 20.2715 1.0466
59.7290 20.2582 1.0444
59.7490 20.2449 1.0438
59.7690 20.2316 1.0436
59.7890 20.2182 1.0420
59.8090 20.2049 1.0430
59.8290 20.1916 1.0402
59.8490 20.1783 1.0423
59.8690 20.1650 1.0373
59.8890 20.1516 1.0404
59.9090 20.1383 1.0365
59.9290 20.1249 1.0396
59.9490 20.1116 1.0341
59.9690 20.0982 1.0378
59.9890 20.0848 1.0337
60.0090 20.0715 1.0359
60.0290 20.0582 1.0328
60.0490 20.0449 1.0341
60.0690 20.0315 1.0317
60.0890 20.0182 1.0330
60.1090 20.0049 1.0310
60.1290 19.9916 1.0295
60.1490 19.9782 1.0311
60.1690 19.9649 1.0282
60.1890 19.9516 1.0299
60.2090 19.9383 1.0260
60.2290 19.9250 1.0292
60.2490 19.9116 1.0241
60.2690 19.8982 1.0278
60.2890 19.8849 1.0232
60.3090 19.8716 1.0260
60.3290 19.8583 1.0214
60.3490 19.8449 1.0248
60.3690 19.8315 1.0204
60.3890 19.8182 1.0226
60.4090 19.8049 1.0205
60.4290 19.7915 1.0200
60.4490 19.7782 1.0204
60.4690 19.7649 1.0180
60.4890 19.7516 1.0191
60.5090 19.7382 1.0159
60.5290 19.7249 1.0188
60.5490 19.7116 1.0142
60.5690 19.6983 1.0170
60.5890 19.6849 1.0124
60.6090 19.6716 1.0161
60.6290 19.6583 1.0106
60.6490 19.6450 1.0151
60.6690 19.6317 1.0091
60.6890 19.6183 1.0131
60.7090 19.6049 1.0089
60.7290 19.5916 1.0107
60.7490 19.5783 1.0084
60.7690 19.5649 1.0086
60.7890 19.5515 1.0075
60.8090 19.5382 1.0068
60.8290 19.5248 1.0073
60.8490 19.5115 1.0043
60.8690 19.4982 1.0062
60.8890 19.4849 1.0030
60.9090 19.4716 1.0047
60.9290 19.4583 1.0013
60.9490 19.4450 1.0039
60.9690 19.4316 0.9995
60.9890 19.4183 1.0029
61.0090 19.4049 0.9986
61.0290 19.3916 1.0006
61.0490 19.3782 0.9974
61.0690 19.3649 0.9998
61.0890 19.3515 0.9955
61.1090 19.3382 0.9974
61.1290 19.3249 0.9951
61.1490 19.3115 0.9951
61.1690 19.2982 0.9946
61.1890 19.2849 0.9936
61.2090 19.2716 0.9930
61.2290 19.2583 0.9921
61.2490 19.2449 0.9927
61.2690 19.2316 0.9903
61.2890 19.2183 0.9914
61.3090 19.2050 0.9885
61.3290 19.1916 0.9900
61.3490 19.1783 0.9866
61.3690 19.1649 0.9893
61.3890 19.1516 0.9848
61.4090 19.1382 0.9873
61.4290 19.1249 0.9849
61.4490 19.1115 0.9843
61.4690 19.0982 0.9849
61.4890 19.0849 0.9823
61.5090 19.0715 0.9835
61.5290 19.0582 0.9806
61.5490 19.0449 0.9833
61.5690 19.0316 0.9786
61.5890 19.0183 0.9819
61.6090 19.0049 0.9775
61.6290 18.9916 0.9803
61.6490 18.9783 0.9760
61.6690 18.9650 0.9793
61.6890 18.9516 0.9746
61.7090 18.9383 0.9775
61.7290 18.9249 0.9745
61.7490 18.9116 0.9744
61.7690 18.8983 0.9739
61.7890 18.8849 0.9728
61.8090 18.8715 0.9731
61.8290 18.8582 0.9709
61.8490 18.8449 0.9723
61.8690 18.8316 0.9693
61.8890 18.8182 0.9706
61.9090 18.8049 0.9690
61.9290 18.7916 0.9690
61.9490 18.7782 0.9666
61.9690 18.7649 0.9683
61.9890 18.7515 0.9653
62.0090 18.7383 0.9667
62.0290 18.7250 0.9652
62.0490 18.7116 0.9647
62.0690 18.6983 0.9636
62.0890 18.6849 0.9631
62.1090 18.6716 0.9627
62.1290 18.6583 0.9603
62.1490 18.6449 0.9630
62.1690 18.6315 0.9590
62.1890 18.6182 0.9612
62.2090 18.6049 0.9572
62.2290 18.5916 0.9599
62.2490 18.5782 0.9550
62.2690 18.5649 0.9599
62.2890 18.5516 0.9533
62.3090 18.5382 0.9578
62.3290 18.5249 0.9536
62.3490 18.5116 0.9558
62.3690 18.4983 0.9528
62.3890 18.4850 0.9529
62.4090 18.4716 0.9531
62.4290 18.4582 0.9498
62.4490 18.4449 0.9531
62.4690 18.4316 0.9480
62.4890 18.4183 0.9517
62.5090 18.4049 0.9457
62.5290 18.3916 0.9510
62.5490 18.3782 0.9451
62.5690 18.3649 0.9490
62.5890 18.3516 0.9437
62.6090 18.3382 0.9471
62.6290 18.3249 0.9442
62.6490 18.3116 0.9455
62.6690 18.2982 0.9419
62.6890 18.2849 0.9440
62.7090 18.2716 0.9420
62.7290 18.2583 0.9412
62.7490 18.2450 0.9416
62.7690 18.2316 0.9393
62.7890 18.2183 0.9404
62.8090 18.2049 0.9376
62.8290 18.1916 0.9393
62.8490 18.1783 0.9355
62.8690 18.1649 0.9388
62.8890 18.1515 0.9339
62.9090 18.1382 0.9372
62.9290 18.1249 0.9330
62.9490 18.1116 0.9359
62.9690 18.0982 0.9313
62.9890 18.0849 0.9352
63.0090 18.0716 0.9307
63.0290 18.0583 0.9322
63.0490 18.0450 0.9301
63.0690 18.0316 0.9305
63.0890 18.0183 0.9297
63.1090 18.0050 0.9291
63.1290 17.9916 0.9288
63.1490 17.9783 0.9266
63.1690 17.9649 0.9289
63.1890 17.9516 0.9251
63.2090 17.9383 0.9273
63.2290 17.9249 0.9240
63.2490 17.9115 0.9264
63.2690 17.8982 0.9222
63.2890 17.8849 0.9256
63.3090 17.8716 0.9210
63.3290 17.8582 0.9238
63.3490 17.8449 0.9206
63.3690 17.8316 0.9212
63.3890 17.8183 0.9201
63.4090 17.8049 0.9199
63.4290 17.7916 0.9195
63.4490 17.7783 0.9173
63.4690 17.7650 0.9190
63.4890 17.7516 0.9162
63.5090 17.7383 0.9171
63.5290 17.7249 0.9156
63.5490 17.7116 0.9162
63.5690 17.6983 0.9131
63.5890 17.6849 0.9151
63.6090 17.6716 0.9122
63.6290 17.6582 0.9131
63.6490 17.6449 0.9112
63.6690 17.6316 0.9117
63.6890 17.6182 0.9093
63.7090 17.6049 0.9103
63.7290 17.5916 0.9092
63.7490 17.5783 0.9069
63.7690 17.5649 0.9081
63.7890 17.5516 0.9063
63.8090 17.5382 0.9060
63.8290 17.5249 0.9048
63.8490 17.5116 0.9051
63.8690 17.4982 0.9024
63.8890 17.4849 0.9049
63.9090 17.4716 0.9014
63.9290 17.4583 0.9031
63.9490 17.4449 0.9000
63.9690 17.4316 0.9019
63.9890 17.4182 0.8979
64.0090 17.4049 0.9002
64.0290 17.3916 0.8982
64.0490 17.3782 0.8983
64.0690 17.3649 0.8974
64.0890 17.3516 0.8971
64.1090 17.3383 0.8950
64.1290 17.3249 0.8961
64.1490 17.3116 0.8950
64.1690 17.2982 0.8942
64.1890 17.2850 0.8944
64.2090 17.2716 0.8923
64.2290 17.2583 0.8929
64.2490 17.2449 0.8918
64.2690 17.2316 0.8929
64.2890 17.2183 0.8891
64.3090 17.2049 0.8910
64.3290 17.1915 0.8877
64.3490 17.1782 0.8891
64.3690 17.1649 0.8874
64.3890 17.1516 0.8872
64.4090 17.1382 0.8856
64.4290 17.1249 0.8859
64.4490 17.1115 0.8852
64.4690 17.0982 0.8834
64.4890 17.0849 0.8847
64.5090 17.0715 0.8823
64.5290 17.0582 0.8839
64.5490 17.0450 0.8795
64.5690 17.0316 0.8835
64.5890 17.0183 0.8782
64.6090 17.0049 0.8825
64.6290 16.9916 0.8775
64.6490 16.9783 0.8796
64.6690 16.9650 0.8764
64.6890 16.9516 0.8789
64.7090 16.9382 0.8766
64.7290 16.9249 0.8770
64.7490 16.9115 0.8761
64.7690 16.8982 0.8744
64.7890 16.8848 0.8752
64.8090 16.8715 0.8738
64.8290 16.8582 0.8741
64.8490 16.8449 0.8708
64.8690 16.8316 0.8744
64.8890 16.8183 0.8687
64.9090 16.8050 0.8726
64.9290 16.7916 0.8679
64.9490 16.7783 0.8709
64.9690 16.7649 0.8680
64.9890 16.7516 0.8687
65.0090 16.7383 0.8657
65.0290 16.7249 0.8670
65.0490 16.7116 0.8659
65.0690 16.6982 0.8646
65.0890 16.6849 0.8648
65.1090 16.6716 0.8629
65.1290 16.6582 0.8638
65.1490 16.6448 0.8617
65.1690 16.6315 0.8634
65.1890 16.6182 0.8603
65.2090 16.6049 0.8617
65.2290 16.5916 0.8593
65.2490 16.5782 0.8610
65.2690 16.5650 0.8572
65.2890 16.5516 0.8595
65.3090 16.5382 0.8567
65.3290 16.5249 0.8583
65.3490 16.5116 0.8568
65.3690 16.4983 0.8556
65.3890 16.4849 0.8544
65.4090 16.4715 0.8554
65.4290 16.4582 0.8532
65.4490 16.4449 0.8524
65.4690 16.4316 0.8537
65.4890 16.4183 0.8496
65.5090 16.4049 0.8527
65.5290 16.3916 0.8492
65.5490 16.3782 0.8512
65.5690 16.3649 0.8474
65.5890 16.3516 0.8503
65.6090 16.3382 0.8460
65.6290 16.3249 0.8487
65.6490 16.3116 0.8456
65.6690 16.2982 0.8465
65.6890 16.2849 0.8446
65.7090 16.2716 0.8448
65.7290 16.2583 0.8441
65.7490 16.2450 0.8429
65.7690 16.2316 0.8435
65.7890 16.2182 0.8416
65.8090 16.2049 0.8418
65.8290 16.1916 0.8399
65.8490 16.1782 0.8411
65.8690 16.1648 0.8386
65.8890 16.1515 0.8405
65.9090 16.1382 0.8370
65.9290 16.1249 0.8390
65.9490 16.1116 0.8359
65.9690 16.0982 0.8380
65.9890 16.0849 0.8345
66.0090 16.0716 0.8370
66.0290 16.0583 0.8334
66.0490 16.0449 0.8348
66.0690 16.0316 0.8327
66.0890 16.0183 0.8329
66.1090 16.0050 0.8313
66.1290 15.9916 0.8318
66.1490 15.9782 0.8307
66.1690 15.9649 0.8293
66.1890 15.9516 0.8302
66.2090 15.9382 0.8275
66.2290 15.9248 0.8300
66.2490 15.9115 0.8262
66.2690 15.8982 0.8281
66.2890 15.8849 0.8247
66.3090 15.8715 0.8272
66.3290 15.8582 0.8237
66.3490 15.8450 0.8255
66.3690 15.8317 0.8226
66.3890 15.8183 0.8240
66.4090 15.8049 0.8225
66.4290 15.7916 0.8226
66.4490 15.7783 0.8217
66.4690 15.7650 0.8193
66.4890 15.7516 0.8211
66.5090 15.7382 0.8177
66.5290 15.7249 0.8206
66.5490 15.7115 0.8166
66.5690 15.6982 0.8187
66.5890 15.6848 0.8155
66.6090 15.6715 0.8170
66.6290 15.6582 0.8143
66.6490 15.6449 0.8151
66.6690 15.6316 0.8141
66.6890 15.6182 0.8138
66.7090 15.6049 0.8123
66.7290 15.5916 0.8129
66.7490 15.5783 0.8115
66.7690 15.5649 0.8105
66.7890 15.5516 0.8114
66.8090 15.5383 0.8086
66.8290 15.5249 0.8096
66.8490 15.5116 0.8073
66.8690 15.4982 0.8094
66.8890 15.4849 0.8056
66.9090 15.4715 0.8077
66.9290 15.4582 0.8042
66.9490 15.4449 0.8065
66.9690 15.4315 0.8031
66.9890 15.4182 0.8062
67.0090 15.4049 0.8012
67.0290 15.3916 0.8045
67.0490 15.3783 0.8013
67.0690 15.3650 0.8020
67.0890 15.3517 0.8006
67.1090 15.3383 0.8002
67.1290 15.3249 0.7998
67.1490 15.3116 0.7982
67.1690 15.2982 0.7988
67.1890 15.2849 0.7962
67.2090 15.2716 0.7988
67.2290 15.2582 0.7947
67.2490 15.2449 0.7965
67.2690 15.2316 0.7936
67.2890 15.2182 0.7955
67.3090 15.2049 0.7921
67.3290 15.1915 0.7943
67.3490 15.1782 0.7923
67.3690 15.1649 0.7922
67.3890 15.1516 0.7908
67.4090 15.1382 0.7914
67.4290 15.1250 0.7898
67.4490 15.1117 0.7890
67.4690 15.0983 0.7901
67.4890 15.0850 0.7863
67.5090 15.0716 0.7894
67.5290 15.0583 0.7856
67.5490 15.0449 0.7873
67.5690 15.0316 0.7839
67.5890 15.0182 0.7872
67.6090 15.0049 0.7821
67.6290 14.9916 0.7850
67.6490 14.9782 0.7814
67.6690 14.9649 0.7834
67.6890 14.9515 0.7810
67.7090 14.9382 0.7822
67.7290 14.9249 0.7791
67.7490 14.9116 0.7810
67.7690 14.8983 0.7792
67.7890 14.8850 0.7782
67.8090 14.8717 0.7792
67.8290 14.8583 0.7767
67.8490 14.8450 0.7771
67.8690 14.8316 0.7762
67.8890 14.8183 0.7762
67.9090 14.8050 0.7734
67.9290 14.7916 0.7750
67.9490 14.7782 0.7728
67.9690 14.7649 0.7736
67.9890 14.7516 0.7715
68.0090 14.7382 0.7733
68.0290 14.7248 0.7686
68.0490 14.7115 0.7722
68.0690 14.6982 0.7686
68.0890 14.6849 0.7691
68.1090 14.6716 0.7688
68.1290 14.6582 0.7674
68.1490 14.6449 0.7667
68.1690 14.6316 0.7655
68.1890 14.6183 0.7669
68.2090 14.6049 0.7628
68.2290 14.5916 0.7666
68.2490 14.5783 0.7619
68.2690 14.5649 0.7637
68.2890 14.5516 0.7613
68.3090 14.5382 0.7636
68.3290 14.5249 0.7589
68.3490 14.5116 0.7620
68.3690 14.4982 0.7593
68.3890 14.4849 0.7591
68.4090 14.4715 0.7588
68.4290 14.4582 0.7578
68.4490 14.4449 0.7575
68.4690 14.4316 0.7555
68.4890 14.4182 0.7574
68.5090 14.4049 0.7537
68.5290 14.3917 0.7568
68.5490 14.3783 0.7526
68.5690 14.3650 0.7545
68.5890 14.3516 0.7517
68.6090 14.3383 0.7536
68.6290 14.3250 0.7500
68.6490 14.3116 0.7516
68.6690 14.2982 0.7503
68.6890 14.2848 0.7494
68.7090 14.2715 0.7486
68.7290 14.2582 0.7490
68.7490 14.2449 0.7479
68.7690 14.2315 0.7462
68.7890 14.2183 0.7473
68.8090 14.2050 0.7443
68.8290 14.1916 0.7464
68.8490 14.1783 0.7443
68.8690 14.1649 0.7443
68.8890 14.1516 0.7419
68.9090 14.1383 0.7444
68.9290 14.1250 0.7402
68.9490 14.1116 0.7428
68.9690 14.0982 0.7395
68.9890 14.0849 0.7403
69.0090 14.0716 0.7387
69.0290 14.0582 0.7397
69.0490 14.0449 0.7371
69.0690 14.0316 0.7375
69.0890 14.0182 0.7382
69.1090 14.0049 0.7345
69.1290 13.9915 0.7379
69.1490 13.9782 0.7328
69.1690 13.9649 0.7367
69.1890 13.9516 0.7313
69.2090 13.9382 0.7367
69.2290 13.9249 0.7303
69.2490 13.9116 0.7343
69.2690 13.8983 0.7302
69.2890 13.8849 0.7328
69.3090 13.8716 0.7289
69.3290 13.8582 0.7312
69.3490 13.8449 0.7284
69.3690 13.8316 0.7284
69.3890 13.8182 0.7293
69.4090 13.8049 0.7252
69.4290 13.7916 0.7285
69.4490 13.7782 0.7238
69.4690 13.7649 0.7270
69.4890 13.7515 0.7226
69.5090 13.7382 0.7262
69.5290 13.7249 0.7211
69.5490 13.7116 0.7247
69.5690 13.6982 0.7211
69.5890 13.6849 0.7228
69.6090 13.6716 0.7196
69.6290 13.6583 0.7218
69.6490 13.6449 0.7184
69.6690 13.6316 0.7202
69.6890 13.6183 0.7188
69.7090 13.6049 0.7168
69.7290 13.5916 0.7175
69.7490 13.5782 0.7154
69.7690 13.5649 0.7164
69.7890 13.5516 0.7140
69.8090 13.5382 0.7154
69.8290 13.5249 0.7125
69.8490 13.5115 0.7139
69.8690 13.4982 0.7115
69.8890 13.4849 0.7125
69.9090 13.4716 0.7097
69.9290 13.4582 0.7122
69.9490 13.4449 0.7073
69.9690 13.4316 0.7100
69.9890 13.4183 0.7079
70.0090 13.4049 0.7081
70.0290 13.3916 0.7063
70.0490 13.3783 0.7065
70.0690 13.3650 0.7060
70.0890 13.3516 0.7037
70.1090 13.3382 0.7061
70.1290 13.3248 0.7015
70.1490 13.3115 0.7052
70.1690 13.2982 0.7002
70.1890 13.2849 0.7046
70.2090 13.2715 0.6987
70.2290 13.2582 0.7039
70.2490 13.2449 0.6969
70.2690 13.2316 0.7015
70.2890 13.2183 0.6976
70.3090 13.2050 0.6993
70.3290 13.1917 0.6965
70.3490 13.1783 0.6978
70.3690 13.1650 0.6969
70.3890 13.1516 0.6950
70.4090 13.1382 0.6963
70.4290 13.1249 0.6929
70.4490 13.1116 0.6957
70.4690 13.0982 0.6913
70.4890 13.0848 0.6947
70.5090 13.0715 0.6900
70.5290 13.0582 0.6932
70.5490 13.0449 0.6891
70.5690 13.0315 0.6906
70.5890 13.0182 0.6887
70.6090 13.0049 0.6892
70.6290 12.9916 0.6867
70.6490 12.9783 0.6890
70.6690 12.9649 0.6857
70.6890 12.9516 0.6867
70.7090 12.9383 0.6852
70.7290 12.9249 0.6848
70.7490 12.9116 0.6843
70.7690 12.8982 0.6832
70.7890 12.8849 0.6832
70.8090 12.8716 0.6804
70.8290 12.8582 0.6832
70.8490 12.8449 0.6801
70.8690 12.8316 0.6806
70.8890 12.8182 0.6787
70.9090 12.8049 0.6804
70.9290 12.7915 0.6763
70.9490 12.7782 0.6795
70.9690 12.7649 0.6755
70.9890 12.7516 0.6764
71.0090 12.7383 0.6762
71.0290 12.7249 0.6739
71.0490 12.7116 0.6753
71.0690 12.6983 0.6719
71.0890 12.6849 0.6753
71.1090 12.6716 0.6691
71.1290 12.6582 0.6754
71.1490 12.6449 0.6681
71.1690 12.6316 0.6720
71.1890 12.6182 0.6677
71.2090 12.6049 0.6710
71.2290 12.5916 0.6665
71.2490 12.5783 0.6691
71.2690 12.5649 0.6661
71.2890 12.5516 0.6666
71.3090 12.5382 0.6661
71.3290 12.5249 0.6645
71.3490 12.5116 0.6649
71.3690 12.4982 0.6631
71.3890 12.4849 0.6655
71.4090 12.4716 0.6608
71.4290 12.4583 0.6645
71.4490 12.4450 0.6609
71.4690 12.4316 0.6623
71.4890 12.4183 0.6601
71.5090 12.4049 0.6615
71.5290 12.3916 0.6577
71.5490 12.3783 0.6603
71.5690 12.3649 0.6568
71.5890 12.3516 0.6586
71.6090 12.3382 0.6561
71.6290 12.3249 0.6566
71.6490 12.3115 0.6550
71.6690 12.2982 0.6548
71.6890 12.2849 0.6544
71.7090 12.2716 0.6520
71.7290 12.2582 0.6540
71.7490 12.2449 0.6515
71.7690 12.2316 0.6513
71.7890 12.2183 0.6498
71.8090 12.2050 0.6508
71.8290 12.1916 0.6472
71.8490 12.1783 0.6503
71.8690 12.1650 0.6461
71.8890 12.1516 0.6474
71.9090 12.1383 0.6460
71.9290 12.1249 0.6463
71.9490 12.1115 0.6442
71.9690 12.0982 0.6450
71.9890 12.0849 0.6440
72.0090 12.0715 0.6414
72.0290 12.0582 0.6437
72.0490 12.0449 0.6403
72.0690 12.0316 0.6424
72.0890 12.0182 0.6390
72.1090 12.0049 0.6419
72.1290 11.9916 0.6371
72.1490 11.9783 0.6414
72.1690 11.9650 0.6365
72.1890 11.9516 0.6393
72.2090 11.9383 0.6349
72.2290 11.9249 0.6376
72.2490 11.9116 0.6331
72.2690 11.8983 0.6360
72.2890 11.8849 0.6337
72.3090 11.8716 0.6328
72.3290 11.8582 0.6325
72.3490 11.8449 0.6314
72.3690 11.8315 0.6314
72.3890 11.8182 0.6303
72.4090 11.8049 0.6310
72.4290 11.7916 0.6274
72.4490 11.7782 0.6301
72.4690 11.7649 0.6268
72.4890 11.7516 0.6280
72.5090 11.7383 0.6255
72.5290 11.7249 0.6270
72.5490 11.7116 0.6238
72.5690 11.6983 0.6257
72.5890 11.6850 0.6225
72.6090 11.6716 0.6234
72.6290 11.6583 0.6216
72.6490 11.6449 0.6229
72.6690 11.6316 0.6201
72.6890 11.6183 0.6207
72.7090 11.6050 0.6194
72.7290 11.5916 0.6180
72.7490 11.5782 0.6189
72.7690 11.5649 0.6178
72.7890 11.5516 0.6167
72.8090 11.5383 0.6158
72.8290 11.5249 0.6170
72.8490 11.5116 0.6132
72.8690 11.4983 0.6158
72.8890 11.4849 0.6125
72.9090 11.4716 0.6139
72.9290 11.4582 0.6112
72.9490 11.4450 0.6135
72.9690 11.4316 0.6098
72.9890 11.4183 0.6115
73.0090 11.4049 0.6102
73.0290 11.3915 0.6084
73.0490 11.3782 0.6086
73.0690 11.3649 0.6075
73.0890 11.3515 0.6083
73.1090 11.3382 0.6056
73.1290 11.3249 0.6074
73.1490 11.3116 0.6029
73.1690 11.2982 0.6069
73.1890 11.2849 0.6026
73.2090 11.2716 0.6046
73.2290 11.2583 0.6009
73.2490 11.2450 0.6031
73.2690 11.2316 0.5997
73.2890 11.2183 0.6009
73.3090 11.2049 0.6005
73.3290 11.1916 0.5978
73.3490 11.1783 0.5992
73.3690 11.1649 0.5966
73.3890 11.1516 0.5977
73.4090 11.1383 0.5945
73.4290 11.1249 0.5973
73.4490 11.1115 0.5930
73.4690 11.0981 0.5956
73.4890 11.0848 0.5922
73.5090 11.0715 0.5942
73.5290 11.0582 0.5903
73.5490 11.0449 0.5940
73.5690 11.0316 0.5896
73.5890 11.0183 0.5914
73.6090 11.0050 0.5894
73.6290 10.9916 0.5886
73.6490 10.9783 0.5887
73.6690 10.9650 0.5877
73.6890 10.9517 0.5864
73.7090 10.9383 0.5860
73.7290 10.9249 0.5861
73.7490 10.9115 0.5841
73.7690 10.8982 0.5848
73.7890 10.8849 0.5824
73.8090 10.8715 0.5839
73.8290 10.8582 0.5807
73.8490 10.8449 0.5834
73.8690 10.8316 0.5790
73.8890 10.8182 0.5814
73.9090 10.8049 0.5792
73.9290 10.7916 0.5796
73.9490 10.7783 0.5772
73.9690 10.7650 0.5783
73.9890 10.7516 0.5762
74.0090 10.7382 0.5765
74.0290 10.7249 0.5760
74.0490 10.7116 0.5742
74.0690 10.6983 0.5739
74.0890 10.6849 0.5732
74.1090 10.6715 0.5734
74.1290 10.6582 0.5708
74.1490 10.6449 0.5732
74.1690 10.6315 0.5687
74.1890 10.6182 0.5711
74.2090 10.6049 0.5685
74.2290 10.5916 0.5687
74.2490 10.5782 0.5673
74.2690 10.5649 0.5678
74.2890 10.5516 0.5658
74.3090 10.5383 0.5647
74.3290 10.5250 0.5658
74.3490 10.5116 0.5637
74.3690 10.4982 0.5638
74.3890 10.4849 0.5629
74.4090 10.4716 0.5621
74.4290 10.4582 0.5608
74.4490 10.4449 0.5617
74.4690 10.4315 0.5590
74.4890 10.4182 0.5604
74.5090 10.4049 0.5581
74.5290 10.3916 0.5591
74.5490 10.3782 0.5557
74.5690 10.3649 0.5583
74.5890 10.3516 0.5541
74.6090 10.3382 0.5570
74.6290 10.3249 0.5535
74.6490 10.3116 0.5549
74.6690 10.2983 0.5513
74.6890 10.2850 0.5539
74.7090 10.2716 0.5507
74.7290 10.2582 0.5515
74.7490 10.2449 0.5509
74.7690 10.2316 0.5493
74.7890 10.2183 0.5490
74.8090 10.2049 0.5473
74.8290 10.1915 0.5496
74.8490 10.1782 0.5444
74.8690 10.1649 0.5491
74.8890 10.1516 0.5425
74.9090 10.1382 0.5467
74.9290 10.1249 0.5433
74.9490 10.1115 0.5442
74.9690 10.0982 0.5421
74.9890 10.0849 0.5428
75.0090 10.0716 0.5412
75.0290 10.0583 0.5398
75.0490 10.0450 0.5410
75.0690 10.0316 0.5389
75.0890 10.0183 0.5392
75.1090 10.0050 0.5374
75.1290 9.9917 0.5378
75.1490 9.9783 0.5350
75.1690 9.9649 0.5378
75.1890 9.9515 0.5345
75.2090 9.9382 0.5355
75.2290 9.9249 0.5335
75.2490 9.9115 0.5340
75.2690 9.8982 0.5319
75.2890 9.8848 0.5326
75.3090 9.8715 0.5313
75.3290 9.8582 0.5303
75.3490 9.8449 0.5305
75.3690 9.8316 0.5289
75.3890 9.8183 0.5284
75.4090 9.8050 0.5274
75.4290 9.7916 0.5275
75.4490 9.7782 0.5250
75.4690 9.7649 0.5272
75.4890 9.7516 0.5233
75.5090 9.7383 0.5251
75.5290 9.7249 0.5219
75.5490 9.7115 0.5243
75.5690 9.6982 0.5204
75.5890 9.6849 0.5223
75.6090 9.6715 0.5197
75.6290 9.6582 0.5212
75.6490 9.6449 0.5189
75.6690 9.6316 0.5195
75.6890 9.6183 0.5168
75.7090 9.6049 0.5181
75.7290 9.5916 0.5169
75.7490 9.5783 0.5149
75.7690 9.5650 0.5161
75.7890 9.5517 0.5136
75.8090 9.5383 0.5149
75.8290 9.5250 0.5117
75.8490 9.5116 0.5139
75.8690 9.4983 0.5097
75.8890 9.4849 0.5124
75.9090 9.4715 0.5086
75.9290 9.4582 0.5097
75.9490 9.4449 0.5086
75.9690 9.4315 0.5092
75.9890 9.4182 0.5060
76.0090 9.4049 0.5077
76.0290 9.3916 0.5056
76.0490 9.3783 0.5048
76.0690 9.3649 0.5056
76.0890 9.3516 0.5037
76.1090 9.3383 0.5036
76.1290 9.3250 0.5012
76.1490 9.3116 0.5024
76.1690 9.2983 0.4994
76.1890 9.2849 0.5016
76.2090 9.2716 0.4984
76.2290 9.2583 0.4992
76.2490 9.2449 0.4969
76.2690 9.2315 0.4984
76.2890 9.2182 0.4945
76.3090 9.2049 0.4972
76.3290 9.1916 0.4938
76.3490 9.1782 0.4953
76.3690 9.1649 0.4930
76.3890 9.1516 0.4934
76.4090 9.1382 0.4916
76.4290 9.1249 0.4923
76.4490 9.1115 0.4912
76.4690 9.0982 0.4898
76.4890 9.0849 0.4908
76.5090 9.0716 0.4882
76.5290 9.0582 0.4883
76.5490 9.0449 0.4868
76.5690 9.0316 0.4881
76.5890 9.0183 0.4843
76.6090 9.0049 0.4869
76.6290 8.9916 0.4835
76.6490 8.9782 0.4854
76.6690 8.9649 0.4825
76.6890 8.9516 0.4843
76.7090 8.9382 0.4808
76.7290 8.9249 0.4827
76.7490 8.9116 0.4800
76.7690 8.8982 0.4797
76.7890 8.8849 0.4798
76.8090 8.8715 0.4785
76.8290 8.8582 0.4784
76.8490 8.8449 0.4757
76.8690 8.8316 0.4783
76.8890 8.8183 0.4739
76.9090 8.8049 0.4770
76.9290 8.7916 0.4722
76.9490 8.7783 0.4752
76.9690 8.7649 0.4715
76.9890 8.7516 0.4737
77.0090 8.7382 0.4693
77.0290 8.7249 0.4714
77.0490 8.7116 0.4694
77.0690 8.6982 0.4682
77.0890 8.6849 0.4689
77.1090 8.6716 0.4668
77.1290 8.6583 0.4668
77.1490 8.6449 0.4645
77.1690 8.6316 0.4663
77.1890 8.6183 0.4620
77.2090 8.6050 0.4654
77.2290 8.5916 0.4609
77.2490 8.5783 0.4629
77.2690 8.5649 0.4602
77.2890 8.5516 0.4622
77.3090 8.5383 0.4584
77.3290 8.5249 0.4603
77.3490 8.5115 0.4577
77.3690 8.4982 0.4585
77.3890 8.4849 0.4565
77.4090 8.4716 0.4570
77.4290 8.4582 0.4557
77.4490 8.4449 0.4541
77.4690 8.4316 0.4553
77.4890 8.4183 0.4520
77.5090 8.4050 0.4542
77.5290 8.3916 0.4512
77.5490 8.3783 0.4524
77.5690 8.3650 0.4488
77.5890 8.3517 0.4519
77.6090 8.3383 0.4465
77.6290 8.3249 0.4506
77.6490 8.3116 0.4465
77.6690 8.2982 0.4473
77.6890 8.2849 0.4454
77.7090 8.2715 0.4460
77.7290 8.2582 0.4445
77.7490 8.2449 0.4436
77.7690 8.2316 0.4443
77.7890 8.2182 0.4409
77.8090 8.2049 0.4428
77.8290 8.1916 0.4400
77.8490 8.1783 0.4413
77.8690 8.1649 0.4383
77.8890 8.1516 0.4403
77.9090 8.1383 0.4362
77.9290 8.1249 0.4388
77.9490 8.1116 0.4355
77.9690 8.0983 0.4374
77.9890 8.0849 0.4337
78.0090 8.0716 0.4353
78.0290 8.0583 0.4334
78.0490 8.0449 0.4324
78.0690 8.0315 0.4333
78.0890 8.0182 0.4305
78.1090 8.0049 0.4317
78.1290 7.9916 0.4292
78.1490 7.9782 0.4303
78.1690 7.9649 0.4272
78.1890 7.9516 0.4301
78.2090 7.9383 0.4255
78.2290 7.9249 0.4276
78.2490 7.9116 0.4243
78.2690 7.8982 0.4265
78.2890 7.8849 0.4223
78.3090 7.8716 0.4250
78.3290 7.8582 0.4209
78.3490 7.8449 0.4228
78.3690 7.8316 0.4202
78.3890 7.8183 0.4205
78.4090 7.8049 0.4197
78.4290 7.7916 0.4193
78.4490 7.7782 0.4177
78.4690 7.7649 0.4169
78.4890 7.7516 0.4174
78.5090 7.7383 0.4148
78.5290 7.7249 0.4158
78.5490 7.7116 0.4131
78.5690 7.6983 0.4149
78.5890 7.6849 0.4101
78.6090 7.6716 0.4142
78.6290 7.6582 0.4092
78.6490 7.6449 0.4111
78.6690 7.6316 0.4084
78.6890 7.6183 0.4096
78.7090 7.6049 0.4078
78.7290 7.5916 0.4080
78.7490 7.5783 0.4064
78.7690 7.5649 0.4050
78.7890 7.5516 0.4065
78.8090 7.5382 0.4035
78.8290 7.5249 0.4054
78.8490 7.5116 0.4015
78.8690 7.4982 0.4035
78.8890 7.4848 0.3996
78.9090 7.4715 0.4031
78.9290 7.4582 0.3985
78.9490 7.4449 0.4001
78.9690 7.4315 0.3983
78.9890 7.4182 0.3973
79.0090 7.4050 0.3968
79.0290 7.3916 0.3969
79.0490 7.3783 0.3962
79.0690 7.3649 0.3941
79.0890 7.3516 0.3947
79.1090 7.3383 0.3923
79.1290 7.3249 0.3927
79.1490 7.3116 0.3906
79.1690 7.2982 0.3919
79.1890 7.2849 0.3881
79.2090 7.2715 0.3912
79.2290 7.2582 0.3861
79.2490 7.2448 0.3894
79.2690 7.2315 0.3861
79.2890 7.2182 0.3878
79.3090 7.2049 0.3839
79.3290 7.1916 0.3868
79.3490 7.1782 0.3834
79.3690 7.1649 0.3835
79.3890 7.1516 0.3833
79.4090 7.1383 0.3820
79.4290 7.1249 0.3811
79.4490 7.1116 0.3805
79.4690 7.0983 0.3799
79.4890 7.0849 0.3775
79.5090 7.0716 0.3798
79.5290 7.0582 0.3756
79.5490 7.0449 0.3775
79.5690 7.0316 0.3754
79.5890 7.0182 0.3763
79.6090 7.0049 0.3729
79.6290 6.9916 0.3752
79.6490 6.9782 0.3722
79.6690 6.9649 0.3724
79.6890 6.9516 0.3723
79.7090 6.9382 0.3708
79.7290 6.9250 0.3698
79.7490 6.9116 0.3690
79.7690 6.8983 0.3694
79.7890 6.8849 0.3670
79.8090 6.8716 0.3683
79.8290 6.8583 0.3651
79.8490 6.8450 0.3657
79.8690 6.8316 0.3640
79.8890 6.8182 0.3652
79.9090 6.8049 0.3622
79.9290 6.7916 0.3638
79.9490 6.7783 0.3610
79.9690 6.7649 0.3613
79.9890 6.7515 0.3607
80.0090 6.7382 0.3590
80.0290 6.7249 0.3587
80.0490 6.7116 0.3572
80.0690 6.6982 0.3579
80.0890 6.6849 0.3553
80.1090 6.6716 0.3568
80.1290 6.6583 0.3544
80.1490 6.6449 0.3544
80.1690 6.6316 0.3530
80.1890 6.6183 0.3543
80.2090 6.6049 0.3502
80.2290 6.5916 0.3530
80.2490 6.5782 0.3487
80.2690 6.5649 0.3510
80.2890 6.5516 0.3481
80.3090 6.5382 0.3494
80.3290 6.5248 0.3462
80.3490 6.5115 0.3481
80.3690 6.4982 0.3457
80.3890 6.4849 0.3458
80.4090 6.4716 0.3444
80.4290 6.4582 0.3450
80.4490 6.4449 0.3419
80.4690 6.4316 0.3426
80.4890 6.4183 0.3418
80.5090 6.4049 0.3393
80.5290 6.3916 0.3415
80.5490 6.3783 0.3378
80.5690 6.3650 0.3389
80.5890 6.3516 0.3364
80.6090 6.3382 0.3382
80.6290 6.3249 0.3346
80.6490 6.3116 0.3364
80.6690 6.2982 0.3344
80.6890 6.2849 0.3344
80.7090 6.2715 0.3326
80.7290 6.2582 0.3325
80.7490 6.2449 0.3318
80.7690 6.2316 0.3309
80.7890 6.2182 0.3311
80.8090 6.2049 0.3284
80.8290 6.1916 0.3305
80.8490 6.1783 0.3263
80.8690 6.1649 0.3280
80.8890 6.1516 0.3254
80.9090 6.1383 0.3264
80.9290 6.1250 0.3235
80.9490 6.1116 0.3242
80.9690 6.0982 0.3240
80.9890 6.0849 0.3220
81.0090 6.0716 0.3220
81.0290 6.0582 0.3200
81.0490 6.0449 0.3206
81.0690 6.0315 0.3187
81.0890 6.0182 0.3197
81.1090 6.0049 0.3166
81.1290 5.9916 0.3198
81.1490 5.9782 0.3153
81.1690 5.9650 0.3175
81.1890 5.9517 0.3134
81.2090 5.9383 0.3159
81.2290 5.9249 0.3119
81.2490 5.9116 0.3138
81.2690 5.8983 0.3111
81.2890 5.8849 0.3114
81.3090 5.8716 0.3096
81.3290 5.8582 0.3105
81.3490 5.8449 0.3081
81.3690 5.8316 0.3093
81.3890 5.8182 0.3079
81.4090 5.8049 0.3073
81.4290 5.7915 0.3064
81.4490 5.7782 0.3050
81.4690 5.7649 0.3058
81.4890 5.7516 0.3029
81.5090 5.7382 0.3054
81.5290 5.7249 0.3011
81.5490 5.7117 0.3031
81.5690 5.6983 0.2998
81.5890 5.6849 0.3023
81.6090 5.6715 0.2990
81.6290 5.6582 0.3006
81.6490 5.6449 0.2970
81.6690 5.6315 0.2979
81.6890 5.6182 0.2971
81.7090 5.6049 0.2946
81.7290 5.5916 0.2956
81.7490 5.5782 0.2928
81.7690 5.5649 0.2943
81.7890 5.5515 0.2905
81.8090 5.5382 0.2935
81.8290 5.5249 0.2888
81.8490 5.5116 0.2923
81.8690 5.4982 0.2881
81.8890 5.4849 0.2904
81.9090 5.4716 0.2867
81.9290 5.4583 0.2889
81.9490 5.4449 0.2856
81.9690 5.4316 0.2862
81.9890 5.4183 0.2850
82.0090 5.4049 0.2839
82.0290 5.3916 0.2841
82.0490 5.3782 0.2829
82.0690 5.3649 0.2829
82.0890 5.3516 0.2804
82.1090 5.3382 0.2822
82.1290 5.3249 0.2787
82.1490 5.3115 0.2802
82.1690 5.2982 0.2772
82.1890 5.2849 0.2790
82.2090 5.2716 0.2749
82.2290 5.2582 0.2776
82.2490 5.2449 0.2741
82.2690 5.2316 0.2751
82.2890 5.2183 0.2738
82.3090 5.2049 0.2738
82.3290 5.1916 0.2713
82.3490 5.1783 0.2731
82.3690 5.1650 0.2691
82.3890 5.1516 0.2714
82.4090 5.1382 0.2690
82.4290 5.1249 0.2681
82.4490 5.1116 0.2675
82.4690 5.0982 0.2662
82.4890 5.0848 0.2673
82.5090 5.0715 0.2641
82.5290 5.0582 0.2667
82.5490 5.0449 0.2623
82.5690 5.0316 0.2648
82.5890 5.0182 0.2613
82.6090 5.0049 0.2635
82.6290 4.9916 0.2589
82.6490 4.9783 0.2622
82.6690 4.9650 0.2580
82.6890 4.9516 0.2602
82.7090 4.9383 0.2573
82.7290 4.9249 0.2577
82.7490 4.9116 0.2564
82.7690 4.8982 0.2552
82.7890 4.8849 0.2567
82.8090 4.8716 0.2529
82.8290 4.8583 0.2548
82.8490 4.8449 0.2512
82.8690 4.8315 0.2528
82.8890 4.8182 0.2508
82.9090 4.8049 0.2510
82.9290 4.7915 0.2491
82.9490 4.7782 0.2500
82.9690 4.7649 0.2483
82.9890 4.7516 0.2478
83.0090 4.7383 0.2467
83.0290 4.7250 0.2464
83.0490 4.7116 0.2447
83.0690 4.6983 0.2446
83.0890 4.6849 0.2442
83.1090 4.6716 0.2430
83.1290 4.6582 0.2430
83.1490 4.6448 0.2414
83.1690 4.6315 0.2411
83.1890 4.6182 0.2395
83.2090 4.6049 0.2400
83.2290 4.5915 0.2375
83.2490 4.5782 0.2392
83.2690 4.5649 0.2356
83.2890 4.5516 0.2380
83.3090 4.5383 0.2335
83.3290 4.5249 0.2368
83.3490 4.5116 0.2324
83.3690 4.4983 0.2344
83.3890 4.4850 0.2310
83.4090 4.4716 0.2318
83.4290 4.4583 0.2316
83.4490 4.4449 0.2300
83.4690 4.4316 0.2302
83.4890 4.4182 0.2273
83.5090 4.4049 0.2292
83.5290 4.3916 0.2250
83.5490 4.3783 0.2278
83.5690 4.3649 0.2236
83.5890 4.3516 0.2258
83.6090 4.3383 0.2230
83.6290 4.3249 0.2244
83.6490 4.3116 0.2215
83.6690 4.2982 0.2227
83.6890 4.2849 0.2202
83.7090 4.2716 0.2198
83.7290 4.2583 0.2195
83.7490 4.2449 0.2186
83.7690 4.2315 0.2177
83.7890 4.2182 0.2170
83.8090 4.2049 0.2171
83.8290 4.1916 0.2153
83.8490 4.1782 0.2152
83.8690 4.1649 0.2146
83.8890 4.1516 0.2127
83.9090 4.1382 0.2125
83.9290 4.1249 0.2120
83.9490 4.1115 0.2099
83.9690 4.0982 0.2116
83.9890 4.0849 0.2090
84.0090 4.0716 0.2088
84.0290 4.0582 0.2076
84.0490 4.0449 0.2077
84.0690 4.0316 0.2058
84.0890 4.0183 0.2051
84.1090 4.0049 0.2051
84.1290 3.9916 0.2025
84.1490 3.9782 0.2041
84.1690 3.9649 0.2018
84.1890 3.9516 0.2023
84.2090 3.9382 0.2001
84.2290 3.9249 0.2011
84.2490 3.9116 0.1981
84.2690 3.8982 0.1996
84.2890 3.8849 0.1970
84.3090 3.8715 0.1977
84.3290 3.8582 0.1950
84.3490 3.8449 0.1963
84.3690 3.8316 0.1952
84.3890 3.8182 0.1947
84.4090 3.8049 0.1936
84.4290 3.7916 0.1913
84.4490 3.7783 0.1927
84.4690 3.7649 0.1898
84.4890 3.7516 0.1915
84.5090 3.7383 0.1880
84.5290 3.7250 0.1901
84.5490 3.7116 0.1856
84.5690 3.6982 0.1884
84.5890 3.6848 0.1849
84.6090 3.6715 0.1866
84.6290 3.6582 0.1834
84.6490 3.6449 0.1847
84.6690 3.6315 0.1819
84.6890 3.6182 0.1833
84.7090 3.6049 0.1810
84.7290 3.5916 0.1808
84.7490 3.5783 0.1803
84.7690 3.5650 0.1788
84.7890 3.5517 0.1790
84.8090 3.5383 0.1764
84.8290 3.5250 0.1772
84.8490 3.5116 0.1751
84.8690 3.4982 0.1752
84.8890 3.4849 0.1741
84.9090 3.4716 0.1737
84.9290 3.4582 0.1719
84.9490 3.4448 0.1732
84.9690 3.4315 0.1697
84.9890 3.4182 0.1707
85.0090 3.4049 0.1685
85.0290 3.3916 0.1684
85.0490 3.3782 0.1671
85.0690 3.3649 0.1673
85.0890 3.3516 0.1659
85.1090 3.3383 0.1654
85.1290 3.3249 0.1648
85.1490 3.3116 0.1632
85.1690 3.2983 0.1630
85.1890 3.2850 0.1615
85.2090 3.2716 0.1624
85.2290 3.2582 0.1593
85.2490 3.2449 0.1614
85.2690 3.2316 0.1565
85.2890 3.2183 0.1594
85.3090 3.2049 0.1563
85.3290 3.1916 0.1572
85.3490 3.1783 0.1547
85.3690 3.1649 0.1553
85.3890 3.1515 0.1543
85.4090 3.1382 0.1528
85.4290 3.1249 0.1539
85.4490 3.1116 0.1502
85.4690 3.0983 0.1513
85.4890 3.0849 0.1489
85.5090 3.0716 0.1504
85.5290 3.0583 0.1462
85.5490 3.0449 0.1499
85.5690 3.0316 0.1455
85.5890 3.0182 0.1476
85.6090 3.0049 0.1442
85.6290 2.9916 0.1446
85.6490 2.9782 0.1430
85.6690 2.9649 0.1429
85.6890 2.9516 0.1429
85.7090 2.9383 0.1403
85.7290 2.9249 0.1422
85.7490 2.9116 0.1389
85.7690 2.8982 0.1397
85.7890 2.8849 0.1375
85.8090 2.8716 0.1376
85.8290 2.8582 0.1357
85.8490 2.8449 0.1358
85.8690 2.8316 0.1341
85.8890 2.8183 0.1336
85.9090 2.8050 0.1330
85.9290 2.7916 0.1324
85.9490 2.7783 0.1316
85.9690 2.7649 0.1308
85.9890 2.7516 0.1306
86.0090 2.7382 0.1298
86.0290 2.7249 0.1313
86.0490 2.7115 0.1298
86.0690 2.6982 0.1294
86.0890 2.6849 0.1278
86.1090 2.6715 0.1274
86.1290 2.6582 0.1247
86.1490 2.6449 0.1263
86.1690 2.6316 0.1226
86.1890 2.6182 0.1246
86.2090 2.6049 0.1212
86.2290 2.5916 0.1225
86.2490 2.5783 0.1179
86.2690 2.5650 0.1205
86.2890 2.5516 0.1160
86.3090 2.5382 0.1180
86.3290 2.5249 0.1147
86.3490 2.5116 0.1148
86.3690 2.4983 0.1137
86.3890 2.4849 0.1140
86.4090 2.4715 0.1140
86.4290 2.4582 0.1111
86.4490 2.4449 0.1126
86.4690 2.4315 0.1089
86.4890 2.4182 0.1098
86.5090 2.4049 0.1074
86.5290 2.3916 0.1085
86.5490 2.3782 0.1052
86.5690 2.3649 0.1069
86.5890 2.3516 0.1041
86.6090 2.3383 0.1045
86.6290 2.3250 0.1031
86.6490 2.3116 0.1019
86.6690 2.2982 0.1013
86.6890 2.2849 0.1003
86.7090 2.2716 0.1003
86.7290 2.2583 0.0997
86.7490 2.2449 0.0997
86.7690 2.2316 0.0977
86.7890 2.2182 0.0968
86.8090 2.2049 0.0955
86.8290 2.1915 0.0949
86.8490 2.1782 0.0929
86.8690 2.1649 0.0933
86.8890 2.1516 0.0912
86.9090 2.1382 0.0926
86.9290 2.1249 0.0892
86.9490 2.1116 0.0918
86.9690 2.0983 0.0857
86.9890 2.0850 0.0893
87.0090 2.0716 0.0850
87.0290 2.0582 0.0862
87.0490 2.0449 0.0837
87.0690 2.0316 0.0844
87.0890 2.0182 0.0821
87.1090 2.0049 0.0833
87.1290 1.9915 0.0824
87.1490 1.9783 0.0790
87.1690 1.9650 0.0813
87.1890 1.9516 0.0774
87.2090 1.9382 0.0806
87.2290 1.9249 0.0760
87.2490 1.9116 0.0800
87.2690 1.8983 0.0744
87.2890 1.8849 0.0786
87.3090 1.8716 0.0738
87.3290 1.8583 0.0752
87.3490 1.8449 0.0731
87.3690 1.8316 0.0735
87.3890 1.8182 0.0728
87.4090 1.8049 0.0722
87.4290 1.7916 0.0715
87.4490 1.7783 0.0690
87.4690 1.7649 0.0710
87.4890 1.7515 0.0679
87.5090 1.7382 0.0687
87.5290 1.7249 0.0658
87.5490 1.7116 0.0682
87.5690 1.6982 0.0644
87.5890 1.6849 0.0667
87.6090 1.6716 0.0647
87.6290 1.6582 0.0657
87.6490 1.6449 0.0645
87.6690 1.6316 0.0650
87.6890 1.6183 0.0625
87.7090 1.6050 0.0620
87.7290 1.5916 0.0607
87.7490 1.5783 0.0601
87.7690 1.5649 0.0594
87.7890 1.5516 0.0591
87.8090 1.5383 0.0577
87.8290 1.5249 0.0563
87.8490 1.5116 0.0575
87.8690 1.4983 0.0538
87.8890 1.4849 0.0555
87.9090 1.4715 0.0518
87.9290 1.4582 0.0542
87.9490 1.4449 0.0496
87.9690 1.4316 0.0530
87.9890 1.4182 0.0479
88.0090 1.4049 0.0508
88.0290 1.3916 0.0474
88.0490 1.3783 0.0474
88.0690 1.3650 0.0463
88.0890 1.3516 0.0453
88.1090 1.3383 0.0446
88.1290 1.3249 0.0425
88.1490 1.3116 0.0436
88.1690 1.2983 0.0398
88.1890 1.2849 0.0416
88.2090 1.2715 0.0381
88.2290 1.2582 0.0394
88.2490 1.2449 0.0364
88.2690 1.2315 0.0374
88.2890 1.2182 0.0341
88.3090 1.2049 0.0348
88.3290 1.1916 0.0332
88.3490 1.1783 0.0325
88.3690 1.1649 0.0312
88.3890 1.1516 0.0311
88.4090 1.1383 0.0286
88.4290 1.1250 0.0278
88.4490 1.1116 0.0273
88.4690 1.0983 0.0254
88.4890 1.0849 0.0252
88.5090 1.0716 0.0235
88.5290 1.0583 0.0227
88.5490 1.0449 0.0221
88.5690 1.0315 0.0210
88.5890 1.0182 0.0190
88.6090 1.0049 0.0189
88.6290 0.9916 0.0174
88.6490 0.9782 0.0172
88.6690 0.9649 0.0148
88.6890 0.9516 0.0147
88.7090 0.9383 0.0124
88.7290 0.9249 0.0127
88.7490 0.9116 0.0114
88.7690 0.8983 0.0094
88.7890 0.8850 0.0092
88.8090 0.8716 0.0072
88.8290 0.8583 0.0078
88.8490 0.8449 0.0044
88.8690 0.8316 0.0061
88.8890 0.8182 0.0012
88.9090 0.8049 0.0036
88.9290 0.7915 0.0005
88.9490 0.7782 0.0013
88.9690 0.7649 -0.0027
88.9890 0.7516 -0.0008
89.0090 0.7382 -0.0042
89.0290 0.7249 -0.0041
89.0490 0.7116 -0.0047
89.0690 0.6983 -0.0068
89.0890 0.6849 -0.0066
89.1090 0.6716 -0.0083
89.1290 0.6583 -0.0085
89.1490 0.6450 -0.0121
89.1690 0.6317 -0.0086
89.1890 0.6183 -0.0142
89.2090 0.6049 -0.0106
89.2290 0.5916 -0.0154
89.2490 0.5782 -0.0128
89.2690 0.5649 -0.0169
89.2890 0.5515 -0.0135
89.3090 0.5382 -0.0174
89.3290 0.5249 -0.0166
89.3490 0.5116 -0.0180
89.3690 0.4982 -0.0186
89.3890 0.4848 -0.0190
89.4090 0.4715 -0.0193
89.4290 0.4582 -0.0190
89.4490 0.4449 -0.0220
89.4690 0.4316 -0.0183
89.4890 0.4183 -0.0233
89.5090 0.4050 -0.0198
89.5290 0.3916 -0.0235
89.5490 0.3783 -0.0210
89.5690 0.3650 -0.0234
89.5890 0.3517 -0.0221
89.6090 0.3383 -0.0237
89.6290 0.3249 -0.0228
89.6490 0.3115 -0.0224
89.6690 0.2982 -0.0234
89.6890 0.2849 -0.0235
89.7090 0.2715 -0.0227
89.7290 0.2582 -0.0221
89.7490 0.2448 -0.0247
89.7690 0.2315 -0.0210
89.7890 0.2182 -0.0245
89.8090 0.2049 -0.0210
89.8290 0.1916 -0.0239
89.8490 0.1783 -0.0211
89.8690 0.1650 -0.0249
89.8890 0.1516 -0.0208
89.9090 0.1383 -0.0247
89.9290 0.1249 -0.0207
89.9490 0.1116 -0.0243
89.9690 0.0983 -0.0214
89.9890 0.0849 -0.0249
90.0090 0.0715 -0.0209
90.0290 0.0582 -0.0241
90.0490 0.0449 -0.0231
90.0690 0.0315 -0.0220
90.0890 0.0182 -0.0239
90.1090 0.0049 -0.0204
90.1170 -0.0003 -0.0196
