Raw Data
Time Displacement Force
(s) (mm) (N)
0.0000 0.0000 -0.0223
0.0200 0.0001 -0.0213
0.0400 0.0019 -0.0085
0.0600 0.0090 -0.0135
0.0800 0.0206 -0.0218
0.1000 0.0330 -0.0226
0.1200 0.0455 -0.0205
0.1400 0.0589 -0.0197
0.1600 0.0730 -0.0197
0.1800 0.0873 -0.0203
0.2000 0.1013 -0.0192
0.2200 0.1149 -0.0179
0.2400 0.1283 -0.0166
0.2600 0.1416 -0.0159
0.2800 0.1549 -0.0136
0.3000 0.1682 -0.0134
0.3200 0.1815 -0.0120
0.3400 0.1949 -0.0084
0.3600 0.2082 -0.0092
0.3800 0.2215 -0.0053
0.4000 0.2349 -0.0062
0.4200 0.2482 -0.0026
0.4400 0.2616 -0.0029
0.4600 0.2749 0.0008
0.4800 0.2882 0.0012
0.5000 0.3016 0.0035
0.5200 0.3150 0.0067
0.5400 0.3283 0.0073
0.5600 0.3416 0.0108
0.5800 0.3550 0.0121
0.6000 0.3683 0.0147
0.6200 0.3817 0.0156
0.6400 0.3950 0.0197
0.6600 0.4082 0.0192
0.6800 0.4215 0.0248
0.7000 0.4349 0.0239
0.7200 0.4482 0.0284
0.7400 0.4616 0.0281
0.7600 0.4749 0.0333
0.7800 0.4882 0.0327
0.8000 0.5016 0.0364
0.8200 0.5149 0.0379
0.8400 0.5283 0.0404
0.8600 0.5417 0.0418
0.8800 0.5550 0.0455
0.9000 0.5683 0.0462
0.9200 0.5816 0.0492
0.9400 0.5950 0.0511
0.9600 0.6083 0.0526
0.9800 0.6216 0.0561
1.0000 0.6349 0.0566
1.0200 0.6482 0.0605
1.0400 0.6615 0.0601
1.0600 0.6749 0.0653
1.0800 0.6882 0.0640
1.1000 0.7015 0.0697
1.1200 0.7149 0.0686
1.1400 0.7282 0.0734
1.1600 0.7416 0.0723
1.1800 0.7549 0.0775
1.2000 0.7682 0.0771
1.2200 0.7816 0.0814
1.2400 0.7950 0.0822
1.2600 0.8083 0.0843
1.2800 0.8216 0.0874
1.3000 0.8349 0.0882
1.3200 0.8483 0.0922
1.3400 0.8617 0.0907
1.3600 0.8750 0.0962
1.3800 0.8883 0.0949
1.4000 0.9016 0.1001
1.4200 0.9150 0.0993
1.4400 0.9283 0.1038
1.4600 0.9416 0.1039
1.4800 0.9549 0.1075
1.5000 0.9682 0.1086
1.5200 0.9815 0.1103
1.5400 0.9949 0.1132
1.5600 1.0082 0.1136
1.5800 1.0216 0.1171
1.6000 1.0349 0.1180
1.6200 1.0483 0.1217
1.6400 1.0616 0.1207
1.6600 1.0750 0.1265
1.6800 1.0884 0.1244
1.7000 1.1017 0.1294
1.7200 1.1150 0.1288
1.7400 1.1283 0.1336
1.7600 1.1416 0.1332
1.7800 1.1549 0.1373
1.8000 1.1682 0.1371
1.8200 1.1815 0.1397
1.8400 1.1948 0.1417
1.8600 1.2082 0.1433
1.8800 1.2216 0.1455
1.9000 1.2349 0.1470
1.9200 1.2482 0.1493
1.9400 1.2616 0.1498
1.9600 1.2750 0.1539
1.9800 1.2883 0.1534
2.0000 1.3017 0.1580
2.0200 1.3150 0.1569
2.0400 1.3283 0.1617
2.0600 1.3417 0.1595
2.0800 1.3550 0.1661
2.1000 1.3683 0.1643
2.1200 1.3816 0.1688
2.1400 1.3949 0.1686
2.1600 1.4082 0.1713
2.1800 1.4215 0.1715
2.2000 1.4348 0.1759
2.2200 1.4482 0.1753
2.2400 1.4616 0.1781
2.2600 1.4749 0.1796
2.2800 1.4882 0.1811
2.3000 1.5016 0.1832
2.3200 1.5150 0.1844
2.3400 1.5284 0.1878
2.3600 1.5417 0.1867
2.3800 1.5550 0.1918
2.4000 1.5683 0.1904
2.4200 1.5817 0.1940
2.4400 1.5950 0.1945
2.4600 1.6083 0.1977
2.4800 1.6216 0.1973
2.5000 1.6349 0.2014
2.5200 1.6482 0.2014
2.5400 1.6615 0.2040
2.5600 1.6748 0.2055
2.5800 1.6882 0.2075
2.6000 1.7016 0.2083
2.6200 1.7149 0.2099
2.6400 1.7283 0.2133
2.6600 1.7416 0.2122
2.6800 1.7550 0.2170
2.7000 1.7684 0.2155
2.7200 1.7816 0.2193
2.7400 1.7950 0.2202
2.7600 1.8083 0.2226
2.7800 1.8217 0.2230
2.8000 1.8350 0.2260
2.8200 1.8483 0.2265
2.8400 1.8616 0.2289
2.8600 1.8749 0.2303
2.8800 1.8883 0.2320
2.9000 1.9016 0.2334
2.9200 1.9149 0.2349
2.9400 1.9283 0.2373
2.9600 1.9416 0.2368
2.9800 1.9549 0.2414
3.0000 1.9682 0.2396
3.0200 1.9816 0.2445
3.0400 1.9950 0.2428
3.0600 2.0083 0.2483
3.0800 2.0216 0.2456
3.1000 2.0349 0.2517
3.1200 2.0482 0.2492
3.1400 2.0617 0.2545
3.1600 2.0750 0.2523
3.1800 2.0883 0.2574
3.2000 2.1016 0.2555
3.2200 2.1150 0.2595
3.2400 2.1283 0.2605
3.2600 2.1416 0.2607
3.2800 2.1549 0.2648
3.3000 2.1682 0.2636
3.3200 2.1816 0.2678
3.3400 2.1949 0.2666
3.3600 2.2082 0.2718
3.3800 2.2216 0.2688
3.4000 2.2350 0.2743
3.4200 2.2483 0.2724
3.4400 2.2616 0.2764
3.4600 2.2749 0.2764
3.4800 2.2883 0.2799
3.5000 2.3016 0.2791
3.5200 2.3150 0.2821
3.5400 2.3283 0.2838
3.5600 2.3416 0.2840
3.5800 2.3549 0.2868
3.6000 2.3683 0.2867
3.6200 2.3816 0.2901
3.6400 2.3949 0.2894
3.6600 2.4082 0.2940
3.6800 2.4215 0.2917
3.7000 2.4349 0.2966
3.7200 2.4482 0.2952
3.7400 2.4616 0.2993
3.7600 2.4750 0.2982
3.7800 2.4884 0.3023
3.8000 2.5017 0.3006
3.8200 2.5150 0.3050
3.8400 2.5284 0.3044
3.8600 2.5417 0.3071
3.8800 2.5550 0.3076
3.9000 2.5682 0.3106
3.9200 2.5815 0.3101
3.9400 2.5949 0.3126
3.9600 2.6083 0.3138
3.9800 2.6216 0.3144
4.0000 2.6349 0.3178
4.0200 2.6482 0.3171
4.0400 2.6616 0.3199
4.0600 2.6749 0.3198
4.0800 2.6883 0.3232
4.1000 2.7016 0.3220
4.1200 2.7150 0.3263
4.1400 2.7283 0.3252
4.1600 2.7416 0.3294
4.1800 2.7550 0.3283
4.2000 2.7683 0.3319
4.2200 2.7817 0.3304
4.2400 2.7950 0.3336
4.2600 2.8083 0.3343
4.2800 2.8216 0.3358
4.3000 2.8349 0.3380
4.3200 2.8483 0.3381
4.3400 2.8616 0.3404
4.3600 2.8749 0.3413
4.3800 2.8882 0.3432
4.4000 2.9016 0.3435
4.4200 2.9149 0.3460
4.4400 2.9283 0.3473
4.4600 2.9416 0.3482
4.4800 2.9550 0.3499
4.5000 2.9683 0.3516
4.5200 2.9816 0.3519
4.5400 2.9949 0.3541
4.5600 3.0083 0.3560
4.5800 3.0217 0.3558
4.6000 3.0350 0.3583
4.6200 3.0483 0.3585
4.6400 3.0616 0.3612
4.6600 3.0749 0.3612
4.6800 3.0883 0.3641
4.7000 3.1016 0.3634
4.7200 3.1149 0.3669
4.7400 3.1282 0.3665
4.7600 3.1416 0.3692
4.7800 3.1549 0.3684
4.8000 3.1683 0.3730
4.8200 3.1816 0.3707
4.8400 3.1950 0.3753
4.8600 3.2083 0.3741
4.8800 3.2217 0.3772
4.9000 3.2349 0.3773
4.9200 3.2482 0.3796
4.9400 3.2616 0.3804
4.9600 3.2749 0.3812
4.9800 3.2882 0.3833
5.0000 3.3015 0.3841
5.0200 3.3149 0.3854
5.0400 3.3283 0.3869
5.0600 3.3416 0.3885
5.0800 3.3549 0.3877
5.1000 3.3682 0.3922
5.1200 3.3816 0.3898
5.1400 3.3949 0.3944
5.1600 3.4082 0.3933
5.1800 3.4216 0.3963
5.2000 3.4349 0.3956
5.2200 3.4483 0.3991
5.2400 3.4616 0.3989
5.2600 3.4749 0.4010
5.2800 3.4883 0.4022
5.3000 3.5017 0.4033
5.3200 3.5150 0.4036
5.3400 3.5283 0.4058
5.3600 3.5416 0.4071
5.3800 3.5550 0.4072
5.4000 3.5683 0.4102
5.4200 3.5816 0.4098
5.4400 3.5949 0.4126
5.4600 3.6082 0.4124
5.4800 3.6215 0.4146
5.5000 3.6349 0.4143
5.5200 3.6482 0.4174
5.5400 3.6615 0.4168
5.5600 3.6749 0.4188
5.5800 3.6883 0.4199
5.6000 3.7017 0.4213
5.6200 3.7150 0.4217
5.6400 3.7283 0.4248
5.6600 3.7417 0.4247
5.6800 3.7550 0.4254
5.7000 3.7683 0.4276
5.7200 3.7816 0.4286
5.7400 3.7949 0.4302
5.7600 3.8083 0.4306
5.7800 3.8216 0.4331
5.8000 3.8349 0.4323
5.8200 3.8482 0.4360
5.8400 3.8615 0.4348
5.8600 3.8749 0.4376
5.8800 3.8882 0.4376
5.9000 3.9016 0.4402
5.9200 3.9149 0.4391
5.9400 3.9283 0.4429
5.9600 3.9417 0.4427
5.9800 3.9550 0.4445
6.0000 3.9683 0.4453
6.0200 3.9817 0.4465
6.0400 3.9950 0.4470
6.0600 4.0083 0.4495
6.0800 4.0216 0.4493
6.1000 4.0349 0.4509
6.1200 4.0482 0.4530
6.1400 4.0616 0.4534
6.1600 4.0749 0.4542
6.1800 4.0882 0.4561
6.2000 4.1016 0.4572
6.2200 4.1149 0.4574
6.2400 4.1283 0.4599
6.2600 4.1416 0.4603
6.2800 4.1550 0.4615
6.3000 4.1683 0.4626
6.3200 4.1817 0.4646
6.3400 4.1950 0.4647
6.3600 4.2083 0.4668
6.3800 4.2216 0.4677
6.4000 4.2350 0.4679
6.4200 4.2483 0.4711
6.4400 4.2616 0.4700
6.4600 4.2750 0.4733
6.4800 4.2883 0.4721
6.5000 4.3016 0.4752
6.5200 4.3149 0.4743
6.5400 4.3282 0.4781
6.5600 4.3416 0.4772
6.5800 4.3549 0.4791
6.6000 4.3682 0.4797
6.6200 4.3815 0.4820
6.6400 4.3949 0.4812
6.6600 4.4083 0.4842
6.6800 4.4217 0.4848
6.7000 4.4350 0.4849
6.7200 4.4483 0.4876
6.7400 4.4617 0.4874
6.7600 4.4750 0.4897
6.7800 4.4883 0.4890
6.8000 4.5016 0.4930
6.8200 4.5149 0.4904
6.8400 4.5283 0.4961
6.8600 4.5416 0.4927
6.8800 4.5549 0.4969
6.9000 4.5682 0.4954
6.9200 4.5815 0.4995
6.9400 4.5949 0.4963
6.9600 4.6082 0.5021
6.9800 4.6216 0.4998
7.0000 4.6349 0.5025
7.0200 4.6483 0.5025
7.0400 4.6617 0.5039
7.0600 4.6750 0.5055
7.0800 4.6883 0.5048
7.1000 4.7017 0.5088
7.1200 4.7150 0.5054
7.1400 4.7283 0.5115
7.1600 4.7416 0.5093
7.1800 4.7550 0.5126
7.2000 4.7683 0.5115
7.2200 4.7816 0.5151
7.2400 4.7949 0.5129
7.2600 4.8082 0.5173
7.2800 4.8216 0.5160
7.3000 4.8349 0.5176
7.3200 4.8482 0.5187
7.3400 4.8615 0.5201
7.3600 4.8749 0.5209
7.3800 4.8883 0.5217
7.4000 4.9016 0.5241
7.4200 4.9150 0.5229
7.4400 4.9283 0.5260
7.4600 4.9417 0.5264
7.4800 4.9550 0.5274
7.5000 4.9684 0.5286
7.5200 4.9816 0.5301
7.5400 4.9949 0.5301
7.5600 5.0083 0.5324
7.5800 5.0216 0.5319
7.6000 5.0349 0.5340
7.6200 5.0482 0.5336
7.6400 5.0615 0.5359
7.6600 5.0749 0.5351
7.6800 5.0883 0.5370
7.7000 5.1016 0.5391
7.7200 5.1149 0.5382
7.7400 5.1283 0.5414
7.7600 5.1417 0.5406
7.7800 5.1550 0.5433
7.8000 5.1683 0.5429
7.8200 5.1816 0.5462
7.8400 5.1950 0.5437
7.8600 5.2083 0.5482
7.8800 5.2216 0.5466
7.9000 5.2349 0.5498
7.9200 5.2482 0.5490
7.9400 5.2615 0.5524
7.9600 5.2749 0.5512
7.9800 5.2882 0.5532
8.0000 5.3016 0.5550
8.0200 5.3149 0.5533
8.0400 5.3282 0.5577
8.0600 5.3416 0.5562
8.0800 5.3549 0.5588
8.1000 5.3683 0.5578
8.1200 5.3817 0.5616
8.1400 5.3950 0.5592
8.1600 5.4083 0.5637
8.1800 5.4217 0.5618
8.2000 5.4350 0.5645
8.2200 5.4483 0.5637
8.2400 5.4616 0.5669
8.2600 5.4749 0.5657
8.2800 5.4882 0.5681
8.3000 5.5016 0.5688
8.3200 5.5149 0.5691
8.3400 5.5282 0.5715
8.3600 5.5415 0.5712
8.3800 5.5549 0.5730
8.4000 5.5682 0.5720
8.4200 5.5816 0.5766
8.4400 5.5949 0.5733
8.4600 5.6083 0.5783
8.4800 5.6216 0.5771
8.5000 5.6350 0.5791
8.5200 5.6483 0.5782
8.5400 5.6616 0.5821
8.5600 5.6750 0.5790
8.5800 5.6883 0.5833
8.6000 5.7016 0.5821
8.6200 5.7150 0.5849
8.6400 5.7283 0.5836
8.6600 5.7417 0.5871
8.6800 5.7550 0.5854
8.7000 5.7682 0.5884
8.7200 5.7815 0.5890
8.7400 5.7949 0.5886
8.7600 5.8082 0.5913
8.7800 5.8215 0.5904
8.8000 5.8349 0.5933
8.8200 5.8483 0.5920
8.8400 5.8617 0.5956
8.8600 5.8750 0.5928
8.8800 5.8883 0.5983
8.9000 5.9017 0.5961
8.9200 5.9150 0.5996
8.9400 5.9284 0.5973
8.9600 5.9417 0.6014
8.9800 5.9549 0.6002
9.0000 5.9683 0.6019
9.0200 5.9816 0.6034
9.0400 5.9949 0.6030
9.0600 6.0082 0.6058
9.0800 6.0215 0.6049
9.1000 6.0349 0.6074
9.1200 6.0482 0.6064
9.1400 6.0616 0.6099
9.1600 6.0749 0.6080
9.1800 6.0883 0.6102
9.2000 6.1017 0.6105
9.2200 6.1150 0.6115
9.2400 6.1283 0.6114
9.2600 6.1416 0.6135
9.2800 6.1550 0.6138
9.3000 6.1683 0.6141
9.3200 6.1816 0.6180
9.3400 6.1949 0.6159
9.3600 6.2083 0.6193
9.3800 6.2216 0.6182
9.4000 6.2349 0.6205
9.4200 6.2482 0.6203
9.4400 6.2615 0.6232
9.4600 6.2749 0.6219
9.4800 6.2882 0.6235
9.5000 6.3016 0.6246
9.5200 6.3149 0.6259
9.5400 6.3283 0.6258
9.5600 6.3417 0.6282
9.5800 6.3550 0.6278
9.6000 6.3683 0.6289
9.6200 6.3817 0.6304
9.6400 6.3950 0.6307
9.6600 6.4083 0.6317
9.6800 6.4216 0.6326
9.7000 6.4349 0.6340
9.7200 6.4482 0.6335
9.7400 6.4616 0.6362
9.7600 6.4749 0.6351
9.7800 6.4882 0.6381
9.8000 6.5015 0.6367
9.8200 6.5149 0.6411
9.8400 6.5282 0.6363
9.8600 6.5416 0.6441
9.8800 6.5549 0.6389
9.9000 6.5683 0.6446
9.9200 6.5817 0.6410
9.9400 6.5950 0.6456
9.9600 6.6083 0.6430
9.9800 6.6217 0.6462
10.0000 6.6350 0.6454
10.0200 6.6483 0.6464
10.0400 6.6616 0.6488
10.0600 6.6749 0.6479
10.0800 6.6883 0.6495
10.1000 6.7016 0.6496
10.1200 6.7149 0.6525
10.1400 6.7282 0.6495
10.1600 6.7416 0.6555
10.1800 6.7549 0.6523
10.2000 6.7683 0.6556
10.2200 6.7816 0.6546
10.2400 6.7949 0.6577
10.2600 6.8083 0.6558
10.2800 6.8217 0.6592
10.3000 6.8350 0.6581
10.3200 6.8482 0.6604
10.3400 6.8616 0.6607
10.3600 6.8749 0.6627
10.3800 6.8883 0.6615
10.4000 6.9016 0.6646
10.4200 6.9149 0.6639
10.4400 6.9282 0.6649
10.4600 6.9416 0.6670
10.4800 6.9549 0.6654
10.5000 6.9682 0.6688
10.5200 6.9815 0.6668
10.5400 6.9949 0.6717
10.5600 7.0082 0.6673
10.5800 7.0216 0.6731
10.6000 7.0349 0.6697
10.6200 7.0483 0.6743
10.6400 7.0616 0.6716
10.6600 7.0750 0.6766
10.6800 7.0883 0.6733
10.7000 7.1016 0.6780
10.7200 7.1150 0.6765
10.7400 7.1283 0.6777
10.7600 7.1416 0.6799
10.7800 7.1549 0.6793
10.8000 7.1683 0.6820
10.8200 7.1816 0.6807
10.8400 7.1949 0.6841
10.8600 7.2082 0.6812
10.8800 7.2215 0.6870
10.9000 7.2349 0.6831
10.9200 7.2482 0.6869
10.9400 7.2615 0.6858
10.9600 7.2749 0.6884
10.9800 7.2883 0.6878
11.0000 7.3017 0.6892
11.0200 7.3150 0.6902
11.0400 7.3284 0.6896
11.0600 7.3417 0.6926
11.0800 7.3550 0.6916
11.1000 7.3684 0.6932
11.1200 7.3816 0.6930
11.1400 7.3949 0.6956
11.1600 7.4082 0.6941
11.1800 7.4216 0.6971
11.2000 7.4349 0.6964
11.2200 7.4482 0.6976
11.2400 7.4615 0.6988
11.2600 7.4749 0.6999
11.2800 7.4883 0.6993
11.3000 7.5016 0.7018
11.3200 7.5150 0.7016
11.3400 7.5283 0.7027
11.3600 7.5417 0.7036
11.3800 7.5550 0.7051
11.4000 7.5683 0.7041
11.4200 7.5816 0.7067
11.4400 7.5950 0.7072
11.4600 7.6083 0.7063
11.4800 7.6216 0.7097
11.5000 7.6349 0.7076
11.5200 7.6483 0.7116
11.5400 7.6616 0.7084
11.5600 7.6749 0.7136
11.5800 7.6882 0.7095
11.6000 7.7015 0.7147
11.6200 7.7149 0.7114
11.6400 7.7283 0.7132
11.6600 7.7416 0.7136
11.6800 7.7549 0.7146
11.7000 7.7683 0.7161
11.7200 7.7816 0.7158
11.7400 7.7950 0.7189
11.7600 7.8083 0.7165
11.7800 7.8216 0.7214
11.8000 7.8350 0.7185
11.8200 7.8483 0.7228
11.8400 7.8616 0.7194
11.8600 7.8749 0.7251
11.8800 7.8882 0.7212
11.9000 7.9016 0.7258
11.9200 7.9149 0.7247
11.9400 7.9282 0.7259
11.9600 7.9415 0.7267
11.9800 7.9549 0.7281
12.0000 7.9683 0.7276
12.0200 7.9816 0.7296
12.0400 7.9949 0.7301
12.0600 8.0083 0.7301
12.0800 8.0216 0.7322
12.1000 8.0350 0.7320
12.1200 8.0483 0.7337
12.1400 8.0616 0.7338
12.1600 8.0750 0.7362
12.1800 8.0883 0.7342
12.2000 8.1016 0.7372
12.2200 8.1149 0.7371
12.2400 8.1283 0.7384
12.2600 8.1416 0.7379
12.2800 8.1549 0.7411
12.3000 8.1683 0.7387
12.3200 8.1816 0.7427
12.3400 8.1949 0.7409
12.3600 8.2083 0.7441
12.3800 8.2216 0.7422
12.4000 8.2349 0.7454
12.4200 8.2483 0.7441
12.4400 8.2616 0.7458
12.4600 8.2750 0.7468
12.4800 8.2883 0.7463
12.5000 8.3016 0.7491
12.5200 8.3150 0.7487
12.5400 8.3283 0.7501
12.5600 8.3417 0.7488
12.5800 8.3550 0.7532
12.6000 8.3683 0.7504
12.6200 8.3816 0.7543
12.6400 8.3950 0.7522
12.6600 8.4083 0.7551
12.6800 8.4216 0.7537
12.7000 8.4349 0.7571
12.7200 8.4482 0.7557
12.7400 8.4615 0.7570
12.7600 8.4748 0.7586
12.7800 8.4882 0.7574
12.8000 8.5016 0.7600
12.8200 8.5150 0.7596
12.8400 8.5283 0.7614
12.8600 8.5416 0.7607
12.8800 8.5550 0.7635
12.9000 8.5684 0.7616
12.9200 8.5817 0.7652
12.9400 8.5950 0.7635
12.9600 8.6083 0.7666
12.9800 8.6216 0.7651
13.0000 8.6350 0.7687
13.0200 8.6482 0.7663
13.0400 8.6615 0.7700
13.0600 8.6749 0.7692
13.0800 8.6882 0.7707
13.1000 8.7016 0.7699
13.1200 8.7149 0.7728
13.1400 8.7282 0.7711
13.1600 8.7416 0.7735
13.1800 8.7550 0.7738
13.2000 8.7683 0.7741
13.2200 8.7816 0.7755
13.2400 8.7950 0.7766
13.2600 8.8083 0.7765
13.2800 8.8216 0.7770
13.3000 8.8349 0.7797
13.3200 8.8482 0.7778
13.3400 8.8616 0.7803
13.3600 8.8749 0.7802
13.3800 8.8882 0.7816
13.4000 8.9015 0.7812
13.4200 8.9149 0.7825
13.4400 8.9283 0.7822
13.4600 8.9416 0.7830
13.4800 8.9550 0.7842
13.5000 8.9683 0.7842
13.5200 8.9816 0.7852
13.5400 8.9950 0.7864
13.5600 9.0083 0.7866
13.5800 9.0216 0.7868
13.6000 9.0349 0.7895
13.6200 9.0483 0.7882
13.6400 9.0616 0.7903
13.6600 9.0750 0.7906
13.6800 9.0883 0.7914
13.7000 9.1016 0.7917
13.7200 9.1150 0.7926
13.7400 9.1283 0.7930
13.7600 9.1416 0.7923
13.7800 9.1549 0.7964
13.8000 9.1682 0.7944
13.8200 9.1816 0.7965
13.8400 9.1949 0.7975
13.8600 9.2082 0.7982
13.8800 9.2216 0.7981
13.9000 9.2350 0.8000
13.9200 9.2483 0.7998
13.9400 9.2616 0.8008
13.9600 9.2750 0.8015
13.9800 9.2883 0.8031
14.0000 9.3017 0.8019
14.0200 9.3150 0.8054
14.0400 9.3283 0.8038
14.0600 9.3416 0.8060
14.0800 9.3550 0.8057
14.1000 9.3682 0.8079
14.1200 9.3815 0.8062
14.1400 9.3949 0.8101
14.1600 9.4082 0.8078
14.1800 9.4216 0.8102
14.2000 9.4349 0.8112
14.2200 9.4482 0.8116
14.2400 9.4616 0.8122
14.2600 9.4750 0.8123
14.2800 9.4883 0.8151
14.3000 9.5016 0.8118
14.3200 9.5150 0.8175
14.3400 9.5283 0.8135
14.3600 9.5417 0.8177
14.3800 9.5550 0.8154
14.4000 9.5683 0.8191
14.4200 9.5816 0.8166
14.4400 9.5950 0.8207
14.4600 9.6083 0.8184
14.4800 9.6216 0.8205
14.5000 9.6349 0.8214
14.5200 9.6482 0.8219
14.5400 9.6616 0.8217
14.5600 9.6749 0.8225
14.5800 9.6882 0.8245
14.6000 9.7016 0.8220
14.6200 9.7149 0.8270
14.6400 9.7283 0.8240
14.6600 9.7416 0.8274
14.6800 9.7550 0.8259
14.7000 9.7683 0.8289
14.7200 9.7817 0.8269
14.7400 9.7950 0.8307
14.7600 9.8083 0.8292
14.7800 9.8216 0.8312
14.8000 9.8350 0.8314
14.8200 9.8483 0.8327
14.8400 9.8616 0.8324
14.8600 9.8749 0.8344
14.8800 9.8882 0.8348
14.9000 9.9016 0.8342
14.9200 9.9149 0.8366
14.9400 9.9282 0.8357
14.9600 9.9416 0.8380
14.9800 9.9550 0.8361
15.0000 9.9684 0.8397
15.0200 9.9817 0.8357
15.0400 9.9950 0.8410
15.0600 10.0083 0.8381
15.0800 10.0217 0.8424
15.1000 10.0350 0.8403
15.1200 10.0482 0.8437
15.1400 10.0615 0.8413
15.1600 10.0749 0.8449
15.1800 10.0882 0.8434
15.2000 10.1016 0.8456
15.2200 10.1149 0.8465
15.2400 10.1282 0.8456
15.2600 10.1416 0.8477
15.2800 10.1549 0.8468
15.3000 10.1683 0.8501
15.3200 10.1817 0.8475
15.3400 10.1950 0.8514
15.3600 10.2083 0.8487
15.3800 10.2216 0.8523
15.4000 10.2350 0.8508
15.4200 10.2483 0.8530
15.4400 10.2617 0.8519
15.4600 10.2750 0.8536
15.4800 10.2882 0.8540
15.5000 10.3016 0.8544
15.5200 10.3149 0.8557
15.5400 10.3283 0.8551
15.5600 10.3415 0.8574
15.5800 10.3549 0.8562
15.6000 10.3682 0.8598
15.6200 10.3816 0.8570
15.6400 10.3949 0.8610
15.6600 10.4082 0.8596
15.6800 10.4216 0.8613
15.7000 10.4350 0.8610
15.7200 10.4483 0.8635
15.7400 10.4616 0.8621
15.7600 10.4749 0.8645
15.7800 10.4883 0.8641
15.8000 10.5017 0.8647
15.8200 10.5150 0.8660
15.8400 10.5283 0.8664
15.8600 10.5416 0.8670
15.8800 10.5550 0.8684
15.9000 10.5683 0.8694
15.9200 10.5816 0.8680
15.9400 10.5949 0.8721
15.9600 10.6082 0.8686
15.9800 10.6215 0.8727
16.0000 10.6349 0.8704
16.0200 10.6482 0.8750
16.0400 10.6616 0.8711
16.0600 10.6750 0.8754
16.0800 10.6883 0.8735
16.1000 10.7017 0.8762
16.1200 10.7150 0.8755
16.1400 10.7284 0.8771
16.1600 10.7417 0.8763
16.1800 10.7550 0.8782
16.2000 10.7683 0.8799
16.2200 10.7816 0.8775
16.2400 10.7949 0.8818
16.2600 10.8083 0.8787
16.2800 10.8216 0.8828
16.3000 10.8349 0.8802
16.3200 10.8482 0.8844
16.3400 10.8616 0.8818
16.3600 10.8749 0.8847
16.3800 10.8882 0.8841
16.4000 10.9016 0.8857
16.4200 10.9150 0.8857
16.4400 10.9283 0.8873
16.4600 10.9417 0.8861
16.4800 10.9550 0.8884
16.5000 10.9683 0.8894
16.5200 10.9817 0.8881
16.5400 10.9950 0.8918
16.5600 11.0083 0.8902
16.5800 11.0216 0.8919
16.6000 11.0349 0.8913
16.6200 11.0483 0.8937
16.6400 11.0616 0.8925
16.6600 11.0749 0.8951
16.6800 11.0882 0.8932
16.7000 11.1016 0.8964
16.7200 11.1149 0.8940
16.7400 11.1283 0.8980
16.7600 11.1416 0.8944
16.7800 11.1550 0.8985
16.8000 11.1683 0.8971
16.8200 11.1817 0.8991
16.8400 11.1950 0.8996
16.8600 11.2083 0.9002
16.8800 11.2217 0.9004
16.9000 11.2350 0.9006
16.9200 11.2483 0.9035
16.9400 11.2616 0.9019
16.9600 11.2749 0.9049
16.9800 11.2883 0.9029
17.0000 11.3016 0.9054
17.0200 11.3149 0.9038
17.0400 11.3282 0.9079
17.0600 11.3416 0.9051
17.0800 11.3549 0.9080
17.1000 11.3683 0.9070
17.1200 11.3816 0.9096
17.1400 11.3950 0.9078
17.1600 11.4084 0.9113
17.1800 11.4217 0.9099
17.2000 11.4350 0.9116
17.2200 11.4483 0.9120
17.2400 11.4616 0.9120
17.2600 11.4749 0.9131
17.2800 11.4882 0.9140
17.3000 11.5016 0.9147
17.3200 11.5149 0.9148
17.3400 11.5283 0.9161
17.3600 11.5416 0.9147
17.3800 11.5549 0.9168
17.4000 11.5683 0.9158
17.4200 11.5816 0.9179
17.4400 11.5949 0.9164
17.4600 11.6082 0.9195
17.4800 11.6216 0.9187
17.5000 11.6350 0.9199
17.5200 11.6483 0.9190
17.5400 11.6616 0.9098
17.5600 11.6749 0.8939
17.5800 11.6882 0.8855
17.6000 11.7016 0.8866
17.6200 11.7150 0.8874
17.6400 11.7283 0.8929
17.6600 11.7416 0.8922
17.6800 11.7549 0.8963
17.7000 11.7683 0.8955
17.7200 11.7816 0.8999
17.7400 11.7949 0.8981
17.7600 11.8082 0.9028
17.7800 11.8216 0.9014
17.8000 11.8349 0.9053
17.8200 11.8482 0.9044
17.8400 11.8616 0.9072
17.8600 11.8749 0.9076
17.8800 11.8883 0.9099
17.9000 11.9016 0.9101
17.9200 11.9150 0.9118
17.9400 11.9283 0.9138
17.9600 11.9416 0.9133
17.9800 11.9550 0.9150
18.0000 11.9683 0.9157
18.0200 11.9816 0.9170
18.0400 11.9949 0.9166
18.0600 12.0083 0.9202
18.0800 12.0216 0.9183
18.1000 12.0349 0.9220
18.1200 12.0482 0.9210
18.1400 12.0615 0.9237
18.1600 12.0749 0.9216
18.1800 12.0882 0.9258
18.2000 12.1016 0.9248
18.2200 12.1150 0.9260
18.2400 12.1284 0.9268
18.2600 12.1417 0.9279
18.2800 12.1550 0.9280
18.3000 12.1684 0.9295
18.3200 12.1817 0.9307
18.3400 12.1950 0.9301
18.3600 12.2083 0.9331
18.3800 12.2216 0.9316
18.4000 12.2349 0.9348
18.4200 12.2483 0.9332
18.4400 12.2616 0.9359
18.4600 12.2749 0.9346
18.4800 12.2882 0.9371
18.5000 12.3016 0.9371
18.5200 12.3149 0.9372
18.5400 12.3283 0.9397
18.5600 12.3416 0.9391
18.5800 12.3550 0.9401
18.6000 12.3683 0.9402
18.6200 12.3817 0.9426
18.6400 12.3949 0.9406
18.6600 12.4083 0.9447
18.6800 12.4216 0.9419
18.7000 12.4350 0.9452
18.7200 12.4483 0.9446
18.7400 12.4616 0.9472
18.7600 12.4749 0.9450
18.7800 12.4883 0.9484
18.8000 12.5016 0.9469
18.8200 12.5149 0.9482
18.8400 12.5282 0.9498
18.8600 12.5416 0.9493
18.8800 12.5549 0.9500
18.9000 12.5682 0.9509
18.9200 12.5816 0.9526
18.9400 12.5949 0.9507
18.9600 12.6083 0.9537
18.9800 12.6216 0.9522
19.0000 12.6350 0.9552
19.0200 12.6483 0.9534
19.0400 12.6616 0.9573
19.0600 12.6750 0.9537
19.0800 12.6883 0.9583
19.1000 12.7016 0.9552
19.1200 12.7149 0.9585
19.1400 12.7283 0.9575
19.1600 12.7416 0.9587
19.1800 12.7549 0.9588
19.2000 12.7682 0.9604
19.2200 12.7816 0.9612
19.2400 12.7949 0.9603
19.2600 12.8083 0.9640
19.2800 12.8216 0.9610
19.3000 12.8350 0.9645
19.3200 12.8483 0.9621
19.3400 12.8617 0.9667
19.3600 12.8750 0.9624
19.3800 12.8883 0.9679
19.4000 12.9016 0.9651
19.4200 12.9150 0.9677
19.4400 12.9283 0.9675
19.4600 12.9416 0.9686
19.4800 12.9549 0.9689
19.5000 12.9683 0.9699
19.5200 12.9816 0.9703
19.5400 12.9949 0.9712
19.5600 13.0082 0.9729
19.5800 13.0216 0.9719
19.6000 13.0349 0.9738
19.6200 13.0483 0.9736
19.6400 13.0616 0.9762
19.6600 13.0749 0.9742
19.6800 13.0883 0.9773
19.7000 13.1017 0.9757
19.7200 13.1150 0.9787
19.7400 13.1283 0.9776
19.7600 13.1417 0.9803
19.7800 13.1550 0.9782
19.8000 13.1684 0.9812
19.8200 13.1817 0.9805
19.8400 13.1950 0.9817
19.8600 13.2083 0.9821
19.8800 13.2216 0.9832
19.9000 13.2349 0.9832
19.9200 13.2482 0.9843
19.9400 13.2615 0.9858
19.9600 13.2749 0.9847
19.9800 13.2882 0.9876
20.0000 13.3015 0.9856
20.0200 13.3149 0.9885
20.0400 13.3283 0.9868
20.0600 13.3417 0.9910
20.0800 13.3550 0.9873
20.1000 13.3683 0.9918
20.1200 13.3817 0.9897
20.1400 13.3950 0.9914
20.1600 13.4083 0.9918
20.1800 13.4216 0.9933
20.2000 13.4349 0.9933
20.2200 13.4483 0.9939
20.2400 13.4616 0.9949
20.2600 13.4749 0.9940
20.2800 13.4882 0.9964
20.3000 13.5015 0.9950
20.3200 13.5149 0.9978
20.3400 13.5282 0.9965
20.3600 13.5415 0.9990
20.3800 13.5549 0.9972
20.4000 13.5683 1.0007
20.4200 13.5817 0.9989
20.4400 13.5950 1.0008
20.4600 13.6083 1.0006
20.4800 13.6217 1.0018
20.5000 13.6350 1.0004
20.5200 13.6483 1.0029
20.5400 13.6616 1.0025
20.5600 13.6749 1.0039
20.5800 13.6882 1.0040
20.6000 13.7016 1.0050
20.6200 13.7149 1.0060
20.6400 13.7282 1.0057
20.6600 13.7416 1.0079
20.6800 13.7550 1.0056
20.7000 13.7683 1.0099
20.7200 13.7816 1.0082
20.7400 13.7950 1.0110
20.7600 13.8083 1.0091
20.7800 13.8217 1.0127
20.8000 13.8349 1.0101
20.8200 13.8483 1.0138
20.8400 13.8616 1.0125
20.8600 13.8750 1.0139
20.8800 13.8883 1.0141
20.9000 13.9016 1.0151
20.9200 13.9149 1.0158
20.9400 13.9283 1.0154
20.9600 13.9416 1.0176
20.9800 13.9549 1.0166
21.0000 13.9682 1.0190
21.0200 13.9816 1.0178
21.0400 13.9949 1.0204
21.0600 14.0082 1.0189
21.0800 14.0216 1.0218
21.1000 14.0349 1.0203
21.1200 14.0483 1.0226
21.1400 14.0616 1.0212
21.1600 14.0750 1.0237
21.1800 14.0883 1.0224
21.2000 14.1016 1.0254
21.2200 14.1150 1.0237
21.2400 14.1283 1.0261
21.2600 14.1416 1.0254
21.2800 14.1549 1.0268
21.3000 14.1683 1.0271
21.3200 14.1816 1.0272
21.3400 14.1949 1.0290
21.3600 14.2082 1.0276
21.3800 14.2215 1.0303
21.4000 14.2349 1.0294
21.4200 14.2482 1.0313
21.4400 14.2616 1.0313
21.4600 14.2749 1.0331
21.4800 14.2883 1.0315
21.5000 14.3016 1.0347
21.5200 14.3150 1.0331
21.5400 14.3283 1.0357
21.5600 14.3416 1.0346
21.5800 14.3550 1.0365
21.6000 14.3683 1.0358
21.6200 14.3816 1.0383
21.6400 14.3949 1.0381
21.6600 14.4083 1.0386
21.6800 14.4216 1.0394
21.7000 14.4349 1.0395
21.7200 14.4482 1.0406
21.7400 14.4616 1.0413
21.7600 14.4749 1.0423
21.7800 14.4882 1.0411
21.8000 14.5016 1.0447
21.8200 14.5149 1.0419
21.8400 14.5283 1.0459
21.8600 14.5416 1.0436
21.8800 14.5550 1.0470
21.9000 14.5683 1.0447
21.9200 14.5817 1.0471
21.9400 14.5950 1.0470
21.9600 14.6083 1.0480
21.9800 14.6216 1.0478
22.0000 14.6349 1.0495
22.0200 14.6483 1.0493
22.0400 14.6616 1.0496
22.0600 14.6749 1.0519
22.0800 14.6882 1.0496
22.1000 14.7015 1.0551
22.1200 14.7149 1.0508
22.1400 14.7283 1.0519
22.1600 14.7416 1.0495
22.1800 14.7549 1.0510
22.2000 14.7683 1.0511
22.2200 14.7817 1.0525
22.2400 14.7950 1.0535
22.2600 14.8083 1.0536
22.2800 14.8216 1.0560
22.3000 14.8350 1.0552
22.3200 14.8484 1.0574
22.3400 14.8616 1.0572
22.3600 14.8749 1.0592
22.3800 14.8882 1.0578
22.4000 14.9016 1.0609
22.4200 14.9149 1.0599
22.4400 14.9282 1.0616
22.4600 14.9415 1.0613
22.4800 14.9549 1.0631
22.5000 14.9682 1.0619
22.5200 14.9816 1.0646
22.5400 14.9949 1.0642
22.5600 15.0083 1.0646
22.5800 15.0217 1.0663
22.6000 15.0350 1.0661
22.6200 15.0483 1.0672
22.6400 15.0616 1.0676
22.6600 15.0750 1.0691
22.6800 15.0883 1.0677
22.7000 15.1016 1.0711
22.7200 15.1149 1.0687
22.7400 15.1282 1.0727
22.7600 15.1416 1.0696
22.7800 15.1549 1.0740
22.8000 15.1682 1.0702
22.8200 15.1815 1.0754
22.8400 15.1949 1.0725
22.8600 15.2082 1.0754
22.8800 15.2216 1.0749
22.9000 15.2349 1.0765
22.9200 15.2483 1.0760
22.9400 15.2616 1.0769
22.9600 15.2749 1.0788
22.9800 15.2883 1.0764
23.0000 15.3016 1.0807
23.0200 15.3150 1.0777
23.0400 15.3283 1.0810
23.0600 15.3416 1.0800
23.0800 15.3550 1.0829
23.1000 15.3683 1.0812
23.1200 15.3817 1.0837
23.1400 15.3950 1.0821
23.1600 15.4082 1.0837
23.1800 15.4215 1.0846
23.2000 15.4348 1.0850
23.2200 15.4482 1.0856
23.2400 15.4615 1.0857
23.2600 15.4749 1.0881
23.2800 15.4883 1.0860
23.3000 15.5017 1.0884
23.3200 15.5150 1.0883
23.3400 15.5283 1.0887
23.3600 15.5417 1.0900
23.3800 15.5550 1.0906
23.4000 15.5684 1.0902
23.4200 15.5817 1.0926
23.4400 15.5949 1.0920
23.4600 15.6083 1.0941
23.4800 15.6216 1.0924
23.5000 15.6349 1.0959
23.5200 15.6482 1.0938
23.5400 15.6615 1.0966
23.5600 15.6749 1.0955
23.5800 15.6882 1.0967
23.6000 15.7016 1.0968
23.6200 15.7149 1.0987
23.6400 15.7283 1.0983
23.6600 15.7417 1.1000
23.6800 15.7550 1.1004
23.7000 15.7683 1.1000
23.7200 15.7817 1.1028
23.7400 15.7950 1.1004
23.7600 15.8084 1.1044
23.7800 15.8216 1.1018
23.8000 15.8349 1.1063
23.8200 15.8483 1.1025
23.8400 15.8616 1.1058
23.8600 15.8749 1.1050
23.8800 15.8882 1.1050
23.9000 15.9015 1.1064
23.9200 15.9149 1.1069
23.9400 15.9282 1.1074
23.9600 15.9416 1.1078
23.9800 15.9549 1.1091
24.0000 15.9683 1.1088
24.0200 15.9817 1.1104
24.0400 15.9950 1.1098
24.0600 16.0083 1.1122
24.0800 16.0216 1.1107
24.1000 16.0350 1.1144
24.1200 16.0483 1.1121
24.1400 16.0616 1.1149
24.1600 16.0749 1.1146
24.1800 16.0883 1.1156
24.2000 16.1016 1.1156
24.2200 16.1149 1.1177
24.2400 16.1282 1.1166
24.2600 16.1415 1.1194
24.2800 16.1549 1.1179
24.3000 16.1682 1.1202
24.3200 16.1816 1.1195
24.3400 16.1949 1.1217
24.3600 16.2083 1.1214
24.3800 16.2217 1.1215
24.4000 16.2350 1.1227
24.4200 16.2483 1.1223
24.4400 16.2616 1.1241
24.4600 16.2750 1.1236
24.4800 16.2883 1.1259
24.5000 16.3016 1.1241
24.5200 16.3149 1.1288
24.5400 16.3283 1.1261
24.5600 16.3416 1.1293
24.5800 16.3549 1.1274
24.6000 16.3682 1.1296
24.6200 16.3816 1.1293
24.6400 16.3949 1.1314
24.6600 16.4083 1.1313
24.6800 16.4216 1.1316
24.7000 16.4349 1.1328
24.7200 16.4483 1.1329
24.7400 16.4617 1.1339
24.7600 16.4750 1.1338
24.7800 16.4883 1.1365
24.8000 16.5016 1.1341
24.8200 16.5149 1.1375
24.8400 16.5283 1.1352
24.8600 16.5416 1.1382
24.8800 16.5549 1.1375
24.9000 16.5683 1.1385
24.9200 16.5816 1.1388
24.9400 16.5950 1.1398
24.9600 16.6083 1.1397
24.9800 16.6216 1.1409
25.0000 16.6349 1.1414
25.0200 16.6483 1.1419
25.0400 16.6616 1.1425
25.0600 16.6749 1.1431
25.0800 16.6883 1.1442
25.1000 16.7016 1.1442
25.1200 16.7150 1.1457
25.1400 16.7283 1.1456
25.1600 16.7416 1.1466
25.1800 16.7550 1.1474
25.2000 16.7683 1.1474
25.2200 16.7816 1.1477
25.2400 16.7949 1.1503
25.2600 16.8082 1.1479
25.2800 16.8216 1.1513
25.3000 16.8349 1.1490
25.3200 16.8482 1.1529
25.3400 16.8615 1.1502
25.3600 16.8749 1.1533
25.3800 16.8882 1.1523
25.4000 16.9015 1.1528
25.4200 16.9149 1.1553
25.4400 16.9282 1.1537
25.4600 16.9416 1.1564
25.4800 16.9550 1.1545
25.5000 16.9683 1.1575
25.5200 16.9817 1.1560
25.5400 16.9950 1.1592
25.5600 17.0083 1.1571
25.5800 17.0216 1.1599
25.6000 17.0349 1.1592
25.6200 17.0482 1.1605
25.6400 17.0616 1.1604
25.6600 17.0749 1.1614
25.6800 17.0882 1.1630
25.7000 17.1015 1.1617
25.7200 17.1149 1.1649
25.7400 17.1283 1.1629
25.7600 17.1416 1.1658
25.7800 17.1549 1.1644
25.8000 17.1683 1.1677
25.8200 17.1817 1.1656
25.8400 17.1950 1.1682
25.8600 17.2083 1.1675
25.8800 17.2216 1.1697
25.9000 17.2350 1.1692
25.9200 17.2483 1.1715
25.9400 17.2616 1.1697
25.9600 17.2749 1.1724
25.9800 17.2882 1.1730
26.0000 17.3016 1.1724
26.0200 17.3150 1.1742
26.0400 17.3283 1.1741
26.0600 17.3416 1.1749
26.0800 17.3549 1.1753
26.1000 17.3682 1.1773
26.1200 17.3816 1.1760
26.1400 17.3949 1.1783
26.1600 17.4083 1.1777
26.1800 17.4216 1.1793
26.2000 17.4350 1.1784
26.2200 17.4483 1.1810
26.2400 17.4616 1.1789
26.2600 17.4750 1.1826
26.2800 17.4883 1.1806
26.3000 17.5017 1.1831
26.3200 17.5149 1.1826
26.3400 17.5283 1.1842
26.3600 17.5416 1.1839
26.3800 17.5550 1.1839
26.4000 17.5682 1.1863
26.4200 17.5815 1.1843
26.4400 17.5949 1.1885
26.4600 17.6083 1.1856
26.4800 17.6216 1.1893
26.5000 17.6349 1.1866
26.5200 17.6483 1.1914
26.5400 17.6617 1.1872
26.5600 17.6750 1.1921
26.5800 17.6883 1.1891
26.6000 17.7016 1.1923
26.6200 17.7150 1.1917
26.6400 17.7283 1.1928
26.6600 17.7416 1.1930
26.6800 17.7549 1.1932
26.7000 17.7682 1.1957
26.7200 17.7816 1.1912
26.7400 17.7949 1.1932
26.7600 17.8083 1.1907
26.7800 17.8216 1.1938
26.8000 17.8349 1.1920
26.8200 17.8483 1.1965
26.8400 17.8616 1.1939
26.8600 17.8749 1.1984
26.8800 17.8882 1.1954
26.9000 17.9016 1.1992
26.9200 17.9150 1.1976
26.9400 17.9283 1.2002
26.9600 17.9416 1.1993
26.9800 17.9550 1.2021
27.0000 17.9683 1.2011
27.0200 17.9817 1.2024
27.0400 17.9950 1.2035
27.0600 18.0083 1.2045
27.0800 18.0216 1.2057
27.1000 18.0349 1.2049
27.1200 18.0483 1.2073
27.1400 18.0616 1.2053
27.1600 18.0749 1.2097
27.1800 18.0882 1.2067
27.2000 18.1015 1.2110
27.2200 18.1148 1.2075
27.2400 18.1282 1.2130
27.2600 18.1416 1.2089
27.2800 18.1550 1.2133
27.3000 18.1683 1.2120
27.3200 18.1816 1.2138
27.3400 18.1950 1.2136
27.3600 18.2084 1.2146
27.3800 18.2217 1.2158
27.4000 18.2350 1.2158
27.4200 18.2483 1.2183
27.4400 18.2616 1.2160
27.4600 18.2750 1.2200
27.4800 18.2883 1.2175
27.5000 18.3015 1.2206
27.5200 18.3148 1.2186
27.5400 18.3282 1.2227
27.5600 18.3416 1.2191
27.5800 18.3549 1.2236
27.6000 18.3682 1.2219
27.6200 18.3816 1.2241
27.6400 18.3950 1.2235
27.6600 18.4083 1.2247
27.6800 18.4216 1.2253
27.7000 18.4350 1.2258
27.7200 18.4483 1.2277
27.7400 18.4617 1.2268
27.7600 18.4750 1.2288
27.7800 18.4882 1.2286
27.8000 18.5016 1.2301
27.8200 18.5149 1.2296
27.8400 18.5282 1.2318
27.8600 18.5415 1.2304
27.8800 18.5549 1.2328
27.9000 18.5683 1.2313
27.9200 18.5816 1.2347
27.9400 18.5950 1.2323
27.9600 18.6083 1.2363
27.9800 18.6216 1.2333
28.0000 18.6350 1.2366
28.0200 18.6483 1.2358
28.0400 18.6616 1.2378
28.0600 18.6749 1.2365
28.0800 18.6883 1.2397
28.1000 18.7016 1.2380
28.1200 18.7150 1.2397
28.1400 18.7283 1.2412
28.1600 18.7416 1.2396
28.1800 18.7550 1.2430
28.2000 18.7683 1.2402
28.2200 18.7816 1.2447
28.2400 18.7949 1.2417
28.2600 18.8082 1.2460
28.2800 18.8216 1.2421
28.3000 18.8349 1.2466
28.3200 18.8482 1.2451
28.3400 18.8616 1.2473
28.3600 18.8749 1.2457
28.3800 18.8883 1.2493
28.4000 18.9016 1.2478
28.4200 18.9150 1.2492
28.4400 18.9283 1.2510
28.4600 18.9417 1.2500
28.4800 18.9550 1.2527
28.5000 18.9683 1.2511
28.5200 18.9816 1.2542
28.5400 18.9949 1.2524
28.5600 19.0083 1.2554
28.5800 19.0216 1.2543
28.6000 19.0349 1.2562
28.6200 19.0482 1.2560
28.6400 19.0616 1.2570
28.6600 19.0749 1.2577
28.6800 19.0882 1.2588
28.7000 19.1016 1.2590
28.7200 19.1150 1.2592
28.7400 19.1283 1.2605
28.7600 19.1416 1.2614
28.7800 19.1550 1.2628
28.8000 19.1683 1.2627
28.8200 19.1817 1.2639
28.8400 19.1950 1.2636
28.8600 19.2083 1.2661
28.8800 19.2216 1.2650
28.9000 19.2349 1.2668
28.9200 19.2483 1.2667
28.9400 19.2616 1.2682
28.9600 19.2749 1.2675
28.9800 19.2882 1.2704
29.0000 19.3016 1.2683
29.0200 19.3149 1.2713
29.0400 19.3282 1.2705
29.0600 19.3416 1.2729
29.0800 19.3549 1.2719
29.1000 19.3683 1.2732
29.1200 19.3816 1.2743
29.1400 19.3950 1.2737
29.1600 19.4083 1.2771
29.1800 19.4217 1.2744
29.2000 19.4350 1.2785
29.2200 19.4483 1.2758
29.2400 19.4616 1.2800
29.2600 19.4750 1.2772
29.2800 19.4883 1.2813
29.3000 19.5016 1.2790
29.3200 19.5149 1.2806
29.3400 19.5282 1.2816
29.3600 19.5416 1.2817
29.3800 19.5549 1.2827
29.4000 19.5683 1.2825
29.4200 19.5816 1.2842
29.4400 19.5950 1.2828
29.4600 19.6084 1.2859
29.4800 19.6217 1.2840
29.5000 19.6350 1.2869
29.5200 19.6483 1.2853
29.5400 19.6617 1.2875
29.5600 19.6750 1.2859
29.5800 19.6883 1.2884
29.6000 19.7015 1.2873
29.6200 19.7149 1.2887
29.6400 19.7282 1.2892
29.6600 19.7415 1.2906
29.6800 19.7549 1.2899
29.7000 19.7682 1.2928
29.7200 19.7816 1.2919
29.7400 19.7949 1.2929
29.7600 19.8082 1.2943
29.7800 19.8216 1.2947
29.8000 19.8350 1.2956
29.8200 19.8483 1.2947
29.8400 19.8617 1.2984
29.8600 19.8750 1.2951
29.8800 19.8883 1.3001
29.9000 19.9017 1.2968
29.9200 19.9150 1.3008
29.9400 19.9283 1.2989
29.9600 19.9416 1.3031
29.9800 19.9549 1.2999
30.0000 19.9682 1.3038
30.0200 19.9815 1.3022
30.0400 19.9949 1.3038
30.0600 20.0082 1.3047
30.0800 20.0216 1.3058
30.1000 20.0349 1.3062
30.1200 20.0483 1.3058
30.1400 20.0616 1.3092
30.1600 20.0750 1.3064
30.1800 20.0883 1.3113
30.2000 20.1016 1.3071
30.2200 20.1149 1.3117
30.2400 20.1283 1.3100
30.2600 20.1417 1.3132
30.2800 20.1550 1.3110
30.3000 20.1683 1.3148
30.3200 20.1816 1.3139
30.3400 20.1950 1.3145
30.3600 20.2083 1.3136
30.3800 20.2216 1.3141
30.4000 20.2349 1.3141
30.4200 20.2482 1.3151
30.4400 20.2615 1.3168
30.4600 20.2749 1.3164
30.4800 20.2882 1.3193
30.5000 20.3016 1.3188
30.5200 20.3150 1.3198
30.5400 20.3283 1.3202
30.5600 20.3417 1.3222
30.5800 20.3550 1.3215
30.6000 20.3683 1.3234
30.6200 20.3817 1.3233
30.6400 20.3950 1.3246
30.6600 20.4083 1.3245
30.6800 20.4216 1.3271
30.7000 20.4349 1.3255
30.7200 20.4482 1.3286
30.7400 20.4615 1.3276
30.7600 20.4749 1.3292
30.7800 20.4882 1.3295
30.8000 20.5016 1.3306
30.8200 20.5149 1.3308
30.8400 20.5282 1.3311
30.8600 20.5416 1.3331
30.8800 20.5550 1.3313
30.9000 20.5683 1.3346
30.9200 20.5817 1.3327
30.9400 20.5950 1.3358
30.9600 20.6083 1.3329
30.9800 20.6217 1.3378
31.0000 20.6350 1.3344
31.0200 20.6483 1.3389
31.0400 20.6616 1.3376
31.0600 20.6749 1.3383
31.0800 20.6883 1.3398
31.1000 20.7016 1.3400
31.1200 20.7149 1.3418
31.1400 20.7282 1.3408
31.1600 20.7416 1.3440
31.1800 20.7549 1.3411
31.2000 20.7682 1.3456
31.2200 20.7816 1.3433
31.2400 20.7950 1.3470
31.2600 20.8083 1.3443
31.2800 20.8217 1.3490
31.3000 20.8350 1.3456
31.3200 20.8483 1.3505
31.3400 20.8617 1.3482
31.3600 20.8750 1.3504
31.3800 20.8883 1.3498
31.4000 20.9016 1.3526
31.4200 20.9149 1.3513
31.4400 20.9283 1.3533
31.4600 20.9416 1.3538
31.4800 20.9549 1.3544
31.5000 20.9682 1.3554
31.5200 20.9815 1.3559
31.5400 20.9949 1.3568
31.5600 21.0082 1.3568
31.5800 21.0216 1.3593
31.6000 21.0350 1.3572
31.6200 21.0484 1.3609
31.6400 21.0617 1.3595
31.6600 21.0750 1.3619
31.6800 21.0883 1.3606
31.7000 21.1017 1.3638
31.7200 21.1150 1.3622
31.7400 21.1283 1.3649
31.7600 21.1416 1.3648
31.7800 21.1549 1.3656
31.8000 21.1683 1.3664
31.8200 21.1816 1.3675
31.8400 21.1949 1.3676
31.8600 21.2082 1.3686
31.8800 21.2216 1.3705
31.9000 21.2349 1.3688
31.9200 21.2482 1.3718
31.9400 21.2616 1.3710
31.9600 21.2750 1.3722
31.9800 21.2883 1.3714
32.0000 21.3016 1.3749
32.0200 21.3149 1.3724
32.0400 21.3282 1.3754
32.0600 21.3416 1.3744
32.0800 21.3550 1.3754
32.1000 21.3683 1.3750
32.1200 21.3816 1.3769
32.1400 21.3949 1.3762
32.1600 21.4083 1.3774
32.1800 21.4216 1.3780
32.2000 21.4349 1.3789
32.2200 21.4482 1.3798
32.2400 21.4616 1.3810
32.2600 21.4749 1.3812
32.2800 21.4882 1.3817
32.3000 21.5016 1.3841
32.3200 21.5149 1.3833
32.3400 21.5283 1.3855
32.3600 21.5416 1.3850
32.3800 21.5549 1.3863
32.4000 21.5683 1.3867
32.4200 21.5816 1.3887
32.4400 21.5950 1.3882
32.4600 21.6083 1.3899
32.4800 21.6216 1.3903
32.5000 21.6349 1.3920
32.5200 21.6483 1.3906
32.5400 21.6616 1.3943
32.5600 21.6749 1.3926
32.5800 21.6882 1.3937
32.6000 21.7015 1.3930
32.6200 21.7149 1.3929
32.6400 21.7282 1.3941
32.6600 21.7416 1.3954
32.6800 21.7549 1.3961
32.7000 21.7683 1.3968
32.7200 21.7817 1.3982
32.7400 21.7950 1.3984
32.7600 21.8084 1.3996
32.7800 21.8217 1.4009
32.8000 21.8350 1.4019
32.8200 21.8483 1.4013
32.8400 21.8616 1.4042
32.8600 21.8749 1.4042
32.8800 21.8882 1.4044
32.9000 21.9016 1.4064
32.9200 21.9149 1.4054
32.9400 21.9282 1.4078
32.9600 21.9416 1.4070
32.9800 21.9550 1.4097
33.0000 21.9683 1.4083
33.0200 21.9816 1.4114
33.0400 21.9950 1.4102
33.0600 22.0084 1.4120
33.0800 22.0217 1.4126
33.1000 22.0350 1.4144
33.1200 22.0483 1.4132
33.1400 22.0616 1.4158
33.1600 22.0750 1.4149
33.1800 22.0883 1.4164
33.2000 22.1016 1.4183
33.2200 22.1149 1.4175
33.2400 22.1283 1.4190
33.2600 22.1416 1.4193
33.2800 22.1549 1.4205
33.3000 22.1682 1.4201
33.3200 22.1816 1.4220
33.3400 22.1949 1.4217
33.3600 22.2082 1.4221
33.3800 22.2216 1.4229
33.4000 22.2349 1.4241
33.4200 22.2483 1.4236
33.4400 22.2617 1.4267
33.4600 22.2750 1.4254
33.4800 22.2883 1.4277
33.5000 22.3016 1.4276
33.5200 22.3150 1.4293
33.5400 22.3283 1.4297
33.5600 22.3416 1.4306
33.5800 22.3549 1.4324
33.6000 22.3683 1.4308
33.6200 22.3816 1.4338
33.6400 22.3949 1.4334
33.6600 22.4082 1.4355
33.6800 22.4216 1.4352
33.7000 22.4349 1.4375
33.7200 22.4482 1.4359
33.7400 22.4616 1.4398
33.7600 22.4749 1.4389
33.7800 22.4883 1.4396
33.8000 22.5017 1.4410
33.8200 22.5150 1.4416
33.8400 22.5283 1.4422
33.8600 22.5416 1.4431
33.8800 22.5550 1.4446
33.9000 22.5683 1.4438
33.9200 22.5816 1.4467
33.9400 22.5949 1.4461
33.9600 22.6083 1.4477
33.9800 22.6216 1.4471
34.0000 22.6349 1.4503
34.0200 22.6482 1.4484
34.0400 22.6616 1.4516
34.0600 22.6749 1.4503
34.0800 22.6883 1.4524
34.1000 22.7016 1.4528
34.1200 22.7149 1.4545
34.1400 22.7283 1.4516
34.1600 22.7417 1.4544
34.1800 22.7550 1.4538
34.2000 22.7683 1.4543
34.2200 22.7816 1.4566
34.2400 22.7950 1.4560
34.2600 22.8083 1.4585
34.2800 22.8217 1.4584
34.3000 22.8350 1.4603
34.3200 22.8483 1.4586
34.3400 22.8616 1.4622
34.3600 22.8749 1.4616
34.3800 22.8882 1.4638
34.4000 22.9016 1.4635
34.4200 22.9149 1.4661
34.4400 22.9282 1.4637
34.4600 22.9415 1.4681
34.4800 22.9549 1.4662
34.5000 22.9683 1.4681
34.5200 22.9817 1.4679
34.5400 22.9950 1.4694
34.5600 23.0083 1.4693
34.5800 23.0217 1.4701
34.6000 23.0350 1.4723
34.6200 23.0483 1.4706
34.6400 23.0616 1.4735
34.6600 23.0749 1.4727
34.6800 23.0883 1.4742
34.7000 23.1016 1.4743
34.7200 23.1149 1.4769
34.7400 23.1282 1.4748
34.7600 23.1415 1.4792
34.7800 23.1549 1.4779
34.8000 23.1682 1.4803
34.8200 23.1815 1.4809
34.8400 23.1949 1.4816
34.8600 23.2083 1.4825
34.8800 23.2217 1.4822
34.9000 23.2350 1.4855
34.9200 23.2483 1.4832
34.9400 23.2616 1.4875
34.9600 23.2750 1.4859
34.9800 23.2883 1.4890
35.0000 23.3016 1.4876
35.0200 23.3149 1.4913
35.0400 23.3282 1.4885
35.0600 23.3416 1.4932
35.0800 23.3549 1.4916
35.1000 23.3682 1.4946
35.1200 23.3816 1.4931
35.1400 23.3949 1.4964
35.1600 23.4083 1.4958
35.1800 23.4216 1.4973
35.2000 23.4349 1.4992
35.2200 23.4483 1.4974
35.2400 23.4616 1.5002
35.2600 23.4750 1.5001
35.2800 23.4883 1.5020
35.3000 23.5016 1.5014
35.3200 23.5150 1.5046
35.3400 23.5283 1.5024
35.3600 23.5416 1.5058
35.3800 23.5550 1.5055
35.4000 23.5683 1.5078
35.4200 23.5817 1.5058
35.4400 23.5950 1.5098
35.4600 23.6083 1.5078
35.4800 23.6216 1.5103
35.5000 23.6349 1.5107
35.5200 23.6482 1.5111
35.5400 23.6616 1.5124
35.5600 23.6749 1.5137
35.5800 23.6883 1.5140
35.6000 23.7016 1.5143
35.6200 23.7150 1.5171
35.6400 23.7283 1.5153
35.6600 23.7416 1.5184
35.6800 23.7550 1.5156
35.7000 23.7683 1.5183
35.7200 23.7816 1.5155
35.7400 23.7949 1.5215
35.7600 23.8083 1.5174
35.7800 23.8216 1.5218
35.8000 23.8349 1.5210
35.8200 23.8482 1.5231
35.8400 23.8615 1.5233
35.8600 23.8749 1.5241
35.8800 23.8882 1.5245
35.9000 23.9015 1.5248
35.9200 23.9149 1.5279
35.9400 23.9282 1.5254
35.9600 23.9416 1.5294
35.9800 23.9550 1.5278
36.0000 23.9683 1.5319
36.0200 23.9816 1.5290
36.0400 23.9950 1.5348
36.0600 24.0083 1.5302
36.0800 24.0216 1.5359
36.1000 24.0349 1.5334
36.1200 24.0483 1.5377
36.1400 24.0616 1.5356
36.1600 24.0749 1.5400
36.1800 24.0882 1.5380
36.2000 24.1016 1.5410
36.2200 24.1149 1.5411
36.2400 24.1282 1.5419
36.2600 24.1416 1.5430
36.2800 24.1549 1.5444
36.3000 24.1683 1.5446
36.3200 24.1816 1.5445
36.3400 24.1950 1.5488
36.3600 24.2083 1.5462
36.3800 24.2216 1.5504
36.4000 24.2350 1.5487
36.4200 24.2484 1.5523
36.4400 24.2617 1.5497
36.4600 24.2749 1.5558
36.4800 24.2883 1.5516
36.5000 24.3016 1.5561
36.5200 24.3149 1.5547
36.5400 24.3282 1.5574
36.5600 24.3415 1.5562
36.5800 24.3549 1.5598
36.6000 24.3682 1.5581
36.6200 24.3816 1.5605
36.6400 24.3949 1.5621
36.6600 24.4083 1.5612
36.6800 24.4217 1.5643
36.7000 24.4350 1.5623
36.7200 24.4483 1.5662
36.7400 24.4616 1.5616
36.7600 24.4750 1.5682
36.7800 24.4883 1.5632
36.8000 24.5016 1.5690
36.8200 24.5149 1.5671
36.8400 24.5282 1.5701
36.8600 24.5415 1.5688
36.8800 24.5549 1.5719
36.9000 24.5682 1.5718
36.9200 24.5815 1.5732
36.9400 24.5949 1.5748
36.9600 24.6082 1.5741
36.9800 24.6216 1.5765
37.0000 24.6349 1.5764
37.0200 24.6483 1.5784
37.0400 24.6617 1.5773
37.0600 24.6750 1.5813
37.0800 24.6883 1.5783
37.1000 24.7017 1.5824
37.1200 24.7150 1.5808
37.1400 24.7283 1.5834
37.1600 24.7416 1.5817
37.1800 24.7549 1.5850
37.2000 24.7682 1.5833
37.2200 24.7816 1.5863
37.2400 24.7949 1.5848
37.2600 24.8082 1.5891
37.2800 24.8215 1.5868
37.3000 24.8349 1.5906
37.3200 24.8482 1.5902
37.3400 24.8616 1.5907
37.3600 24.8749 1.5941
37.3800 24.8883 1.5924
37.4000 24.9016 1.5958
37.4200 24.9150 1.5945
37.4400 24.9283 1.5986
37.4600 24.9416 1.5963
37.4800 24.9550 1.6019
37.5000 24.9683 1.5987
37.5200 24.9816 1.6030
37.5400 24.9950 1.6013
37.5600 25.0083 1.6047
37.5800 25.0217 1.6036
37.6000 25.0350 1.6066
37.6200 25.0483 1.6069
37.6400 25.0615 1.6068
37.6600 25.0749 1.6107
37.6800 25.0882 1.6089
37.7000 25.1015 1.6126
37.7200 25.1149 1.6107
37.7400 25.1282 1.6152
37.7600 25.1416 1.6120
37.7800 25.1550 1.6170
37.8000 25.1683 1.6149
37.8200 25.1817 1.6183
37.8400 25.1950 1.6173
37.8600 25.2084 1.6204
37.8800 25.2217 1.6190
37.9000 25.2349 1.6225
37.9200 25.2483 1.6209
37.9400 25.2616 1.6215
37.9600 25.2749 1.6232
37.9800 25.2882 1.6242
38.0000 25.3015 1.6247
38.0200 25.3148 1.6261
38.0400 25.3282 1.6282
38.0600 25.3416 1.6272
38.0800 25.3549 1.6311
38.1000 25.3683 1.6293
38.1200 25.3817 1.6329
38.1400 25.3950 1.6313
38.1600 25.4083 1.6357
38.1800 25.4216 1.6323
38.2000 25.4350 1.6379
38.2200 25.4483 1.6343
38.2400 25.4616 1.6385
38.2600 25.4749 1.6364
38.2800 25.4882 1.6393
38.3000 25.5016 1.6379
38.3200 25.5149 1.6396
38.3400 25.5282 1.6419
38.3600 25.5415 1.6409
38.3800 25.5549 1.6447
38.4000 25.5683 1.6425
38.4200 25.5816 1.6465
38.4400 25.5949 1.6447
38.4600 25.6083 1.6505
38.4800 25.6217 1.6466
38.5000 25.6350 1.6524
38.5200 25.6483 1.6496
38.5400 25.6616 1.6538
38.5600 25.6750 1.6528
38.5800 25.6883 1.6558
38.6000 25.7017 1.6555
38.6200 25.7150 1.6573
38.6400 25.7283 1.6585
38.6600 25.7416 1.6580
38.6800 25.7549 1.6621
38.7000 25.7682 1.6603
38.7200 25.7815 1.6637
38.7400 25.7949 1.6628
38.7600 25.8082 1.6658
38.7800 25.8216 1.6634
38.8000 25.8349 1.6672
38.8200 25.8483 1.6668
38.8400 25.8617 1.6689
38.8600 25.8750 1.6684
38.8800 25.8883 1.6717
38.9000 25.9016 1.6711
38.9200 25.9150 1.6742
38.9400 25.9283 1.6739
38.9600 25.9416 1.6752
38.9800 25.9549 1.6767
39.0000 25.9683 1.6777
39.0200 25.9816 1.6789
39.0400 25.9949 1.6794
39.0600 26.0083 1.6827
39.0800 26.0216 1.6810
39.1000 26.0349 1.6853
39.1200 26.0483 1.6842
39.1400 26.0616 1.6871
39.1600 26.0749 1.6863
39.1800 26.0883 1.6900
39.2000 26.1017 1.6876
39.2200 26.1150 1.6919
39.2400 26.1283 1.6913
39.2600 26.1416 1.6924
39.2800 26.1549 1.6940
39.3000 26.1683 1.6938
39.3200 26.1817 1.6951
39.3400 26.1950 1.6942
39.3600 26.2083 1.6980
39.3800 26.2216 1.6950
39.4000 26.2350 1.6999
39.4200 26.2483 1.6982
39.4400 26.2616 1.7025
39.4600 26.2749 1.7007
39.4800 26.2882 1.7066
39.5000 26.3016 1.7031
39.5200 26.3149 1.7082
39.5400 26.3282 1.7073
39.5600 26.3416 1.7095
39.5800 26.3550 1.7104
39.6000 26.3683 1.7120
39.6200 26.3816 1.7142
39.6400 26.3949 1.7136
39.6600 26.4083 1.7176
39.6800 26.4216 1.7163
39.7000 26.4349 1.7193
39.7200 26.4483 1.7198
39.7400 26.4616 1.7203
39.7600 26.4749 1.7207
39.7800 26.4882 1.7223
39.8000 26.5015 1.7218
39.8200 26.5149 1.7227
39.8400 26.5282 1.7230
39.8600 26.5415 1.7233
39.8800 26.5549 1.7252
39.9000 26.5682 1.7270
39.9200 26.5816 1.7280
39.9400 26.5950 1.7294
39.9600 26.6084 1.7322
39.9800 26.6217 1.7321
40.0000 26.6350 1.7348
40.0200 26.6484 1.7361
40.0400 26.6616 1.7373
40.0600 26.6749 1.7385
40.0800 26.6882 1.7405
40.1000 26.7016 1.7406
40.1200 26.7149 1.7421
40.1400 26.7282 1.7439
40.1600 26.7415 1.7463
40.1800 26.7549 1.7454
40.2000 26.7683 1.7493
40.2200 26.7816 1.7477
40.2400 26.7949 1.7512
40.2600 26.8083 1.7513
40.2800 26.8217 1.7524
40.3000 26.8350 1.7528
40.3200 26.8483 1.7545
40.3400 26.8616 1.7545
40.3600 26.8749 1.7553
40.3800 26.8883 1.7579
40.4000 26.9016 1.7571
40.4200 26.9149 1.7609
40.4400 26.9282 1.7604
40.4600 26.9416 1.7648
40.4800 26.9549 1.7627
40.5000 26.9683 1.7675
40.5200 26.9816 1.7665
40.5400 26.9949 1.7694
40.5600 27.0082 1.7705
40.5800 27.0216 1.7712
40.6000 27.0349 1.7732
40.6200 27.0483 1.7757
40.6400 27.0616 1.7760
40.6600 27.0750 1.7777
40.6800 27.0883 1.7797
40.7000 27.1016 1.7805
40.7200 27.1150 1.7827
40.7400 27.1283 1.7839
40.7600 27.1417 1.7858
40.7800 27.1549 1.7861
40.8000 27.1682 1.7897
40.8200 27.1816 1.7889
40.8400 27.1950 1.7921
40.8600 27.2083 1.7920
40.8800 27.2215 1.7946
40.9000 27.2349 1.7949
40.9200 27.2482 1.7978
40.9400 27.2616 1.7970
40.9600 27.2749 1.7989
40.9800 27.2883 1.8001
41.0000 27.3016 1.7994
41.0200 27.3150 1.8010
41.0400 27.3283 1.8018
41.0600 27.3416 1.8037
41.0800 27.3550 1.8037
41.1000 27.3683 1.8078
41.1200 27.3817 1.8067
41.1400 27.3949 1.8101
41.1600 27.4082 1.8107
41.1800 27.4216 1.8124
41.2000 27.4350 1.8125
41.2200 27.4483 1.8154
41.2400 27.4616 1.8136
41.2600 27.4749 1.8165
41.2800 27.4883 1.8169
41.3000 27.5016 1.8177
41.3200 27.5149 1.8198
41.3400 27.5282 1.8211
41.3600 27.5416 1.8241
41.3800 27.5550 1.8233
41.4000 27.5683 1.8278
41.4200 27.5816 1.8268
41.4400 27.5950 1.8312
41.4600 27.6083 1.8305
41.4800 27.6217 1.8351
41.5000 27.6350 1.8330
41.5200 27.6483 1.8386
41.5400 27.6616 1.8377
41.5600 27.6750 1.8398
41.5800 27.6883 1.8425
41.6000 27.7016 1.8432
41.6200 27.7149 1.8460
41.6400 27.7282 1.8464
41.6600 27.7415 1.8490
41.6800 27.7548 1.8492
41.7000 27.7682 1.8525
41.7200 27.7816 1.8529
41.7400 27.7950 1.8549
41.7600 27.8083 1.8569
41.7800 27.8216 1.8596
41.8000 27.8350 1.8595
41.8200 27.8483 1.8637
41.8400 27.8617 1.8635
41.8600 27.8750 1.8657
41.8800 27.8883 1.8678
41.9000 27.9016 1.8704
41.9200 27.9150 1.8696
41.9400 27.9283 1.8724
41.9600 27.9416 1.8724
41.9800 27.9549 1.8742
42.0000 27.9682 1.8765
42.0200 27.9815 1.8767
42.0400 27.9949 1.8788
42.0600 28.0082 1.8788
42.0800 28.0216 1.8820
42.1000 28.0350 1.8792
42.1200 28.0483 1.8849
42.1400 28.0617 1.8820
42.1600 28.0750 1.8865
42.1800 28.0883 1.8856
42.2000 28.1017 1.8904
42.2200 28.1150 1.8900
42.2400 28.1282 1.8950
42.2600 28.1416 1.8945
42.2800 28.1549 1.8979
42.3000 28.1683 1.9001
42.3200 28.1816 1.9020
42.3400 28.1949 1.9040
42.3600 28.2082 1.9054
42.3800 28.2216 1.9091
42.4000 28.2350 1.9080
42.4200 28.2483 1.9135
42.4400 28.2617 1.9129
42.4600 28.2750 1.9169
42.4800 28.2883 1.9175
42.5000 28.3016 1.9209
42.5200 28.3149 1.9219
42.5400 28.3283 1.9248
42.5600 28.3416 1.9261
42.5800 28.3550 1.9280
42.6000 28.3683 1.9301
42.6200 28.3816 1.9327
42.6400 28.3950 1.9324
42.6600 28.4083 1.9355
42.6800 28.4216 1.9358
42.7000 28.4349 1.9367
42.7200 28.4482 1.9367
42.7400 28.4616 1.9380
42.7600 28.4749 1.9384
42.7800 28.4882 1.9412
42.8000 28.5016 1.9436
42.8200 28.5150 1.9445
42.8400 28.5283 1.9485
42.8600 28.5416 1.9499
42.8800 28.5550 1.9528
42.9000 28.5683 1.9534
42.9200 28.5817 1.9579
42.9400 28.5950 1.9577
42.9600 28.6083 1.9629
42.9800 28.6216 1.9630
43.0000 28.6350 1.9669
43.0200 28.6483 1.9683
43.0400 28.6616 1.9716
43.0600 28.6749 1.9736
43.0800 28.6882 1.9754
43.1000 28.7016 1.9787
43.1200 28.7149 1.9784
43.1400 28.7282 1.9842
43.1600 28.7415 1.9837
43.1800 28.7549 1.9884
43.2000 28.7683 1.9877
43.2200 28.7816 1.9935
43.2400 28.7950 1.9927
43.2600 28.8083 1.9976
43.2800 28.8217 1.9969
43.3000 28.8350 2.0007
43.3200 28.8483 2.0010
43.3400 28.8616 2.0027
43.3600 28.8749 2.0013
43.3800 28.8883 2.0030
43.4000 28.9016 2.0050
43.4200 28.9149 2.0063
43.4400 28.9282 2.0098
43.4600 28.9416 2.0124
43.4800 28.9549 2.0154
43.5000 28.9682 2.0182
43.5200 28.9816 2.0215
43.5400 28.9950 2.0231
43.5600 29.0083 2.0277
43.5800 29.0216 2.0285
43.6000 29.0350 2.0331
43.6200 29.0483 2.0340
43.6400 29.0617 2.0389
43.6600 29.0750 2.0386
43.6800 29.0883 2.0436
43.7000 29.1016 2.0455
43.7200 29.1150 2.0480
43.7400 29.1283 2.0498
43.7600 29.1416 2.0529
43.7800 29.1549 2.0559
43.8000 29.1682 2.0582
43.8200 29.1816 2.0605
43.8400 29.1949 2.0598
43.8600 29.2083 2.0642
43.8800 29.2216 2.0626
43.9000 29.2350 2.0669
43.9200 29.2484 2.0661
43.9400 29.2617 2.0725
43.9600 29.2750 2.0709
43.9800 29.2883 2.0773
44.0000 29.3017 2.0777
44.0200 29.3150 2.0815
44.0400 29.3283 2.0827
44.0600 29.3415 2.0866
44.0800 29.3549 2.0890
44.1000 29.3682 2.0907
44.1200 29.3815 2.0951
44.1400 29.3949 2.0968
44.1600 29.4082 2.1013
44.1800 29.4216 2.1026
44.2000 29.4349 2.1078
44.2200 29.4483 2.1075
44.2400 29.4616 2.1145
44.2600 29.4750 2.1125
44.2800 29.4883 2.1196
44.3000 29.5017 2.1194
44.3200 29.5150 2.1248
44.3400 29.5283 2.1237
44.3600 29.5417 2.1290
44.3800 29.5550 2.1272
44.4000 29.5683 2.1313
44.4200 29.5816 2.1318
44.4400 29.5949 2.1351
44.4600 29.6083 2.1349
44.4800 29.6216 2.1400
44.5000 29.6349 2.1411
44.5200 29.6482 2.1446
44.5400 29.6616 2.1468
44.5600 29.6749 2.1471
44.5800 29.6882 2.1528
44.6000 29.7016 2.1527
44.6200 29.7150 2.1581
44.6400 29.7283 2.1573
44.6600 29.7416 2.1642
44.6800 29.7549 2.1629
44.7000 29.7683 2.1691
44.7200 29.7817 2.1698
44.7400 29.7950 2.1739
44.7600 29.8083 2.1736
44.7800 29.8216 2.1791
44.8000 29.8350 2.1799
44.8200 29.8483 2.1829
44.8400 29.8616 2.1853
44.8600 29.8749 2.1865
44.8800 29.8882 2.1904
44.9000 29.9015 2.1886
44.9200 29.9149 2.1939
44.9400 29.9282 2.1922
44.9600 29.9416 2.1988
44.9800 29.9550 2.1978
45.0000 29.9684 2.2033
45.0200 29.9817 2.2033
45.0400 29.9950 2.2072
45.0480 30.0002 2.2055
45.0490 30.0008 2.2050
45.0500 30.0015 2.2045
45.0700 30.0119 2.1876
45.0900 30.0141 2.1785
45.1100 30.0057 2.1781
45.1300 29.9929 2.1814
45.1500 29.9800 2.1647
45.1700 29.9671 2.1573
45.1900 29.9537 2.1438
45.2100 29.9397 2.1380
45.2300 29.9257 2.1267
45.2500 29.9119 2.1210
45.2700 29.8983 2.1104
45.2900 29.8850 2.1010
45.3100 29.8717 2.0939
45.3300 29.8584 2.0862
45.3500 29.8451 2.0804
45.3700 29.8317 2.0709
45.3900 29.8184 2.0676
45.4100 29.8051 2.0557
45.4300 29.7917 2.0542
45.4500 29.7783 2.0434
45.4700 29.7650 2.0409
45.4900 29.7516 2.0299
45.5100 29.7383 2.0292
45.5300 29.7249 2.0176
45.5500 29.7116 2.0185
45.5700 29.6983 2.0072
45.5900 29.6849 2.0055
45.6100 29.6716 1.9966
45.6300 29.6582 1.9947
45.6500 29.6449 1.9860
45.6700 29.6316 1.9823
45.6900 29.6183 1.9786
45.7100 29.6049 1.9713
45.7300 29.5917 1.9692
45.7500 29.5784 1.9609
45.7700 29.5651 1.9598
45.7900 29.5517 1.9514
45.8100 29.5383 1.9506
45.8300 29.5250 1.9416
45.8500 29.5117 1.9413
45.8700 29.4983 1.9336
45.8900 29.4850 1.9326
45.9100 29.4716 1.9253
45.9300 29.4583 1.9240
45.9500 29.4449 1.9174
45.9700 29.4316 1.9148
45.9900 29.4182 1.9107
46.0100 29.4049 1.9060
46.0300 29.3916 1.9038
46.0500 29.3783 1.8976
46.0700 29.3650 1.8969
46.0900 29.3517 1.8905
46.1100 29.3384 1.8885
46.1300 29.3250 1.8827
46.1500 29.3117 1.8812
46.1700 29.2983 1.8758
46.1900 29.2850 1.8739
46.2100 29.2717 1.8681
46.2300 29.2583 1.8677
46.2500 29.2449 1.8610
46.2700 29.2316 1.8608
46.2900 29.2183 1.8546
46.3100 29.2049 1.8529
46.3300 29.1916 1.8477
46.3500 29.1782 1.8465
46.3700 29.1649 1.8423
46.3900 29.1516 1.8392
46.4100 29.1383 1.8365
46.4300 29.1249 1.8323
46.4500 29.1116 1.8305
46.4700 29.0983 1.8251
46.4900 29.0850 1.8256
46.5100 29.0716 1.8178
46.5300 29.0583 1.8200
46.5500 29.0450 1.8115
46.5700 29.0316 1.8142
46.5900 29.0183 1.8062
46.6100 29.0049 1.8075
46.6300 28.9916 1.8011
46.6500 28.9782 1.8015
46.6700 28.9649 1.7959
46.6900 28.9515 1.7949
46.7100 28.9382 1.7928
46.7300 28.9249 1.7878
46.7500 28.9116 1.7869
46.7700 28.8983 1.7826
46.7900 28.8849 1.7827
46.8100 28.8716 1.7769
46.8300 28.8583 1.7772
46.8500 28.8450 1.7711
46.8700 28.8317 1.7715
46.8900 28.8183 1.7664
46.9100 28.8050 1.7660
46.9300 28.7916 1.7607
46.9500 28.7783 1.7611
46.9700 28.7649 1.7563
46.9900 28.7515 1.7557
47.0100 28.7382 1.7519
47.0300 28.7249 1.7500
47.0500 28.7116 1.7467
47.0700 28.6982 1.7453
47.0900 28.6849 1.7428
47.1100 28.6717 1.7393
47.1300 28.6583 1.7391
47.1500 28.6450 1.7342
47.1700 28.6317 1.7339
47.1900 28.6183 1.7306
47.2100 28.6050 1.7293
47.2300 28.5917 1.7243
47.2500 28.5783 1.7262
47.2700 28.5650 1.7200
47.2900 28.5516 1.7218
47.3100 28.5383 1.7154
47.3300 28.5249 1.7163
47.3500 28.5116 1.7120
47.3700 28.4983 1.7096
47.3900 28.4850 1.7094
47.4100 28.4716 1.7054
47.4300 28.4582 1.7047
47.4500 28.4449 1.7016
47.4700 28.4316 1.6994
47.4900 28.4183 1.6975
47.5100 28.4049 1.6974
47.5300 28.3916 1.6907
47.5500 28.3783 1.6936
47.5700 28.3650 1.6865
47.5900 28.3516 1.6885
47.6100 28.3383 1.6844
47.6300 28.3250 1.6839
47.6500 28.3116 1.6803
47.6700 28.2983 1.6796
47.6900 28.2849 1.6759
47.7100 28.2716 1.6761
47.7300 28.2583 1.6720
47.7500 28.2450 1.6713
47.7700 28.2316 1.6693
47.7900 28.2182 1.6663
47.8100 28.2049 1.6670
47.8300 28.1916 1.6615
47.8500 28.1782 1.6627
47.8700 28.1649 1.6584
47.8900 28.1516 1.6588
47.9100 28.1383 1.6536
47.9300 28.1250 1.6554
47.9500 28.1116 1.6494
47.9700 28.0983 1.6512
47.9900 28.0849 1.6484
48.0100 28.0716 1.6455
48.0300 28.0583 1.6444
48.0500 28.0449 1.6425
48.0700 28.0316 1.6398
48.0900 28.0183 1.6393
48.1100 28.0049 1.6374
48.1300 27.9916 1.6340
48.1500 27.9782 1.6358
48.1700 27.9649 1.6291
48.1900 27.9516 1.6324
48.2100 27.9383 1.6264
48.2300 27.9249 1.6277
48.2500 27.9116 1.6239
48.2700 27.8983 1.6236
48.2900 27.8850 1.6206
48.3100 27.8716 1.6205
48.3300 27.8583 1.6168
48.3500 27.8450 1.6173
48.3700 27.8316 1.6137
48.3900 27.8183 1.6115
48.4100 27.8049 1.6123
48.4300 27.7915 1.6083
48.4500 27.7782 1.6087
48.4700 27.7649 1.6046
48.4900 27.7516 1.6051
48.5100 27.7382 1.6011
48.5300 27.7249 1.6027
48.5500 27.7116 1.5967
48.5700 27.6983 1.5999
48.5900 27.6850 1.5939
48.6100 27.6717 1.5951
48.6300 27.6583 1.5914
48.6500 27.6450 1.5920
48.6700 27.6317 1.5881
48.6900 27.6183 1.5880
48.7100 27.6050 1.5862
48.7300 27.5916 1.5841
48.7500 27.5783 1.5832
48.7700 27.5649 1.5809
48.7900 27.5515 1.5811
48.8100 27.5382 1.5760
48.8300 27.5249 1.5787
48.8500 27.5116 1.5728
48.8700 27.4982 1.5750
48.8900 27.4849 1.5705
48.9100 27.4716 1.5717
48.9300 27.4583 1.5680
48.9500 27.4449 1.5681
48.9700 27.4316 1.5658
48.9900 27.4183 1.5648
49.0100 27.4050 1.5628
49.0300 27.3916 1.5607
49.0500 27.3783 1.5604
49.0700 27.3649 1.5577
49.0900 27.3516 1.5571
49.1100 27.3383 1.5538
49.1300 27.3249 1.5552
49.1500 27.3116 1.5510
49.1700 27.2982 1.5516
49.1900 27.2849 1.5483
49.2100 27.2716 1.5492
49.2300 27.2582 1.5442
49.2500 27.2449 1.5458
49.2700 27.2316 1.5427
49.2900 27.2183 1.5424
49.3100 27.2050 1.5394
49.3300 27.1916 1.5392
49.3500 27.1783 1.5369
49.3700 27.1650 1.5362
49.3900 27.1516 1.5340
49.4100 27.1383 1.5327
49.4300 27.1249 1.5325
49.4500 27.1116 1.5289
49.4700 27.0983 1.5296
49.4900 27.0849 1.5264
49.5100 27.0716 1.5275
49.5300 27.0583 1.5233
49.5500 27.0449 1.5249
49.5700 27.0316 1.5205
49.5900 27.0182 1.5218
49.6100 27.0049 1.5188
49.6300 26.9916 1.5183
49.6500 26.9783 1.5155
49.6700 26.9649 1.5161
49.6900 26.9516 1.5135
49.7100 26.9383 1.5117
49.7300 26.9250 1.5119
49.7500 26.9117 1.5081
49.7700 26.8983 1.5094
49.7900 26.8850 1.5053
49.8100 26.8716 1.5069
49.8300 26.8583 1.5012
49.8500 26.8450 1.5042
49.8700 26.8316 1.4991
49.8900 26.8182 1.5003
49.9100 26.8049 1.4977
49.9300 26.7916 1.4969
49.9500 26.7782 1.4945
49.9700 26.7649 1.4945
49.9900 26.7516 1.4924
50.0100 26.7383 1.4915
50.0300 26.7249 1.4901
50.0500 26.7116 1.4892
50.0700 26.6983 1.4877
50.0900 26.6850 1.4867
50.1100 26.6717 1.4857
50.1300 26.6583 1.4829
50.1500 26.6449 1.4843
50.1700 26.6316 1.4800
50.1900 26.6183 1.4811
50.2100 26.6050 1.4773
50.2300 26.5916 1.4785
50.2500 26.5782 1.4749
50.2700 26.5649 1.4768
50.2900 26.5516 1.4720
50.3100 26.5382 1.4738
50.3300 26.5249 1.4699
50.3500 26.5116 1.4710
50.3700 26.4983 1.4674
50.3900 26.4849 1.4677
50.4100 26.4716 1.4667
50.4300 26.4583 1.4629
50.4500 26.4450 1.4654
50.4700 26.4317 1.4602
50.4900 26.4183 1.4620
50.5100 26.4049 1.4581
50.5300 26.3916 1.4601
50.5500 26.3783 1.4550
50.5700 26.3650 1.4579
50.5900 26.3516 1.4532
50.6100 26.3383 1.4544
50.6300 26.3249 1.4514
50.6500 26.3116 1.4510
50.6700 26.2982 1.4490
50.6900 26.2849 1.4487
50.7100 26.2716 1.4477
50.7300 26.2583 1.4447
50.7500 26.2449 1.4454
50.7700 26.2316 1.4424
50.7900 26.2183 1.4433
50.8100 26.2050 1.4398
50.8300 26.1916 1.4407
50.8500 26.1783 1.4364
50.8700 26.1649 1.4388
50.8900 26.1516 1.4348
50.9100 26.1383 1.4353
50.9300 26.1249 1.4325
50.9500 26.1116 1.4329
50.9700 26.0982 1.4300
50.9900 26.0850 1.4308
51.0100 26.0717 1.4281
51.0300 26.0583 1.4277
51.0500 26.0449 1.4259
51.0700 26.0316 1.4258
51.0900 26.0183 1.4230
51.1100 26.0049 1.4236
51.1300 25.9916 1.4227
51.1500 25.9783 1.4199
51.1700 25.9650 1.4202
51.1900 25.9516 1.4187
51.2100 25.9383 1.4172
51.2300 25.9249 1.4164
51.2500 25.9116 1.4152
51.2700 25.8983 1.4128
51.2900 25.8850 1.4132
51.3100 25.8716 1.4105
51.3300 25.8583 1.4107
51.3500 25.8449 1.4084
51.3700 25.8316 1.4081
51.3900 25.8183 1.4059
51.4100 25.8049 1.4058
51.4300 25.7916 1.4049
51.4500 25.7783 1.4022
51.4700 25.7650 1.4030
51.4900 25.7516 1.4004
51.5100 25.7383 1.4005
51.5300 25.7250 1.3981
51.5500 25.7117 1.3990
51.5700 25.6983 1.3952
51.5900 25.6850 1.3961
51.6100 25.6716 1.3942
51.6300 25.6583 1.3935
51.6500 25.6450 1.3918
51.6700 25.6316 1.3913
51.6900 25.6182 1.3899
51.7100 25.6049 1.3883
51.7300 25.5916 1.3882
51.7500 25.5782 1.3856
51.7700 25.5649 1.3868
51.7900 25.5515 1.3836
51.8100 25.5382 1.3839
51.8300 25.5249 1.3821
51.8500 25.5116 1.3821
51.8700 25.4983 1.3790
51.8900 25.4850 1.3796
51.9100 25.4717 1.3769
51.9300 25.4583 1.3776
51.9500 25.4450 1.3747
51.9700 25.4317 1.3760
51.9900 25.4184 1.3722
52.0100 25.4050 1.3723
52.0300 25.3916 1.3711
52.0500 25.3783 1.3704
52.0700 25.3649 1.3687
52.0900 25.3516 1.3681
52.1100 25.3382 1.3665
52.1300 25.3249 1.3660
52.1500 25.3116 1.3655
52.1700 25.2983 1.3630
52.1900 25.2849 1.3634
52.2100 25.2716 1.3610
52.2300 25.2583 1.3616
52.2500 25.2450 1.3584
52.2700 25.2317 1.3602
52.2900 25.2183 1.3551
52.3100 25.2049 1.3581
52.3300 25.1916 1.3540
52.3500 25.1783 1.3549
52.3700 25.1649 1.3522
52.3900 25.1516 1.3525
52.4100 25.1382 1.3512
52.4300 25.1249 1.3500
52.4500 25.1116 1.3496
52.4700 25.0982 1.3464
52.4900 25.0849 1.3478
52.5100 25.0716 1.3451
52.5300 25.0583 1.3459
52.5500 25.0449 1.3421
52.5700 25.0316 1.3446
52.5900 25.0183 1.3396
52.6100 25.0050 1.3422
52.6300 24.9917 1.3393
52.6500 24.9783 1.3390
52.6700 24.9649 1.3371
52.6900 24.9516 1.3372
52.7100 24.9383 1.3350
52.7300 24.9249 1.3343
52.7500 24.9116 1.3346
52.7700 24.8982 1.3319
52.7900 24.8849 1.3316
52.8100 24.8716 1.3307
52.8300 24.8583 1.3294
52.8500 24.8449 1.3287
52.8700 24.8316 1.3284
52.8900 24.8183 1.3253
52.9100 24.8049 1.3264
52.9300 24.7916 1.3241
52.9500 24.7783 1.3246
52.9700 24.7650 1.3217
52.9900 24.7517 1.3226
53.0100 24.7383 1.3191
53.0300 24.7250 1.3201
53.0500 24.7116 1.3185
53.0700 24.6983 1.3182
53.0900 24.6850 1.3157
53.1100 24.6716 1.3158
53.1300 24.6582 1.3143
53.1500 24.6449 1.3128
53.1700 24.6316 1.3135
53.1900 24.6182 1.3099
53.2100 24.6049 1.3118
53.2300 24.5915 1.3082
53.2500 24.5782 1.3100
53.2700 24.5649 1.3054
53.2900 24.5516 1.3086
53.3100 24.5383 1.3042
53.3300 24.5250 1.3049
53.3500 24.5116 1.3037
53.3700 24.4983 1.3021
53.3900 24.4850 1.3017
53.4100 24.4717 1.3003
53.4300 24.4584 1.3005
53.4500 24.4450 1.2970
53.4700 24.4316 1.2994
53.4900 24.4182 1.2945
53.5100 24.4049 1.2980
53.5300 24.3916 1.2927
53.5500 24.3782 1.2955
53.5700 24.3648 1.2912
53.5900 24.3515 1.2937
53.6100 24.3382 1.2898
53.6300 24.3249 1.2903
53.6500 24.3116 1.2888
53.6700 24.2983 1.2883
53.6900 24.2850 1.2874
53.7100 24.2717 1.2861
53.7300 24.2583 1.2857
53.7500 24.2450 1.2834
53.7700 24.2316 1.2846
53.7900 24.2183 1.2814
53.8100 24.2050 1.2816
53.8300 24.1916 1.2804
53.8500 24.1782 1.2801
53.8700 24.1649 1.2774
53.8900 24.1516 1.2786
53.9100 24.1382 1.2758
53.9300 24.1249 1.2765
53.9500 24.1115 1.2743
53.9700 24.0982 1.2750
53.9900 24.0849 1.2714
54.0100 24.0716 1.2728
54.0300 24.0583 1.2705
54.0500 24.0450 1.2710
54.0700 24.0317 1.2693
54.0900 24.0183 1.2682
54.1100 24.0050 1.2668
54.1300 23.9916 1.2663
54.1500 23.9783 1.2663
54.1700 23.9650 1.2632
54.1900 23.9516 1.2657
54.2100 23.9382 1.2610
54.2300 23.9249 1.2631
54.2500 23.9116 1.2592
54.2700 23.8982 1.2617
54.2900 23.8849 1.2574
54.3100 23.8716 1.2601
54.3300 23.8583 1.2565
54.3500 23.8450 1.2561
54.3700 23.8317 1.2560
54.3900 23.8183 1.2546
54.4100 23.8050 1.2537
54.4300 23.7917 1.2526
54.4500 23.7784 1.2525
54.4700 23.7650 1.2496
54.4900 23.7516 1.2513
54.5100 23.7383 1.2483
54.5300 23.7250 1.2488
54.5500 23.7116 1.2464
54.5700 23.6982 1.2478
54.5900 23.6849 1.2436
54.6100 23.6716 1.2462
54.6300 23.6583 1.2428
54.6500 23.6449 1.2432
54.6700 23.6316 1.2418
54.6900 23.6183 1.2413
54.7100 23.6049 1.2391
54.7300 23.5916 1.2408
54.7500 23.5782 1.2373
54.7700 23.5649 1.2384
54.7900 23.5516 1.2351
54.8100 23.5383 1.2358
54.8300 23.5250 1.2340
54.8500 23.5116 1.2340
54.8700 23.4983 1.2336
54.8900 23.4850 1.2308
54.9100 23.4716 1.2317
54.9300 23.4582 1.2293
54.9500 23.4449 1.2295
54.9700 23.4316 1.2277
54.9900 23.4183 1.2288
55.0100 23.4049 1.2253
55.0300 23.3916 1.2267
55.0500 23.3783 1.2246
55.0700 23.3649 1.2237
55.0900 23.3516 1.2234
55.1100 23.3383 1.2228
55.1300 23.3249 1.2208
55.1500 23.3116 1.2197
55.1700 23.2983 1.2215
55.1900 23.2849 1.2166
55.2100 23.2716 1.2199
55.2300 23.2583 1.2149
55.2500 23.2450 1.2164
55.2700 23.2316 1.2143
55.2900 23.2183 1.2153
55.3100 23.2049 1.2118
55.3300 23.1916 1.2139
55.3500 23.1783 1.2106
55.3700 23.1649 1.2110
55.3900 23.1516 1.2103
55.4100 23.1383 1.2092
55.4300 23.1250 1.2080
55.4500 23.1116 1.2066
55.4700 23.0983 1.2076
55.4900 23.0850 1.2047
55.5100 23.0717 1.2065
55.5300 23.0583 1.2031
55.5500 23.0450 1.2048
55.5700 23.0316 1.2009
55.5900 23.0183 1.2039
55.6100 23.0050 1.1993
55.6300 22.9916 1.2009
55.6500 22.9782 1.1986
55.6700 22.9649 1.1988
55.6900 22.9516 1.1962
55.7100 22.9383 1.1980
55.7300 22.9249 1.1940
55.7500 22.9116 1.1956
55.7700 22.8982 1.1937
55.7900 22.8849 1.1927
55.8100 22.8716 1.1926
55.8300 22.8583 1.1911
55.8500 22.8450 1.1900
55.8700 22.8317 1.1887
55.8900 22.8184 1.1899
55.9100 22.8050 1.1859
55.9300 22.7916 1.1886
55.9500 22.7783 1.1844
55.9700 22.7649 1.1865
55.9900 22.7516 1.1834
56.0100 22.7382 1.1853
56.0300 22.7249 1.1813
56.0500 22.7116 1.1829
56.0700 22.6983 1.1811
56.0900 22.6849 1.1797
56.1100 22.6716 1.1802
56.1300 22.6582 1.1782
56.1500 22.6449 1.1790
56.1700 22.6316 1.1748
56.1900 22.6183 1.1790
56.2100 22.6049 1.1726
56.2300 22.5916 1.1768
56.2500 22.5783 1.1715
56.2700 22.5650 1.1740
56.2900 22.5516 1.1702
56.3100 22.5383 1.1734
56.3300 22.5250 1.1686
56.3500 22.5116 1.1711
56.3700 22.4982 1.1680
56.3900 22.4849 1.1680
56.4100 22.4716 1.1666
56.4300 22.4583 1.1669
56.4500 22.4449 1.1659
56.4700 22.4316 1.1640
56.4900 22.4183 1.1650
56.5100 22.4050 1.1613
56.5300 22.3916 1.1639
56.5500 22.3783 1.1609
56.5700 22.3650 1.1617
56.5900 22.3517 1.1592
56.6100 22.3383 1.1607
56.6300 22.3250 1.1568
56.6500 22.3116 1.1597
56.6700 22.2983 1.1563
56.6900 22.2849 1.1567
56.7100 22.2716 1.1539
56.7300 22.2583 1.1557
56.7500 22.2449 1.1523
56.7700 22.2316 1.1535
56.7900 22.2183 1.1517
56.8100 22.2050 1.1501
56.8300 22.1916 1.1514
56.8500 22.1783 1.1490
56.8700 22.1649 1.1493
56.8900 22.1516 1.1462
56.9100 22.1383 1.1486
56.9300 22.1249 1.1443
56.9500 22.1116 1.1471
56.9700 22.0983 1.1428
56.9900 22.0850 1.1453
57.0100 22.0716 1.1408
57.0300 22.0583 1.1440
57.0500 22.0450 1.1395
57.0700 22.0316 1.1413
57.0900 22.0183 1.1398
57.1100 22.0049 1.1385
57.1300 21.9916 1.1387
57.1500 21.9783 1.1367
57.1700 21.9649 1.1378
57.1900 21.9515 1.1339
57.2100 21.9382 1.1374
57.2300 21.9249 1.1316
57.2500 21.9116 1.1354
57.2700 21.8983 1.1313
57.2900 21.8849 1.1332
57.3100 21.8716 1.1299
57.3300 21.8583 1.1321
57.3500 21.8450 1.1283
57.3700 21.8316 1.1300
57.3900 21.8183 1.1280
57.4100 21.8050 1.1268
57.4300 21.7917 1.1267
57.4500 21.7783 1.1257
57.4700 21.7649 1.1258
57.4900 21.7515 1.1232
57.5100 21.7382 1.1247
57.5300 21.7249 1.1216
57.5500 21.7115 1.1222
57.5700 21.6982 1.1212
57.5900 21.6849 1.1207
57.6100 21.6716 1.1186
57.6300 21.6583 1.1201
57.6500 21.6449 1.1169
57.6700 21.6316 1.1186
57.6900 21.6183 1.1149
57.7100 21.6050 1.1169
57.7300 21.5916 1.1137
57.7500 21.5783 1.1154
57.7700 21.5650 1.1129
57.7900 21.5516 1.1122
57.8100 21.5383 1.1121
57.8300 21.5249 1.1105
57.8500 21.5116 1.1103
57.8700 21.4983 1.1087
57.8900 21.4849 1.1097
57.9100 21.4716 1.1059
57.9300 21.4582 1.1092
57.9500 21.4449 1.1044
57.9700 21.4316 1.1072
57.9900 21.4183 1.1037
58.0100 21.4049 1.1059
58.0300 21.3916 1.1016
58.0500 21.3783 1.1034
58.0700 21.3650 1.1019
58.0900 21.3516 1.1006
58.1100 21.3383 1.1020
58.1300 21.3250 1.0981
58.1500 21.3116 1.0990
58.1700 21.2983 1.0972
58.1900 21.2849 1.0990
58.2100 21.2716 1.0948
58.2300 21.2583 1.0973
58.2500 21.2450 1.0938
58.2700 21.2316 1.0952
58.2900 21.2183 1.0930
58.3100 21.2049 1.0941
58.3300 21.1916 1.0907
58.3500 21.1783 1.0925
58.3700 21.1649 1.0899
58.3900 21.1516 1.0902
58.4100 21.1383 1.0893
58.4300 21.1250 1.0888
58.4500 21.1116 1.0870
58.4700 21.0983 1.0877
58.4900 21.0850 1.0853
58.5100 21.0717 1.0848
58.5300 21.0583 1.0853
58.5500 21.0449 1.0832
58.5700 21.0316 1.0839
58.5900 21.0183 1.0814
58.6100 21.0049 1.0824
58.6300 20.9916 1.0791
58.6500 20.9782 1.0823
58.6700 20.9649 1.0772
58.6900 20.9516 1.0802
58.7100 20.9382 1.0767
58.7300 20.9249 1.0789
58.7500 20.9116 1.0754
58.7700 20.8983 1.0765
58.7900 20.8850 1.0754
58.8100 20.8716 1.0736
58.8300 20.8583 1.0747
58.8500 20.8450 1.0716
58.8700 20.8317 1.0737
58.8900 20.8183 1.0703
58.9100 20.8049 1.0735
58.9300 20.7916 1.0676
58.9500 20.7783 1.0719
58.9700 20.7649 1.0667
58.9900 20.7516 1.0689
59.0100 20.7382 1.0664
59.0300 20.7249 1.0680
59.0500 20.7116 1.0641
59.0700 20.6982 1.0657
59.0900 20.6849 1.0651
59.1100 20.6716 1.0620
59.1300 20.6583 1.0635
59.1500 20.6450 1.0615
59.1700 20.6316 1.0614
59.1900 20.6183 1.0606
59.2100 20.6050 1.0609
59.2300 20.5917 1.0572
59.2500 20.5783 1.0602
59.2700 20.5649 1.0565
59.2900 20.5516 1.0578
59.3100 20.5382 1.0551
59.3300 20.5249 1.0570
59.3500 20.5115 1.0521
59.3700 20.4982 1.0565
59.3900 20.4849 1.0521
59.4100 20.4716 1.0531
59.4300 20.4583 1.0508
59.4500 20.4449 1.0523
59.4700 20.4316 1.0491
59.4900 20.4183 1.0509
59.5100 20.4050 1.0484
59.5300 20.3916 1.0480
59.5500 20.3783 1.0477
59.5700 20.3650 1.0460
59.5900 20.3516 1.0469
59.6100 20.3383 1.0430
59.6300 20.3249 1.0473
59.6500 20.3115 1.0419
59.6700 20.2982 1.0452
59.6900 20.2849 1.0407
59.7100 20.2716 1.0428
59.7300 20.2582 1.0408
59.7500 20.2449 1.0414
59.7700 20.2316 1.0393
59.7900 20.2183 1.0393
59.8100 20.2049 1.0391
59.8300 20.1916 1.0373
59.8500 20.1784 1.0379
59.8700 20.1650 1.0353
59.8900 20.1516 1.0359
59.9100 20.1383 1.0335
59.9300 20.1249 1.0355
59.9500 20.1116 1.0310
59.9700 20.0983 1.0337
59.9900 20.0849 1.0305
60.0100 20.0716 1.0319
60.0300 20.0583 1.0290
60.0500 20.0449 1.0314
60.0700 20.0316 1.0277
60.0900 20.0182 1.0289
60.1100 20.0049 1.0278
60.1300 19.9916 1.0263
60.1500 19.9783 1.0264
60.1700 19.9649 1.0258
60.1900 19.9516 1.0251
60.2100 19.9383 1.0232
60.2300 19.9250 1.0252
60.2500 19.9116 1.0210
60.2700 19.8983 1.0242
60.2900 19.8850 1.0194
60.3100 19.8717 1.0221
60.3300 19.8583 1.0182
60.3500 19.8449 1.0216
60.3700 19.8315 1.0168
60.3900 19.8182 1.0197
60.4100 19.8049 1.0159
60.4300 19.7916 1.0177
60.4500 19.7782 1.0150
60.4700 19.7649 1.0158
60.4900 19.7516 1.0136
60.5100 19.7383 1.0136
60.5300 19.7249 1.0142
60.5500 19.7116 1.0104
60.5700 19.6983 1.0136
60.5900 19.6850 1.0097
60.6100 19.6716 1.0118
60.6300 19.6583 1.0071
60.6500 19.6450 1.0121
60.6700 19.6317 1.0049
60.6900 19.6183 1.0096
60.7100 19.6049 1.0053
60.7300 19.5916 1.0074
60.7500 19.5783 1.0040
60.7700 19.5649 1.0060
60.7900 19.5516 1.0028
60.8100 19.5382 1.0034
60.8300 19.5249 1.0031
60.8500 19.5116 1.0005
60.8700 19.4983 1.0024
60.8900 19.4849 0.9991
60.9100 19.4716 1.0015
60.9300 19.4583 0.9966
60.9500 19.4450 1.0014
60.9700 19.4317 0.9945
60.9900 19.4183 0.9991
61.0100 19.4050 0.9949
61.0300 19.3916 0.9967
61.0500 19.3783 0.9939
61.0700 19.3649 0.9954
61.0900 19.3516 0.9926
61.1100 19.3382 0.9932
61.1300 19.3249 0.9921
61.1500 19.3116 0.9910
61.1700 19.2982 0.9912
61.1900 19.2849 0.9898
61.2100 19.2716 0.9899
61.2300 19.2583 0.9872
61.2500 19.2450 0.9904
61.2700 19.2316 0.9855
61.2900 19.2183 0.9880
61.3100 19.2050 0.9844
61.3300 19.1917 0.9862
61.3500 19.1783 0.9839
61.3700 19.1650 0.9853
61.3900 19.1516 0.9818
61.4100 19.1383 0.9825
61.4300 19.1249 0.9816
61.4500 19.1115 0.9811
61.4700 19.0982 0.9795
61.4900 19.0849 0.9801
61.5100 19.0716 0.9789
61.5300 19.0582 0.9773
61.5500 19.0449 0.9795
61.5700 19.0316 0.9748
61.5900 19.0183 0.9785
61.6100 19.0050 0.9742
61.6300 18.9916 0.9769
61.6500 18.9783 0.9725
61.6700 18.9650 0.9763
61.6900 18.9517 0.9716
61.7100 18.9383 0.9735
61.7300 18.9249 0.9717
61.7500 18.9116 0.9712
61.7700 18.8983 0.9698
61.7900 18.8849 0.9698
61.8100 18.8716 0.9702
61.8300 18.8583 0.9664
61.8500 18.8449 0.9699
61.8700 18.8316 0.9653
61.8900 18.8182 0.9686
61.9100 18.8049 0.9640
61.9300 18.7916 0.9664
61.9500 18.7783 0.9632
61.9700 18.7649 0.9657
61.9900 18.7516 0.9613
62.0100 18.7383 0.9631
62.0300 18.7250 0.9610
62.0500 18.7116 0.9615
62.0700 18.6983 0.9595
62.0900 18.6849 0.9607
62.1100 18.6716 0.9585
62.1300 18.6583 0.9574
62.1500 18.6449 0.9585
62.1700 18.6316 0.9565
62.1900 18.6183 0.9569
62.2100 18.6049 0.9547
62.2300 18.5916 0.9560
62.2500 18.5782 0.9528
62.2700 18.5649 0.9556
62.2900 18.5516 0.9514
62.3100 18.5383 0.9534
62.3300 18.5249 0.9506
62.3500 18.5116 0.9522
62.3700 18.4983 0.9484
62.3900 18.4850 0.9513
62.4100 18.4717 0.9475
62.4300 18.4583 0.9487
62.4500 18.4449 0.9477
62.4700 18.4316 0.9464
62.4900 18.4183 0.9463
62.5100 18.4049 0.9448
62.5300 18.3916 0.9464
62.5500 18.3783 0.9424
62.5700 18.3649 0.9454
62.5900 18.3516 0.9410
62.6100 18.3382 0.9439
62.6300 18.3249 0.9401
62.6500 18.3116 0.9433
62.6700 18.2983 0.9381
62.6900 18.2849 0.9421
62.7100 18.2716 0.9371
62.7300 18.2583 0.9395
62.7500 18.2450 0.9371
62.7700 18.2317 0.9380
62.7900 18.2183 0.9355
62.8100 18.2049 0.9361
62.8300 18.1916 0.9356
62.8500 18.1783 0.9332
62.8700 18.1649 0.9349
62.8900 18.1515 0.9322
62.9100 18.1382 0.9333
62.9300 18.1249 0.9307
62.9500 18.1116 0.9323
62.9700 18.0982 0.9293
62.9900 18.0849 0.9314
63.0100 18.0716 0.9287
63.0300 18.0583 0.9294
63.0500 18.0450 0.9276
63.0700 18.0317 0.9282
63.0900 18.0183 0.9257
63.1100 18.0050 0.9267
63.1300 17.9917 0.9255
63.1500 17.9783 0.9243
63.1700 17.9649 0.9248
63.1900 17.9516 0.9226
63.2100 17.9383 0.9232
63.2300 17.9249 0.9218
63.2500 17.9115 0.9224
63.2700 17.8982 0.9193
63.2900 17.8849 0.9213
63.3100 17.8716 0.9184
63.3300 17.8582 0.9195
63.3500 17.8449 0.9172
63.3700 17.8316 0.9187
63.3900 17.8183 0.9150
63.4100 17.8050 0.9168
63.4300 17.7916 0.9155
63.4500 17.7783 0.9146
63.4700 17.7650 0.9145
63.4900 17.7517 0.9130
63.5100 17.7383 0.9132
63.5300 17.7249 0.9113
63.5500 17.7116 0.9127
63.5700 17.6983 0.9093
63.5900 17.6849 0.9115
63.6100 17.6716 0.9078
63.6300 17.6582 0.9096
63.6500 17.6449 0.9070
63.6700 17.6316 0.9098
63.6900 17.6182 0.9048
63.7100 17.6049 0.9082
63.7300 17.5916 0.9045
63.7500 17.5783 0.9060
63.7700 17.5650 0.9040
63.7900 17.5516 0.9054
63.8100 17.5383 0.9020
63.8300 17.5250 0.9030
63.8500 17.5117 0.9023
63.8700 17.4983 0.9002
63.8900 17.4849 0.9021
63.9100 17.4716 0.8990
63.9300 17.4583 0.8999
63.9500 17.4449 0.8976
63.9700 17.4316 0.8996
63.9900 17.4182 0.8953
64.0100 17.4049 0.8979
64.0300 17.3916 0.8951
64.0500 17.3783 0.8959
64.0700 17.3649 0.8943
64.0900 17.3516 0.8945
64.1100 17.3383 0.8928
64.1300 17.3249 0.8929
64.1500 17.3116 0.8928
64.1700 17.2983 0.8906
64.1900 17.2850 0.8915
64.2100 17.2717 0.8894
64.2300 17.2583 0.8901
64.2500 17.2449 0.8878
64.2700 17.2316 0.8894
64.2900 17.2183 0.8855
64.3100 17.2050 0.8882
64.3300 17.1916 0.8846
64.3500 17.1782 0.8871
64.3700 17.1649 0.8831
64.3900 17.1516 0.8863
64.4100 17.1382 0.8813
64.4300 17.1249 0.8848
64.4500 17.1116 0.8817
64.4700 17.0983 0.8815
64.4900 17.0849 0.8811
64.5100 17.0716 0.8805
64.5300 17.0583 0.8804
64.5500 17.0450 0.8784
64.5700 17.0317 0.8804
64.5900 17.0183 0.8761
64.6100 17.0050 0.8792
64.6300 16.9916 0.8749
64.6500 16.9783 0.8780
64.6700 16.9650 0.8729
64.6900 16.9516 0.8773
64.7100 16.9382 0.8717
64.7300 16.9249 0.8748
64.7500 16.9116 0.8724
64.7700 16.8982 0.8719
64.7900 16.8849 0.8722
64.8100 16.8716 0.8703
64.8300 16.8583 0.8705
64.8500 16.8449 0.8687
64.8700 16.8316 0.8700
64.8900 16.8183 0.8675
64.9100 16.8050 0.8683
64.9300 16.7917 0.8663
64.9500 16.7783 0.8670
64.9700 16.7650 0.8649
64.9900 16.7516 0.8672
65.0100 16.7383 0.8631
65.0300 16.7250 0.8644
65.0500 16.7116 0.8631
65.0700 16.6982 0.8626
65.0900 16.6849 0.8616
65.1100 16.6716 0.8614
65.1300 16.6582 0.8611
65.1500 16.6449 0.8598
65.1700 16.6316 0.8599
65.1900 16.6183 0.8589
65.2100 16.6049 0.8583
65.2300 16.5916 0.8573
65.2500 16.5783 0.8575
65.2700 16.5650 0.8549
65.2900 16.5517 0.8568
65.3100 16.5383 0.8532
65.3300 16.5249 0.8559
65.3500 16.5116 0.8529
65.3700 16.4983 0.8542
65.3900 16.4850 0.8510
65.4100 16.4716 0.8534
65.4300 16.4582 0.8497
65.4500 16.4450 0.8510
65.4700 16.4317 0.8494
65.4900 16.4183 0.8491
65.5100 16.4049 0.8475
65.5300 16.3916 0.8496
65.5500 16.3783 0.8470
65.5700 16.3649 0.8458
65.5900 16.3516 0.8466
65.6100 16.3383 0.8443
65.6300 16.3250 0.8458
65.6500 16.3116 0.8426
65.6700 16.2983 0.8446
65.6900 16.2849 0.8406
65.7100 16.2716 0.8443
65.7300 16.2583 0.8391
65.7500 16.2450 0.8422
65.7700 16.2316 0.8395
65.7900 16.2182 0.8402
65.8100 16.2049 0.8379
65.8300 16.1916 0.8398
65.8500 16.1782 0.8371
65.8700 16.1649 0.8367
65.8900 16.1516 0.8379
65.9100 16.1383 0.8354
65.9300 16.1249 0.8358
65.9500 16.1116 0.8346
65.9700 16.0983 0.8356
65.9900 16.0850 0.8322
66.0100 16.0717 0.8343
66.0300 16.0583 0.8303
66.0500 16.0450 0.8324
66.0700 16.0316 0.8305
66.0900 16.0183 0.8312
66.1100 16.0050 0.8284
66.1300 15.9916 0.8295
66.1500 15.9783 0.8282
66.1700 15.9650 0.8276
66.1900 15.9516 0.8267
66.2100 15.9383 0.8264
66.2300 15.9249 0.8253
66.2500 15.9115 0.8253
66.2700 15.8982 0.8249
66.2900 15.8849 0.8223
66.3100 15.8716 0.8250
66.3300 15.8582 0.8210
66.3500 15.8450 0.8229
66.3700 15.8317 0.8206
66.3900 15.8184 0.8220
66.4100 15.8050 0.8190
66.4300 15.7916 0.8212
66.4500 15.7783 0.8176
66.4700 15.7650 0.8189
66.4900 15.7516 0.8170
66.5100 15.7382 0.8182
66.5300 15.7249 0.8151
66.5500 15.7116 0.8160
66.5700 15.6982 0.8154
66.5900 15.6849 0.8135
66.6100 15.6716 0.8154
66.6300 15.6583 0.8116
66.6500 15.6450 0.8132
66.6700 15.6316 0.8110
66.6900 15.6183 0.8125
66.7100 15.6050 0.8096
66.7300 15.5917 0.8111
66.7500 15.5783 0.8088
66.7700 15.5649 0.8092
66.7900 15.5516 0.8077
66.8100 15.5383 0.8081
66.8300 15.5250 0.8055
66.8500 15.5116 0.8068
66.8700 15.4982 0.8054
66.8900 15.4849 0.8045
66.9100 15.4716 0.8045
66.9300 15.4583 0.8033
66.9500 15.4449 0.8022
66.9700 15.4316 0.8023
66.9900 15.4183 0.8017
67.0100 15.4049 0.8006
67.0300 15.3916 0.8005
67.0500 15.3783 0.7996
67.0700 15.3650 0.7991
67.0900 15.3517 0.7975
67.1100 15.3384 0.7989
67.1300 15.3250 0.7951
67.1500 15.3116 0.7984
67.1700 15.2983 0.7933
67.1900 15.2849 0.7968
67.2100 15.2716 0.7926
67.2300 15.2582 0.7950
67.2500 15.2449 0.7920
67.2700 15.2316 0.7929
67.2900 15.2182 0.7916
67.3100 15.2049 0.7905
67.3300 15.1916 0.7916
67.3500 15.1783 0.7889
67.3700 15.1650 0.7904
67.3900 15.1516 0.7872
67.4100 15.1383 0.7904
67.4300 15.1250 0.7859
67.4500 15.1117 0.7882
67.4700 15.0983 0.7845
67.4900 15.0850 0.7867
67.5100 15.0716 0.7839
67.5300 15.0583 0.7852
67.5500 15.0450 0.7832
67.5700 15.0316 0.7827
67.5900 15.0182 0.7829
67.6100 15.0049 0.7808
67.6300 14.9916 0.7820
67.6500 14.9782 0.7795
67.6700 14.9649 0.7804
67.6900 14.9515 0.7787
67.7100 14.9382 0.7796
67.7300 14.9249 0.7771
67.7500 14.9116 0.7787
67.7700 14.8983 0.7756
67.7900 14.8850 0.7769
67.8100 14.8717 0.7743
67.8300 14.8583 0.7764
67.8500 14.8450 0.7729
67.8700 14.8317 0.7750
67.8900 14.8184 0.7716
67.9100 14.8050 0.7724
67.9300 14.7916 0.7707
67.9500 14.7782 0.7718
67.9700 14.7649 0.7697
67.9900 14.7516 0.7698
68.0100 14.7382 0.7696
68.0300 14.7249 0.7678
68.0500 14.7115 0.7692
68.0700 14.6982 0.7663
68.0900 14.6849 0.7672
68.1100 14.6716 0.7650
68.1300 14.6583 0.7675
68.1500 14.6450 0.7627
68.1700 14.6317 0.7664
68.1900 14.6184 0.7618
68.2100 14.6050 0.7633
68.2300 14.5916 0.7623
68.2500 14.5783 0.7617
68.2700 14.5650 0.7615
68.2900 14.5516 0.7596
68.3100 14.5382 0.7609
68.3300 14.5249 0.7576
68.3500 14.5116 0.7600
68.3700 14.4982 0.7567
68.3900 14.4849 0.7584
68.4100 14.4715 0.7547
68.4300 14.4583 0.7580
68.4500 14.4450 0.7530
68.4700 14.4316 0.7566
68.4900 14.4183 0.7532
68.5100 14.4050 0.7538
68.5300 14.3917 0.7519
68.5500 14.3784 0.7535
68.5700 14.3650 0.7506
68.5900 14.3517 0.7513
68.6100 14.3383 0.7499
68.6300 14.3250 0.7493
68.6500 14.3116 0.7492
68.6700 14.2982 0.7484
68.6900 14.2849 0.7479
68.7100 14.2716 0.7465
68.7300 14.2582 0.7475
68.7500 14.2449 0.7442
68.7700 14.2316 0.7464
68.7900 14.2183 0.7436
68.8100 14.2050 0.7452
68.8300 14.1916 0.7421
68.8500 14.1783 0.7442
68.8700 14.1650 0.7409
68.8900 14.1517 0.7421
68.9100 14.1383 0.7408
68.9300 14.1250 0.7403
68.9500 14.1116 0.7392
68.9700 14.0983 0.7395
68.9900 14.0850 0.7371
69.0100 14.0716 0.7374
69.0300 14.0582 0.7374
69.0500 14.0449 0.7352
69.0700 14.0316 0.7370
69.0900 14.0183 0.7335
69.1100 14.0049 0.7362
69.1300 13.9916 0.7316
69.1500 13.9782 0.7347
69.1700 13.9649 0.7311
69.1900 13.9516 0.7326
69.2100 13.9383 0.7311
69.2300 13.9249 0.7307
69.2500 13.9117 0.7300
69.2700 13.8983 0.7299
69.2900 13.8850 0.7293
69.3100 13.8716 0.7274
69.3300 13.8583 0.7288
69.3500 13.8450 0.7254
69.3700 13.8316 0.7277
69.3900 13.8182 0.7242
69.4100 13.8049 0.7268
69.4300 13.7916 0.7233
69.4500 13.7783 0.7253
69.4700 13.7649 0.7213
69.4900 13.7515 0.7236
69.5100 13.7382 0.7217
69.5300 13.7249 0.7210
69.5500 13.7116 0.7208
69.5700 13.6982 0.7197
69.5900 13.6849 0.7200
69.6100 13.6716 0.7180
69.6300 13.6583 0.7185
69.6500 13.6450 0.7176
69.6700 13.6316 0.7165
69.6900 13.6183 0.7166
69.7100 13.6050 0.7159
69.7300 13.5916 0.7139
69.7500 13.5783 0.7157
69.7700 13.5649 0.7128
69.7900 13.5516 0.7137
69.8100 13.5383 0.7121
69.8300 13.5249 0.7116
69.8500 13.5116 0.7104
69.8700 13.4983 0.7113
69.8900 13.4850 0.7092
69.9100 13.4716 0.7103
69.9300 13.4583 0.7080
69.9500 13.4449 0.7087
69.9700 13.4317 0.7067
69.9900 13.4183 0.7066
70.0100 13.4050 0.7069
70.0300 13.3916 0.7046
70.0500 13.3783 0.7065
70.0700 13.3650 0.7026
70.0900 13.3516 0.7048
70.1100 13.3382 0.7013
70.1300 13.3249 0.7035
70.1500 13.3116 0.6998
70.1700 13.2983 0.7026
70.1900 13.2849 0.6989
70.2100 13.2716 0.7005
70.2300 13.2582 0.6985
70.2500 13.2449 0.6984
70.2700 13.2317 0.6978
70.2900 13.2183 0.6965
70.3100 13.2050 0.6968
70.3300 13.1917 0.6949
70.3500 13.1784 0.6965
70.3700 13.1650 0.6937
70.3900 13.1516 0.6945
70.4100 13.1383 0.6925
70.4300 13.1249 0.6933
70.4500 13.1116 0.6905
70.4700 13.0982 0.6927
70.4900 13.0849 0.6897
70.5100 13.0716 0.6906
70.5300 13.0583 0.6889
70.5500 13.0449 0.6892
70.5700 13.0316 0.6881
70.5900 13.0183 0.6879
70.6100 13.0050 0.6865
70.6300 12.9916 0.6867
70.6500 12.9783 0.6855
70.6700 12.9649 0.6855
70.6900 12.9516 0.6839
70.7100 12.9383 0.6837
70.7300 12.9250 0.6839
70.7500 12.9116 0.6810
70.7700 12.8983 0.6838
70.7900 12.8850 0.6790
70.8100 12.8716 0.6822
70.8300 12.8583 0.6779
70.8500 12.8449 0.6813
70.8700 12.8316 0.6767
70.8900 12.8183 0.6797
70.9100 12.8049 0.6759
70.9300 12.7915 0.6777
70.9500 12.7782 0.6753
70.9700 12.7649 0.6756
70.9900 12.7516 0.6746
71.0100 12.7383 0.6729
71.0300 12.7249 0.6755
71.0500 12.7116 0.6702
71.0700 12.6983 0.6739
71.0900 12.6850 0.6695
71.1100 12.6716 0.6724
71.1300 12.6583 0.6690
71.1500 12.6450 0.6707
71.1700 12.6316 0.6675
71.1900 12.6183 0.6688
71.2100 12.6049 0.6669
71.2300 12.5916 0.6670
71.2500 12.5783 0.6654
71.2700 12.5649 0.6661
71.2900 12.5516 0.6642
71.3100 12.5382 0.6640
71.3300 12.5250 0.6644
71.3500 12.5116 0.6622
71.3700 12.4983 0.6632
71.3900 12.4849 0.6611
71.4100 12.4716 0.6611
71.4300 12.4583 0.6600
71.4500 12.4450 0.6604
71.4700 12.4316 0.6584
71.4900 12.4183 0.6595
71.5100 12.4050 0.6573
71.5300 12.3916 0.6567
71.5500 12.3783 0.6554
71.5700 12.3649 0.6573
71.5900 12.3516 0.6542
71.6100 12.3383 0.6548
71.6300 12.3249 0.6536
71.6500 12.3116 0.6527
71.6700 12.2982 0.6528
71.6900 12.2849 0.6512
71.7100 12.2716 0.6520
71.7300 12.2583 0.6488
71.7500 12.2449 0.6513
71.7700 12.2316 0.6478
71.7900 12.2183 0.6499
71.8100 12.2050 0.6466
71.8300 12.1916 0.6485
71.8500 12.1783 0.6454
71.8700 12.1650 0.6480
71.8900 12.1516 0.6435
71.9100 12.1383 0.6458
71.9300 12.1249 0.6432
71.9500 12.1115 0.6436
71.9700 12.0982 0.6429
71.9900 12.0849 0.6417
72.0100 12.0715 0.6417
72.0300 12.0582 0.6402
72.0500 12.0449 0.6411
72.0700 12.0316 0.6385
72.0900 12.0183 0.6394
72.1100 12.0049 0.6377
72.1300 11.9916 0.6378
72.1500 11.9783 0.6358
72.1700 11.9650 0.6374
72.1900 11.9516 0.6346
72.2100 11.9383 0.6355
72.2300 11.9250 0.6340
72.2500 11.9116 0.6333
72.2700 11.8983 0.6326
72.2900 11.8849 0.6322
72.3100 11.8716 0.6318
72.3300 11.8583 0.6303
72.3500 11.8449 0.6307
72.3700 11.8316 0.6285
72.3900 11.8182 0.6302
72.4100 11.8049 0.6269
72.4300 11.7916 0.6291
72.4500 11.7783 0.6255
72.4700 11.7649 0.6282
72.4900 11.7516 0.6241
72.5100 11.7383 0.6264
72.5300 11.7250 0.6234
72.5500 11.7116 0.6254
72.5700 11.6983 0.6217
72.5900 11.6850 0.6244
72.6100 11.6717 0.6198
72.6300 11.6583 0.6220
72.6500 11.6449 0.6206
72.6700 11.6316 0.6194
72.6900 11.6183 0.6198
72.7100 11.6050 0.6170
72.7300 11.5916 0.6192
72.7500 11.5782 0.6153
72.7700 11.5649 0.6195
72.7900 11.5516 0.6126
72.8100 11.5383 0.6176
72.8300 11.5249 0.6118
72.8500 11.5116 0.6160
72.8700 11.4983 0.6112
72.8900 11.4850 0.6142
72.9100 11.4716 0.6106
72.9300 11.4583 0.6113
72.9500 11.4450 0.6112
72.9700 11.4317 0.6085
72.9900 11.4183 0.6108
73.0100 11.4049 0.6069
73.0300 11.3916 0.6092
73.0500 11.3783 0.6046
73.0700 11.3649 0.6084
73.0900 11.3516 0.6039
73.1100 11.3382 0.6067
73.1300 11.3249 0.6031
73.1500 11.3116 0.6045
73.1700 11.2983 0.6023
73.1900 11.2849 0.6034
73.2100 11.2716 0.6013
73.2300 11.2583 0.6008
73.2500 11.2450 0.6005
73.2700 11.2316 0.5996
73.2900 11.2183 0.5993
73.3100 11.2050 0.5983
73.3300 11.1917 0.5979
73.3500 11.1783 0.5959
73.3700 11.1649 0.5973
73.3900 11.1516 0.5946
73.4100 11.1383 0.5953
73.4300 11.1249 0.5936
73.4500 11.1116 0.5941
73.4700 11.0982 0.5916
73.4900 11.0849 0.5936
73.5100 11.0716 0.5900
73.5300 11.0582 0.5922
73.5500 11.0449 0.5892
73.5700 11.0316 0.5912
73.5900 11.0183 0.5877
73.6100 11.0050 0.5894
73.6300 10.9916 0.5875
73.6500 10.9783 0.5866
73.6700 10.9650 0.5873
73.6900 10.9517 0.5848
73.7100 10.9383 0.5857
73.7300 10.9249 0.5838
73.7500 10.9116 0.5853
73.7700 10.8982 0.5809
73.7900 10.8849 0.5845
73.8100 10.8716 0.5795
73.8300 10.8582 0.5833
73.8500 10.8449 0.5779
73.8700 10.8316 0.5820
73.8900 10.8183 0.5772
73.9100 10.8050 0.5793
73.9300 10.7916 0.5775
73.9500 10.7783 0.5761
73.9700 10.7650 0.5769
73.9900 10.7517 0.5752
74.0100 10.7383 0.5750
74.0300 10.7249 0.5736
74.0500 10.7116 0.5741
74.0700 10.6983 0.5710
74.0900 10.6849 0.5737
74.1100 10.6716 0.5704
74.1300 10.6582 0.5721
74.1500 10.6449 0.5682
74.1700 10.6316 0.5708
74.1900 10.6182 0.5677
74.2100 10.6049 0.5692
74.2300 10.5916 0.5668
74.2500 10.5783 0.5670
74.2700 10.5649 0.5662
74.2900 10.5516 0.5658
74.3100 10.5383 0.5642
74.3300 10.5250 0.5643
74.3500 10.5117 0.5637
74.3700 10.4983 0.5619
74.3900 10.4849 0.5630
74.4100 10.4716 0.5602
74.4300 10.4583 0.5617
74.4500 10.4449 0.5578
74.4700 10.4316 0.5617
74.4900 10.4183 0.5561
74.5100 10.4050 0.5602
74.5300 10.3916 0.5552
74.5500 10.3782 0.5583
74.5700 10.3649 0.5544
74.5900 10.3516 0.5561
74.6100 10.3383 0.5537
74.6300 10.3249 0.5540
74.6500 10.3116 0.5530
74.6700 10.2983 0.5518
74.6900 10.2850 0.5526
74.7100 10.2717 0.5495
74.7300 10.2583 0.5519
74.7500 10.2449 0.5480
74.7700 10.2316 0.5513
74.7900 10.2183 0.5458
74.8100 10.2049 0.5499
74.8300 10.1916 0.5452
74.8500 10.1782 0.5479
74.8700 10.1649 0.5441
74.8900 10.1516 0.5460
74.9100 10.1382 0.5425
74.9300 10.1249 0.5444
74.9500 10.1116 0.5423
74.9700 10.0982 0.5421
74.9900 10.0849 0.5417
75.0100 10.0716 0.5408
75.0300 10.0583 0.5402
75.0500 10.0450 0.5389
75.0700 10.0316 0.5400
75.0900 10.0183 0.5369
75.1100 10.0050 0.5384
75.1300 9.9917 0.5351
75.1500 9.9783 0.5364
75.1700 9.9649 0.5342
75.1900 9.9516 0.5362
75.2100 9.9382 0.5330
75.2300 9.9249 0.5335
75.2500 9.9116 0.5323
75.2700 9.8982 0.5316
75.2900 9.8849 0.5315
75.3100 9.8716 0.5305
75.3300 9.8583 0.5299
75.3500 9.8449 0.5287
75.3700 9.8316 0.5293
75.3900 9.8183 0.5268
75.4100 9.8050 0.5285
75.4300 9.7916 0.5257
75.4500 9.7783 0.5275
75.4700 9.7649 0.5233
75.4900 9.7516 0.5270
75.5100 9.7383 0.5214
75.5300 9.7249 0.5252
75.5500 9.7116 0.5211
75.5700 9.6982 0.5227
75.5900 9.6849 0.5197
75.6100 9.6716 0.5212
75.6300 9.6582 0.5190
75.6500 9.6449 0.5189
75.6700 9.6316 0.5189
75.6900 9.6183 0.5162
75.7100 9.6049 0.5175
75.7300 9.5916 0.5154
75.7500 9.5783 0.5166
75.7700 9.5650 0.5117
75.7900 9.5517 0.5170
75.8100 9.5383 0.5099
75.8300 9.5250 0.5143
75.8500 9.5117 0.5099
75.8700 9.4983 0.5121
75.8900 9.4849 0.5086
75.9100 9.4715 0.5106
75.9300 9.4582 0.5076
75.9500 9.4449 0.5084
75.9700 9.4316 0.5076
75.9900 9.4182 0.5065
76.0100 9.4049 0.5062
76.0300 9.3916 0.5052
76.0500 9.3783 0.5053
76.0700 9.3650 0.5027
76.0900 9.3516 0.5053
76.1100 9.3383 0.5011
76.1300 9.3250 0.5030
76.1500 9.3117 0.5002
76.1700 9.2983 0.5013
76.1900 9.2849 0.4986
76.2100 9.2716 0.4995
76.2300 9.2583 0.4972
76.2500 9.2449 0.4979
76.2700 9.2316 0.4964
76.2900 9.2182 0.4961
76.3100 9.2049 0.4944
76.3300 9.1916 0.4947
76.3500 9.1782 0.4942
76.3700 9.1649 0.4925
76.3900 9.1516 0.4936
76.4100 9.1383 0.4900
76.4300 9.1249 0.4928
76.4500 9.1116 0.4887
76.4700 9.0983 0.4910
76.4900 9.0850 0.4876
76.5100 9.0716 0.4897
76.5300 9.0583 0.4861
76.5500 9.0449 0.4878
76.5700 9.0316 0.4854
76.5900 9.0183 0.4867
76.6100 9.0049 0.4836
76.6300 8.9916 0.4853
76.6500 8.9782 0.4832
76.6700 8.9649 0.4820
76.6900 8.9516 0.4828
76.7100 8.9382 0.4798
76.7300 8.9249 0.4822
76.7500 8.9116 0.4776
76.7700 8.8983 0.4808
76.7900 8.8849 0.4765
76.8100 8.8716 0.4798
76.8300 8.8583 0.4756
76.8500 8.8450 0.4765
76.8700 8.8316 0.4750
76.8900 8.8183 0.4747
76.9100 8.8049 0.4734
76.9300 8.7916 0.4735
76.9500 8.7783 0.4723
76.9700 8.7650 0.4708
76.9900 8.7516 0.4717
77.0100 8.7383 0.4692
77.0300 8.7249 0.4702
77.0500 8.7116 0.4676
77.0700 8.6982 0.4690
77.0900 8.6849 0.4666
77.1100 8.6716 0.4680
77.1300 8.6583 0.4644
77.1500 8.6449 0.4660
77.1700 8.6316 0.4638
77.1900 8.6183 0.4650
77.2100 8.6050 0.4617
77.2300 8.5917 0.4635
77.2500 8.5783 0.4603
77.2700 8.5649 0.4617
77.2900 8.5516 0.4591
77.3100 8.5383 0.4596
77.3300 8.5249 0.4578
77.3500 8.5115 0.4579
77.3700 8.4982 0.4582
77.3900 8.4849 0.4552
77.4100 8.4716 0.4578
77.4300 8.4582 0.4533
77.4500 8.4449 0.4563
77.4700 8.4316 0.4516
77.4900 8.4183 0.4553
77.5100 8.4050 0.4496
77.5300 8.3917 0.4539
77.5500 8.3784 0.4493
77.5700 8.3650 0.4504
77.5900 8.3517 0.4487
77.6100 8.3383 0.4486
77.6300 8.3249 0.4468
77.6500 8.3116 0.4479
77.6700 8.2983 0.4461
77.6900 8.2849 0.4442
77.7100 8.2715 0.4461
77.7300 8.2582 0.4430
77.7500 8.2449 0.4437
77.7700 8.2316 0.4409
77.7900 8.2182 0.4434
77.8100 8.2049 0.4390
77.8300 8.1916 0.4416
77.8500 8.1783 0.4382
77.8700 8.1649 0.4397
77.8900 8.1516 0.4376
77.9100 8.1383 0.4383
77.9300 8.1250 0.4351
77.9500 8.1116 0.4374
77.9700 8.0983 0.4345
77.9900 8.0849 0.4350
78.0100 8.0716 0.4339
78.0300 8.0583 0.4325
78.0500 8.0450 0.4320
78.0700 8.0316 0.4301
78.0900 8.0182 0.4323
78.1100 8.0049 0.4278
78.1300 7.9916 0.4310
78.1500 7.9782 0.4270
78.1700 7.9649 0.4284
78.1900 7.9516 0.4259
78.2100 7.9383 0.4276
78.2300 7.9250 0.4237
78.2500 7.9116 0.4262
78.2700 7.8983 0.4226
78.2900 7.8850 0.4237
78.3100 7.8716 0.4223
78.3300 7.8583 0.4221
78.3500 7.8449 0.4205
78.3700 7.8316 0.4199
78.3900 7.8183 0.4201
78.4100 7.8050 0.4173
78.4300 7.7916 0.4191
78.4500 7.7782 0.4168
78.4700 7.7649 0.4165
78.4900 7.7516 0.4151
78.5100 7.7383 0.4163
78.5300 7.7249 0.4129
78.5500 7.7116 0.4148
78.5700 7.6983 0.4121
78.5900 7.6849 0.4123
78.6100 7.6716 0.4113
78.6300 7.6583 0.4109
78.6500 7.6450 0.4099
78.6700 7.6317 0.4086
78.6900 7.6183 0.4093
78.7100 7.6049 0.4065
78.7300 7.5916 0.4082
78.7500 7.5783 0.4053
78.7700 7.5650 0.4056
78.7900 7.5516 0.4031
78.8100 7.5382 0.4052
78.8300 7.5249 0.4017
78.8500 7.5116 0.4041
78.8700 7.4982 0.3996
78.8900 7.4849 0.4020
78.9100 7.4716 0.3983
78.9300 7.4583 0.4003
78.9500 7.4449 0.3976
78.9700 7.4316 0.3980
78.9900 7.4183 0.3967
79.0100 7.4050 0.3949
79.0300 7.3917 0.3964
79.0500 7.3783 0.3943
79.0700 7.3649 0.3946
79.0900 7.3516 0.3923
79.1100 7.3383 0.3937
79.1300 7.3250 0.3902
79.1500 7.3116 0.3918
79.1700 7.2982 0.3893
79.1900 7.2849 0.3898
79.2100 7.2716 0.3871
79.2300 7.2582 0.3893
79.2500 7.2448 0.3852
79.2700 7.2315 0.3871
79.2900 7.2182 0.3849
79.3100 7.2049 0.3848
79.3300 7.1916 0.3838
79.3500 7.1783 0.3834
79.3700 7.1650 0.3821
79.3900 7.1517 0.3807
79.4100 7.1383 0.3816
79.4300 7.1249 0.3791
79.4500 7.1116 0.3799
79.4700 7.0983 0.3773
79.4900 7.0850 0.3791
79.5100 7.0716 0.3754
79.5300 7.0582 0.3785
79.5500 7.0449 0.3736
79.5700 7.0316 0.3768
79.5900 7.0182 0.3727
79.6100 7.0049 0.3742
79.6300 6.9916 0.3714
79.6500 6.9783 0.3723
79.6700 6.9649 0.3702
79.6900 6.9516 0.3696
79.7100 6.9383 0.3710
79.7300 6.9250 0.3666
79.7500 6.9117 0.3688
79.7700 6.8983 0.3661
79.7900 6.8850 0.3670
79.8100 6.8716 0.3637
79.8300 6.8583 0.3658
79.8500 6.8450 0.3619
79.8700 6.8316 0.3641
79.8900 6.8182 0.3613
79.9100 6.8049 0.3623
79.9300 6.7917 0.3599
79.9500 6.7783 0.3614
79.9700 6.7649 0.3590
79.9900 6.7516 0.3591
80.0100 6.7383 0.3581
80.0300 6.7249 0.3567
80.0500 6.7116 0.3563
80.0700 6.6982 0.3561
80.0900 6.6849 0.3549
80.1100 6.6716 0.3532
80.1300 6.6583 0.3543
80.1500 6.6449 0.3515
80.1700 6.6316 0.3528
80.1900 6.6183 0.3502
80.2100 6.6050 0.3512
80.2300 6.5916 0.3477
80.2500 6.5783 0.3502
80.2700 6.5649 0.3465
80.2900 6.5516 0.3475
80.3100 6.5382 0.3464
80.3300 6.5249 0.3455
80.3500 6.5115 0.3455
80.3700 6.4982 0.3441
80.3900 6.4849 0.3439
80.4100 6.4716 0.3420
80.4300 6.4582 0.3429
80.4500 6.4450 0.3400
80.4700 6.4317 0.3403
80.4900 6.4183 0.3390
80.5100 6.4050 0.3398
80.5300 6.3916 0.3360
80.5500 6.3783 0.3392
80.5700 6.3650 0.3345
80.5900 6.3516 0.3355
80.6100 6.3382 0.3344
80.6300 6.3249 0.3335
80.6500 6.3116 0.3326
80.6700 6.2983 0.3325
80.6900 6.2849 0.3314
80.7100 6.2715 0.3298
80.7300 6.2582 0.3311
80.7500 6.2449 0.3285
80.7700 6.2316 0.3301
80.7900 6.2182 0.3279
80.8100 6.2050 0.3285
80.8300 6.1917 0.3253
80.8500 6.1783 0.3274
80.8700 6.1650 0.3234
80.8900 6.1516 0.3247
80.9100 6.1383 0.3222
80.9300 6.1250 0.3230
80.9500 6.1117 0.3207
80.9700 6.0983 0.3214
80.9900 6.0849 0.3192
81.0100 6.0716 0.3185
81.0300 6.0582 0.3177
81.0500 6.0449 0.3176
81.0700 6.0315 0.3163
81.0900 6.0183 0.3161
81.1100 6.0050 0.3154
81.1300 5.9916 0.3134
81.1500 5.9783 0.3150
81.1700 5.9650 0.3128
81.1900 5.9517 0.3137
81.2100 5.9384 0.3115
81.2300 5.9250 0.3124
81.2500 5.9116 0.3093
81.2700 5.8983 0.3111
81.2900 5.8850 0.3081
81.3100 5.8716 0.3079
81.3300 5.8582 0.3074
81.3500 5.8449 0.3068
81.3700 5.8316 0.3054
81.3900 5.8182 0.3048
81.4100 5.8049 0.3044
81.4300 5.7915 0.3019
81.4500 5.7782 0.3043
81.4700 5.7649 0.3000
81.4900 5.7516 0.3023
81.5100 5.7383 0.2989
81.5300 5.7250 0.3011
81.5500 5.7117 0.2964
81.5700 5.6983 0.2999
81.5900 5.6850 0.2975
81.6100 5.6716 0.2982
81.6300 5.6582 0.2972
81.6500 5.6449 0.2958
81.6700 5.6316 0.2947
81.6900 5.6182 0.2941
81.7100 5.6049 0.2939
81.7300 5.5916 0.2910
81.7500 5.5782 0.2927
81.7700 5.5649 0.2889
81.7900 5.5516 0.2912
81.8100 5.5383 0.2876
81.8300 5.5249 0.2899
81.8500 5.5116 0.2856
81.8700 5.4983 0.2884
81.8900 5.4850 0.2849
81.9100 5.4717 0.2858
81.9300 5.4583 0.2838
81.9500 5.4450 0.2843
81.9700 5.4316 0.2814
81.9900 5.4183 0.2832
82.0100 5.4050 0.2801
82.0300 5.3916 0.2814
82.0500 5.3782 0.2806
82.0700 5.3649 0.2819
82.0900 5.3516 0.2780
82.1100 5.3383 0.2791
82.1300 5.3249 0.2771
82.1500 5.3115 0.2756
82.1700 5.2982 0.2762
82.1900 5.2849 0.2741
82.2100 5.2716 0.2744
82.2300 5.2583 0.2720
82.2500 5.2450 0.2735
82.2700 5.2317 0.2692
82.2900 5.2183 0.2721
82.3100 5.2050 0.2688
82.3300 5.1917 0.2694
82.3500 5.1784 0.2675
82.3700 5.1650 0.2678
82.3900 5.1516 0.2655
82.4100 5.1382 0.2662
82.4300 5.1249 0.2657
82.4500 5.1116 0.2631
82.4700 5.0982 0.2657
82.4900 5.0849 0.2628
82.5100 5.0715 0.2652
82.5300 5.0582 0.2610
82.5500 5.0449 0.2633
82.5700 5.0316 0.2588
82.5900 5.0183 0.2610
82.6100 5.0049 0.2589
82.6300 4.9917 0.2583
82.6500 4.9784 0.2568
82.6700 4.9650 0.2572
82.6900 4.9516 0.2548
82.7100 4.9383 0.2552
82.7300 4.9250 0.2546
82.7500 4.9116 0.2525
82.7700 4.8982 0.2533
82.7900 4.8849 0.2515
82.8100 4.8716 0.2519
82.8300 4.8582 0.2497
82.8500 4.8449 0.2516
82.8700 4.8315 0.2491
82.8900 4.8182 0.2508
82.9100 4.8049 0.2481
82.9300 4.7916 0.2480
82.9500 4.7783 0.2456
82.9700 4.7649 0.2479
82.9900 4.7517 0.2426
83.0100 4.7384 0.2465
83.0300 4.7250 0.2422
83.0500 4.7117 0.2437
83.0700 4.6983 0.2403
83.0900 4.6850 0.2419
83.1100 4.6716 0.2395
83.1300 4.6582 0.2387
83.1500 4.6449 0.2400
83.1700 4.6315 0.2364
83.1900 4.6182 0.2382
83.2100 4.6049 0.2361
83.2300 4.5915 0.2379
83.2500 4.5783 0.2344
83.2700 4.5650 0.2372
83.2900 4.5516 0.2320
83.3100 4.5383 0.2347
83.3300 4.5250 0.2313
83.3500 4.5117 0.2313
83.3700 4.4984 0.2301
83.3900 4.4850 0.2298
83.4100 4.4716 0.2288
83.4300 4.4583 0.2274
83.4500 4.4450 0.2286
83.4700 4.4316 0.2248
83.4900 4.4182 0.2275
83.5100 4.4049 0.2237
83.5300 4.3916 0.2251
83.5500 4.3783 0.2222
83.5700 4.3649 0.2251
83.5900 4.3516 0.2207
83.6100 4.3382 0.2227
83.6300 4.3249 0.2198
83.6500 4.3116 0.2205
83.6700 4.2982 0.2182
83.6900 4.2849 0.2193
83.7100 4.2716 0.2167
83.7300 4.2583 0.2162
83.7500 4.2450 0.2154
83.7700 4.2316 0.2144
83.7900 4.2183 0.2137
83.8100 4.2050 0.2135
83.8300 4.1916 0.2116
83.8500 4.1783 0.2119
83.8700 4.1649 0.2127
83.8900 4.1516 0.2098
83.9100 4.1383 0.2108
83.9300 4.1249 0.2082
83.9500 4.1116 0.2094
83.9700 4.0982 0.2051
83.9900 4.0849 0.2082
84.0100 4.0716 0.2038
84.0300 4.0582 0.2060
84.0500 4.0449 0.2030
84.0700 4.0316 0.2039
84.0900 4.0183 0.2015
84.1100 4.0050 0.2031
84.1300 3.9916 0.2010
84.1500 3.9783 0.2001
84.1700 3.9650 0.2008
84.1900 3.9516 0.1972
84.2100 3.9383 0.1986
84.2300 3.9249 0.1967
84.2500 3.9116 0.1973
84.2700 3.8983 0.1940
84.2900 3.8849 0.1964
84.3100 3.8716 0.1929
84.3300 3.8582 0.1941
84.3500 3.8449 0.1927
84.3700 3.8316 0.1917
84.3900 3.8183 0.1908
84.4100 3.8049 0.1907
84.4300 3.7916 0.1898
84.4500 3.7783 0.1892
84.4700 3.7650 0.1898
84.4900 3.7516 0.1872
84.5100 3.7383 0.1875
84.5300 3.7250 0.1861
84.5500 3.7116 0.1851
84.5700 3.6983 0.1836
84.5900 3.6849 0.1854
84.6100 3.6715 0.1817
84.6300 3.6582 0.1822
84.6500 3.6449 0.1810
84.6700 3.6316 0.1805
84.6900 3.6182 0.1792
84.7100 3.6049 0.1800
84.7300 3.5916 0.1775
84.7500 3.5783 0.1773
84.7700 3.5650 0.1774
84.7900 3.5517 0.1762
84.8100 3.5384 0.1749
84.8300 3.5250 0.1747
84.8500 3.5116 0.1734
84.8700 3.4983 0.1716
84.8900 3.4849 0.1729
84.9100 3.4716 0.1693
84.9300 3.4582 0.1711
84.9500 3.4449 0.1679
84.9700 3.4316 0.1705
84.9900 3.4183 0.1649
85.0100 3.4049 0.1690
85.0300 3.3916 0.1648
85.0500 3.3783 0.1661
85.0700 3.3650 0.1650
85.0900 3.3516 0.1641
85.1100 3.3383 0.1639
85.1300 3.3249 0.1630
85.1500 3.3116 0.1638
85.1700 3.2983 0.1602
85.1900 3.2850 0.1632
85.2100 3.2716 0.1583
85.2300 3.2583 0.1610
85.2500 3.2450 0.1570
85.2700 3.2316 0.1591
85.2900 3.2183 0.1542
85.3100 3.2049 0.1583
85.3300 3.1916 0.1539
85.3500 3.1783 0.1539
85.3700 3.1649 0.1537
85.3900 3.1516 0.1520
85.4100 3.1382 0.1522
85.4300 3.1249 0.1510
85.4500 3.1116 0.1505
85.4700 3.0983 0.1483
85.4900 3.0849 0.1498
85.5100 3.0716 0.1470
85.5300 3.0583 0.1469
85.5500 3.0450 0.1457
85.5700 3.0316 0.1460
85.5900 3.0182 0.1434
85.6100 3.0049 0.1447
85.6300 2.9916 0.1420
85.6500 2.9783 0.1421
85.6700 2.9649 0.1410
85.6900 2.9516 0.1411
85.7100 2.9383 0.1384
85.7300 2.9250 0.1393
85.7500 2.9116 0.1369
85.7700 2.8983 0.1375
85.7900 2.8849 0.1361
85.8100 2.8716 0.1356
85.8300 2.8583 0.1340
85.8500 2.8449 0.1328
85.8700 2.8316 0.1331
85.8900 2.8183 0.1297
85.9100 2.8050 0.1325
85.9300 2.7916 0.1277
85.9500 2.7783 0.1305
85.9700 2.7650 0.1266
85.9900 2.7517 0.1289
86.0100 2.7383 0.1245
86.0300 2.7249 0.1281
86.0500 2.7116 0.1248
86.0700 2.6982 0.1246
86.0900 2.6849 0.1236
86.1100 2.6715 0.1230
86.1300 2.6582 0.1224
86.1500 2.6449 0.1200
86.1700 2.6316 0.1215
86.1900 2.6183 0.1168
86.2100 2.6049 0.1205
86.2300 2.5916 0.1158
86.2500 2.5783 0.1178
86.2700 2.5650 0.1147
86.2900 2.5516 0.1158
86.3100 2.5383 0.1133
86.3300 2.5250 0.1141
86.3500 2.5116 0.1122
86.3700 2.4983 0.1108
86.3900 2.4849 0.1106
86.4100 2.4716 0.1098
86.4300 2.4582 0.1083
86.4500 2.4449 0.1078
86.4700 2.4315 0.1075
86.4900 2.4182 0.1060
86.5100 2.4049 0.1056
86.5300 2.3916 0.1040
86.5500 2.3783 0.1037
86.5700 2.3649 0.1023
86.5900 2.3516 0.1031
86.6100 2.3383 0.0997
86.6300 2.3250 0.1022
86.6500 2.3117 0.0980
86.6700 2.2983 0.0998
86.6900 2.2850 0.0963
86.7100 2.2716 0.0988
86.7300 2.2583 0.0938
86.7500 2.2449 0.0966
86.7700 2.2316 0.0937
86.7900 2.2183 0.0934
86.8100 2.2049 0.0923
86.8300 2.1916 0.0913
86.8500 2.1782 0.0913
86.8700 2.1649 0.0890
86.8900 2.1516 0.0906
86.9100 2.1383 0.0860
86.9300 2.1249 0.0888
86.9500 2.1116 0.0854
86.9700 2.0983 0.0860
86.9900 2.0850 0.0832
87.0100 2.0716 0.0845
87.0300 2.0583 0.0815
87.0500 2.0450 0.0818
87.0700 2.0317 0.0809
87.0900 2.0183 0.0792
87.1100 2.0049 0.0794
87.1300 1.9916 0.0786
87.1500 1.9783 0.0783
87.1700 1.9650 0.0758
87.1900 1.9516 0.0780
87.2100 1.9383 0.0730
87.2300 1.9249 0.0765
87.2500 1.9116 0.0722
87.2700 1.8983 0.0734
87.2900 1.8849 0.0707
87.3100 1.8716 0.0727
87.3300 1.8583 0.0695
87.3500 1.8450 0.0703
87.3700 1.8316 0.0682
87.3900 1.8183 0.0685
87.4100 1.8050 0.0673
87.4300 1.7917 0.0689
87.4500 1.7783 0.0668
87.4700 1.7649 0.0680
87.4900 1.7516 0.0677
87.5100 1.7383 0.0659
87.5300 1.7250 0.0670
87.5500 1.7116 0.0663
87.5700 1.6982 0.0660
87.5900 1.6849 0.0641
87.6100 1.6716 0.0645
87.6300 1.6583 0.0614
87.6500 1.6449 0.0621
87.6700 1.6316 0.0610
87.6900 1.6183 0.0591
87.7100 1.6050 0.0578
87.7300 1.5917 0.0584
87.7500 1.5783 0.0560
87.7700 1.5650 0.0562
87.7900 1.5517 0.0551
87.8100 1.5383 0.0529
87.8300 1.5249 0.0544
87.8500 1.5116 0.0528
87.8700 1.4983 0.0549
87.8900 1.4850 0.0498
87.9100 1.4716 0.0531
87.9300 1.4582 0.0479
87.9500 1.4449 0.0506
87.9700 1.4316 0.0473
87.9900 1.4182 0.0483
88.0100 1.4049 0.0450
88.0300 1.3916 0.0472
88.0500 1.3783 0.0430
88.0700 1.3650 0.0441
88.0900 1.3517 0.0425
88.1100 1.3383 0.0418
88.1300 1.3250 0.0404
88.1500 1.3117 0.0393
88.1700 1.2983 0.0388
88.1900 1.2849 0.0364
88.2100 1.2716 0.0379
88.2300 1.2582 0.0342
88.2500 1.2449 0.0349
88.2700 1.2315 0.0329
88.2900 1.2182 0.0331
88.3100 1.2049 0.0302
88.3300 1.1916 0.0318
88.3500 1.1783 0.0275
88.3700 1.1650 0.0292
88.3900 1.1516 0.0263
88.4100 1.1383 0.0269
88.4300 1.1250 0.0236
88.4500 1.1117 0.0245
88.4700 1.0983 0.0227
88.4900 1.0849 0.0212
88.5100 1.0716 0.0215
88.5300 1.0583 0.0179
88.5500 1.0449 0.0190
88.5700 1.0315 0.0171
88.5900 1.0182 0.0165
88.6100 1.0049 0.0139
88.6300 0.9916 0.0156
88.6500 0.9782 0.0113
88.6700 0.9649 0.0126
88.6900 0.9516 0.0099
88.7100 0.9383 0.0105
88.7300 0.9250 0.0081
88.7500 0.9116 0.0082
88.7700 0.8984 0.0061
88.7900 0.8850 0.0047
88.8100 0.8717 0.0054
88.8300 0.8583 0.0022
88.8500 0.8449 0.0029
88.8700 0.8316 0.0001
88.8900 0.8183 0.0010
88.9100 0.8049 -0.0028
88.9300 0.7915 0.0001
88.9500 0.7782 -0.0048
88.9700 0.7649 -0.0030
88.9900 0.7516 -0.0063
89.0100 0.7382 -0.0047
89.0300 0.7249 -0.0085
89.0500 0.7116 -0.0066
89.0700 0.6983 -0.0102
89.0900 0.6849 -0.0099
89.1100 0.6716 -0.0100
89.1300 0.6583 -0.0125
89.1500 0.6450 -0.0132
89.1700 0.6317 -0.0137
89.1900 0.6183 -0.0139
89.2100 0.6049 -0.0164
89.2300 0.5916 -0.0147
89.2500 0.5783 -0.0179
89.2700 0.5649 -0.0166
89.2900 0.5516 -0.0168
89.3100 0.5382 -0.0173
89.3300 0.5249 -0.0194
89.3500 0.5116 -0.0184
89.3700 0.4982 -0.0211
89.3900 0.4849 -0.0194
89.4100 0.4716 -0.0208
89.4300 0.4582 -0.0200
89.4500 0.4449 -0.0220
89.4700 0.4316 -0.0207
89.4900 0.4183 -0.0225
89.5100 0.4050 -0.0230
89.5300 0.3916 -0.0221
89.5500 0.3783 -0.0232
89.5700 0.3650 -0.0228
89.5900 0.3517 -0.0230
89.6100 0.3383 -0.0220
89.6300 0.3250 -0.0245
89.6500 0.3116 -0.0205
89.6700 0.2982 -0.0246
89.6900 0.2849 -0.0215
89.7100 0.2716 -0.0240
89.7300 0.2582 -0.0217
89.7500 0.2449 -0.0239
89.7700 0.2316 -0.0224
89.7900 0.2183 -0.0223
89.8100 0.2049 -0.0237
89.8300 0.1916 -0.0211
89.8500 0.1783 -0.0242
89.8700 0.1650 -0.0212
89.8900 0.1517 -0.0242
89.9100 0.1383 -0.0209
89.9300 0.1249 -0.0252
89.9500 0.1116 -0.0204
89.9700 0.0983 -0.0250
89.9900 0.0849 -0.0212
90.0100 0.0716 -0.0241
90.0300 0.0582 -0.0211
90.0500 0.0449 -0.0246
90.0700 0.0316 -0.0215
90.0900 0.0182 -0.0231
90.1100 0.0049 -0.0219
90.1180 -0.0003 -0.0175
